3596
4000.36533379555
650.420452594757
1
2
2
0.0658089164187617
0.0686226206194859
0.0603820336841896
0.0573766138305815
0.0543194777649148
0.0567575954642828
0.0601639642116585
0.0544963591571692
0.0571065510804531
0.0660982550263244
0.0598852844631666
0.0559031696177303
0.0564953459660815
0.052954845902476
0.0600009607407278
0.0563152146943462
0.0604269020090694
0.0583470892121919
0.062775610269671
0.0601527018583868
0.0620062242979622
0.0646220533645134
0.0555450040213772
0.0546890642133851
0.0599702325606086
0.0558949922297549
0.0585359733021986
0.0662154918094627
0.0667522554598871
0.0709829494139275
0.0585295010509066
0.0644394146241384
0.057521035070892
0.0602908891046544
0.0579011791005985
0.0612433608444983
0.0612176469071866
0.0602030428493649
0.0477330186936424
0.0596066934657109
0.0633485136517669
0.0591990385855888
0.0589140162666439
0.0628610477312479
0.0565688078262492
0.0653481096907347
0.0642333764423611
0.0543166452539792
0.0516104694831591
0.0648670334035386
0.0572540734565184
0.062812988721595
0.0645234508250052
0.0580158327521567
0.0634396184065384
0.052556031417264
0.0584197522359969
0.0660832853839209
0.0625638072258496
0.0672682374647234
0.0658374146395108
0.0494353573088144
0.0612732441137928
0.0470215839703901
0.0619108162157822
0.0578354862510367
0.0651965759587818
0.0575134596081533
0.0733307101978004
0.0552663737362227
0.0606314539640314
0.0667830097480666
0.0509764105947851
0.0682503218021309
0.0545133009188014
0.0528964448175057
0.0657161109603093
0.0508792923352112
0.0554257464537778
0.0629932460619304
0.0624462874274203
0.0568312840725724
0.0590124093904156
0.062095467255974
0.070526243238114
0.0455378986386215
0.0603384004561697
0.0563037719125971
0.0604847400651409
0.0554951942292785
0.0451749564929017
0.0549419553093553
0.0617745973213715
0.0537777670586546
0.0633110578011889
0.0493941246567804
0.0552717431327009
0.0492127320652241
0.0496943647119943
0.0677013611933486
0.0440364375789825
0.0743579552103671
0.0260270221663087
0.0855077526556175
0.0592118862736969
0.0446331040513426
0.0851822592573715
0.0412764149168807
0.063557528451628
0.0492993183775057
0.0625567408249504
0.0558008260821668
0.0628268433881251
0.051061977739464
0.0678406084646537
0.059102012934583
0.0405910347624397
0.0459129192395484
0.0557496695328007
0.0467768408692155
0.0499139494837611
0.0771391681435321
0.0389847537143427
0.057918129637867
0.0467218067495925
0.0561064959008209
0.0651604270297327
0.0533305290989829
0.0411298516869972
0.0481695195489582
0.0468054008252191
0.0627131096084255
0.0437352142507118
0.0740510474270043
0.0352654349057659
0.0530381162315259
0.053312603208714
0.0630656321819595
0.0844287644940564
0.0429604507675882
0.0631293423416206
0.0444960379819257
0.0525968550486892
0.0566645848779122
0.039588445480412
0.0477823108378119
0.0642178139036917
0.0505132247374262
0.0461269446133204
0.052466896563219
0.0483770190664098
0.0610464765635158
0.0583627749499362
0.0488016330487517
0.0793138598501413
0.102019687021778
0.0304815657757757
0.109428360475498
0.0304534475173162
0.0613746239221387
0.04713993263306
0.0473175160102257
0.0483079590061587
0.0514081708493894
0.0555058205371367
0.0442050953701148
0.0643507593515551
0.0400639260372394
0.0552807141939547
0.0578154905923415
0.0571900549761251
0.0354540667001333
0.0771244440993633
0.0429396660110141
0.0407858540382128
0.0634198012158078
0.0411539990514309
0.048878360181092
0.0484432797969897
0.0664872065466935
0.0454794830494912
0.0536018172906382
0.048182582298897
0.0516325568004672
0.0635341906380683
0.0548859529174233
0.0491007705685146
0.0566233831066993
0.0458972042493501
0.0680131851621968
0.0800275342276657
0.0589635456199875
0.0390516898123546
0.0573220391145878
0.0443644579224294
0.0627548607176716
0.0694540337904883
0.0360436708788683
0.0528712214488485
0.0420703496072926
0.0526160919035722
0.0505138981595883
0.0453206465435525
0.0578838363494404
0.0462664040618488
0.0702587508044729
0.0571728815259008
0.0382749978942673
0.0490810161792122
0.0492262228637265
0.0619426052565358
0.0732371874786787
0.0748636422053027
0.0289293626957062
0.061553185539097
0.0473784489228377
0.0637652327920769
0.0492997157383055
0.0500891088661461
0.0480126367502085
0.0498151567974124
0.0489768853643315
0.0559539434228295
0.0536483064611888
0.0514500905442994
0.0439784296017338
0.0546067781449181
0.050082687948495
0.0577986347938722
0.0482921527546172
0.065070004700843
0.0479091864266259
0.0550435369437305
0.0490806703655568
0.0559382801871901
0.0728954885054079
0.0461883212544001
0.0434080670136121
0.0486114064914455
0.0497583026501583
0.0473523041690284
0.0490069487712683
0.0489751834077252
0.053719102389554
0.04497709404762
0.0700754579278271
0.0561237238111254
0.0460305199666712
0.0641774679454657
0.0604136858513251
0.0894428840617732
0.0345119218973537
0.0652916781166632
0.0471888749618179
0.0652970960783448
0.0471502503378631
0.0779342005283937
0.0492011464201605
0.0572017271684329
0.0510184601415788
0.0793951334958972
0.0366983215202128
0.0716585584002133
0.0486689789914504
0.0943910699517407
0.0548253882598113
0.0415245468753031
0.0734561208147278
0.0493840125316883
0.0423572358451685
0.0725442375805034
0.0392046397197333
0.10649061726248
0.0893090777802385
0.056222593757321
0.0435930741267395
0.0686250492849231
0.0462793462592419
0.0617277011083047
0.0633195955997866
0.0618750549278133
0.0824382303390393
0.0519150977600478
0.076739883500792
0.0595991788418026
0.049875137234826
0.0943597927095367
0.0372573044586144
0.0754299279528447
0.0460595280200154
0.0783950292230035
0.0551767132774363
0.0890618016061599
0.0510241058085596
0.0787957660377862
0.0435141403872391
0.0920671795339345
0.0584056145838404
0.0633756796924509
0.0523753672721672
0.0750977617896046
0.0490030298076118
0.0750718319302058
0.0595596990750526
0.072809963741199
0.0667846320171314
0.0680333541236869
0.0833513993159445
0.0817777961942399
0.0542030046004481
0.0867433951594658
0.0592306227005242
0.0652010326583614
0.0630277970858713
0.0688452140030418
0.0662267392827869
0.0721792585234563
0.0554417261122785
0.0785240453895864
0.0730142091516279
0.06519361148195
0.0667796413068053
0.069895963300412
0.0711387975433017
0.0731938515088527
0.063608704711823
0.0732241599338001
0.0672164211553309
0.0748409579899793
0.0638252354092285
0.118069763859415
0.0648706266088376
0.0834331278591219
0.103135405762181
0.0726423594604189
0.0683209542921891
0.0728929312728737
0.0869882873471894
0.0840544889269455
0.0781894533437718
0.0941260672074134
0.0791580965803636
0.092073466688604
0.0911125564256343
0.0975998227659241
0.0871558380765449
0.124270544353555
0.120344714064604
0.0947085565381412
0.0822144564852484
0.100848289221751
0.0804607842410719
0.145332659851967
0.070907342013212
0.130459833390781
0.0811723124429984
0.110669087517254
0.0954628288600671
0.100682072510574
0.105526136216474
0.114667183049606
0.106054849907798
0.119761155371692
0.11723875022327
0.121343213978103
0.108144713468203
0.119183317404224
0.136307219699044
0.136052799222309
0.117414643683004
0.144451675459856
0.126226553582221
0.144990282232323
0.169265300653821
0.143933221561014
0.169235395807957
0.132502772697505
0.170549703872315
0.145705080452667
0.141042834548193
0.161820011728183
0.1441912575379
0.170948047079847
0.159248360312664
0.173154573508214
0.165458634101826
0.174783043015869
0.165671741500799
0.184335899366901
0.172436094439077
0.188131606297873
0.183312841258016
0.19755636551973
0.179920953135884
0.211525008164509
0.192715612674729
0.237935061010846
0.191397468576243
0.22598177164154
0.181993976833759
0.233338182042374
0.196599598465936
0.232365128662496
0.204198376121869
0.234986197105607
0.228589401780065
0.253000459756421
0.250067893935715
0.242817607171643
0.2315249159679
0.252654632762761
0.238247191523326
0.282815277080377
0.249656704448346
0.283972583072576
0.251750200136254
0.288590683307357
0.258759800335126
0.320113976209024
0.263455733162336
0.308348582686571
0.279726344819942
0.302079143756877
0.278724928278927
0.323622368037759
0.301182150945694
0.309379344566244
0.297392498051934
0.318646406606954
0.307725746175511
0.339839261304965
0.298268375849605
0.346644202409542
0.33877647053727
0.345951973556023
0.335284184462901
0.351887473526536
0.319241968020164
0.380832800485588
0.34846616325098
0.434497096913017
0.356280700900031
0.413888714468808
0.360435238825954
0.382447793157105
0.343140044589883
0.387664219793706
0.376553141560271
0.408099845360536
0.387610111851666
0.424672504261382
0.403940764676534
0.436077496000991
0.427964412400212
0.436145129884867
0.421247109464534
0.455719412560831
0.421664148993061
0.463865375659945
0.444726784057527
0.468832216970933
0.449788448712537
0.54399343750955
0.477312810470907
0.554932066907525
0.452917837434847
0.483671467361031
0.492890165991453
0.527459013496589
0.482018662788133
0.508870608617108
0.486097291579432
0.529682494904257
0.483538644995986
0.580708024751135
0.544029122091249
0.552447481155404
0.491706825183821
0.560175394424807
0.547154159290801
0.604219878262397
0.547388078302218
0.609925660664322
0.569436757712196
0.610612108502168
0.515840665928972
0.587459139359484
0.568153817211158
0.669825802969885
0.546174381945977
0.622225245784416
0.581855853926252
0.635165140485246
0.608742459041845
0.629655989038508
0.604604534436728
0.646727052211337
0.623737826295356
0.632151584654763
0.626735047132546
0.681528876105635
0.690191445806272
0.693917118316036
0.705751041027019
0.690917851268999
0.626945799408502
0.68667255234252
0.668323996284409
0.766672428957895
0.685450181535672
0.711099631567175
0.711573815341253
0.738942335285794
0.691258563958248
0.790565132873045
0.690124809476014
0.835837531997013
0.724406304913401
0.745490649503309
0.711479443777336
0.812264854852461
0.674213983678367
0.86706641091516
0.741595583605964
0.81403756063594
0.757913778043492
0.879353524613517
0.767167840463933
0.887973230646381
0.77288218141362
0.785753965562834
0.725837350296232
0.843735402236143
0.803531917614097
0.882864960655331
0.835983080365519
0.893103536425069
0.804581919960108
0.856444295752061
0.825307530973893
0.937663338185058
0.860009181401876
0.918165198775307
0.858345164684513
0.923181855518172
0.820295725327097
0.955297512627029
0.824008784783246
0.933868181646832
0.89500857923897
0.953287042032406
0.874579005500845
1.0377669037768
0.975682576436976
1.01489625203343
0.857936250829834
0.948189065901094
0.863121942268217
1.10640478976824
0.900055568380169
1.00590078524991
0.892436574697289
1.10018538078333
0.991443997633242
1.02518267579848
0.991726811501976
1.08400455555284
0.946261176764178
1.06181348953414
0.98678632747611
1.04027672201941
1.01846593556404
1.10005335865472
1.12985344467267
1.24312681945621
1.05336464227182
1.13935951802797
1.00434243025403
1.02168076088373
1.06099654255211
1.1319349581207
1.02236710100689
1.20398147230352
1.14730877807982
1.23572962552849
1.07785461829074
1.13684160889419
1.0436710751018
1.17892012391175
1.06201540098401
1.18811166915221
1.07919939149872
1.18867199139817
1.10063062280662
1.29823428446669
1.08138707665265
1.32671572398911
1.05619613922454
1.27610041454424
1.16802207784231
1.26001549011025
1.07943242859929
1.18658055953938
1.0207097120527
1.2997252996194
1.13993994037063
1.22021356174282
1.1320988280302
1.4041011115755
1.24992548355839
1.27722653925624
1.1864982018036
1.28888909584527
1.14574968239422
1.45784388304396
1.42386212268637
1.34173847216633
1.14508077197863
1.40866872381459
1.19089602584155
1.55915495226806
1.1035424585723
1.47626824062818
1.20508581488786
1.51508820261505
1.3322422329223
1.51035692245309
1.20899629119487
1.31660643714287
1.13465016129139
1.32703319141115
1.21218058669333
1.24165874692819
1.23173012084182
1.44734420961605
1.3177943656381
1.48612374961896
1.2030064461633
1.44671957336259
1.24541656564382
1.34015073756806
1.31225893445895
1.52346625491102
1.31909412700041
1.62939033284553
1.38308294062736
1.53691435273242
1.27389778876047
1.36511375179849
1.38705483694532
1.43804632212243
1.30871872081053
1.49053489969005
1.28985696880709
1.44214607546781
1.34776648579749
1.55597638890308
1.31287210410589
1.94185966883867
1.42177073180646
1.7226015094564
1.32852970338346
1.61759480363712
1.41175838100851
1.67165429207302
1.57539545634557
1.57919024141745
1.31805621819626
1.50049164120377
1.43568164157207
2.07682098412106
1.50152256864672
1.61771899765974
1.43095570724514
1.71636469390399
1.52777531913322
1.62253138403902
1.45838584158531
1.5838073715563
1.37240612515999
1.60312453328923
1.45665792957122
1.61587445892808
1.48427646851154
1.59674733117342
1.41779566470058
1.52778351943146
1.54544608715413
1.76313881098071
1.31768032186119
1.49347817180153
1.5165474060063
1.4386032850917
1.49378905212795
1.69471675680395
1.34046265905007
1.80148388824577
1.7944547950986
1.55321232686508
1.4298732271385
1.63558888585285
1.69458264702119
1.67969723728326
1.52193404543079
1.42013308776945
1.43596242763268
1.76308616872945
1.43925966803672
1.57540788745677
1.56662366275084
1.58617819375976
1.7357125276418
1.88591782161042
1.6236208756462
1.80400667586668
1.57161883098765
1.6289512087825
1.71857820046684
1.72116392488435
1.52336227091971
1.50804894222914
1.41553198739645
1.53496932775328
1.44611685144541
1.56724393119185
1.53136183908486
1.66440212584832
1.55519653981638
1.52389096275251
1.46423081028406
1.728164253047
2.05934228509874
1.83093482040739
1.52290071135547
1.62672163302592
1.504537920053
1.49360344428733
1.47240515641602
1.60259757165792
1.49907476761232
1.75970612920336
1.65188229980629
1.59210004517671
1.74730664227903
1.51492121131085
1.4407334025733
1.78105154136983
1.46561033031904
1.50668594255145
1.50167753475608
1.67803835484842
1.72818450755284
1.62046124981549
1.46009111774724
1.49174936683456
1.45754367378485
1.60487883824839
1.59189574192764
1.9737341971719
1.61646354284976
1.52457197663322
1.63039714716376
1.76305413891799
1.47616447519028
1.5757975640567
1.71975731350753
2.10521611077569
1.5360153179243
1.62035906496375
1.51545952357695
1.64824282920248
1.65732288541872
1.61538243561047
1.59633743091281
1.74355274389258
1.59215742319107
1.49581798496846
1.4841825574666
1.74682897652618
1.67187326354913
1.55737082313639
1.5665791489933
1.71565998997396
1.69238277303219
1.66667896553509
1.44808208624714
1.53048481781954
1.46820923295665
1.708077103665
1.75883245187324
1.53869804272618
1.71464752212211
1.77593679012437
1.58173873660942
1.60247795208214
1.4492871671073
1.6686529382136
1.64228800421131
1.6584890429946
1.54960210811256
1.48623823111572
1.48878352868428
1.53717037083089
1.73167477239235
1.7129314584435
1.57630474243565
1.49966659659281
1.46038848447299
1.54371475689942
1.49559644682124
1.58544053704615
1.50534836246832
1.55647342909144
1.45626523830136
1.52993932728124
1.4536676859824
1.47160006483026
1.52968144682951
1.68417154096442
1.82285882423173
1.59109629423728
1.36192989074022
1.62573303425556
1.62635699348809
1.54357246828891
1.49475543490203
1.51592049771884
1.38337410224535
1.44727718599607
1.55687239962239
1.56127113797537
1.43535532098946
1.37289219403857
1.39196323060913
1.4774785179317
1.52332756322094
1.55886394371933
1.50319321688788
1.47780054166856
1.48486785221245
1.50081429329566
1.40302282982739
1.71092322335594
1.5795521184217
1.39045331061409
1.47551516005478
1.38735096054157
1.43019251445354
1.52998472926172
1.57861199293112
1.70246367862238
1.38487094030783
1.38542189209113
1.39671414758143
1.36064889456503
1.40359307892622
1.40413670557243
1.41245299641648
1.32938012976378
1.41361321226143
1.4300055079068
1.3439001036526
1.46550992565989
1.42294735528839
1.32854127589821
1.33040622938491
1.44470365344273
1.439655567152
1.39287335200884
1.34985278898633
1.38651349027857
1.41817788828326
1.41493132657117
1.28868457810702
1.2562354137577
1.2544702512615
1.28543458782354
1.32476063196701
1.314399132629
1.31654395628863
1.37571965615128
1.34894191862939
1.31176370389474
1.30979710907521
1.39969249926015
1.33646774808953
1.19191965620935
1.21219652141439
1.27558675668164
1.24543156158372
1.22072531021399
1.21632950124151
1.22434586211862
1.21237306125484
1.23975596952203
1.26170406515155
1.3065777186778
1.28299021867577
1.18948734179482
1.19459149423981
1.25261096480839
1.18854070494385
1.14325212334157
1.14843354353084
1.18195377414286
1.16204762591517
1.1642448003847
1.18011131671925
1.12712853778635
1.14688265754005
1.22213185516387
1.18044597587266
1.09084328992883
1.13882842219272
1.15372091476603
1.14854018952204
1.10683290965387
1.11183672385058
1.13485909174742
1.09583200526366
1.10325513876315
1.05607439998875
1.05071841333586
1.07046518405029
1.09137903546812
1.04591266474597
1.03884228120028
1.04746601024676
1.04473624945716
1.09288840765417
1.05294721535108
1.00629086922148
1.03832942880652
1.02622009995503
1.06725810957275
1.06341617796842
0.984862611081616
1.04495539564369
1.01539685038144
0.986158146004427
1.0052421845111
0.979199702804828
0.952129897315578
0.969870383813023
0.968917203686746
0.974863695378408
0.951098633295355
0.913852785161559
0.923460823670542
0.954230013920067
0.962523844779119
0.962753513536669
0.92801754211984
0.932117607010548
0.921896791225961
0.941027382998426
0.916687393543364
0.911629438949168
0.921627683340153
0.928774143889197
0.874150390081391
0.861390300751454
0.894520803872295
0.88302809863198
0.888975218083688
0.904669706348488
0.883960043816601
0.877672478526911
0.878107534828923
0.887765992150429
0.846475173697465
0.836857961018153
0.831544530362096
0.812695012578303
0.824951097672699
0.842429903119502
0.83034041077453
0.824211604889899
0.823907619254986
0.838390771406637
0.8054301482956
0.807544817343969
0.790057842364065
0.787018750694555
0.800688189334035
0.799065126554401
0.774446068812101
0.771734579771944
0.772566795351344
0.779203249564088
0.786375959517671
0.779715360960198
0.766960224053283
0.762420865723545
0.749019873100574
0.781816688485906
0.771541893402544
0.742459310669265
0.744531837337533
0.766326157680408
0.761376716325518
0.758266495043871
0.721231647273865
0.731308774098678
0.71210241061681
0.710480673475616
0.702475753829515
0.704244718131616
0.710833017051143
0.707546712340385
0.707043710044307
0.697881540459388
0.690253555452947
0.694717973235273
0.686315670167506
0.696616295512454
0.684539714838626
0.689868581384548
0.672825176216261
0.665957249667633
0.663723273354533
0.664304602097207
0.662402659023535
0.666048787755032
0.642365726912625
0.645344646067835
0.652428060849693
0.6467051801717
0.642831169844222
0.640506973176086
0.645385898721254
0.646776744359826
0.624522260202655
0.643657283813787
0.631236893016015
0.625108490221748
0.613836246852244
0.613531584426731
0.618670083869006
0.617029014005447
0.597051915983511
0.597790353092629
0.59107164823079
0.608203697274443
0.600502197291435
0.602791618835704
0.59195484124924
0.578907501592487
0.583588640055816
0.576406570822128
0.564110844658796
0.56878183109136
0.562311045346524
0.563912530752319
0.568687997175366
0.568067768081532
0.557269002967174
0.556254874168675
0.549358838611522
0.555894642483328
0.554947027958147
0.546703238523054
0.535604589048391
0.549501203507587
0.534909562406179
0.539028807587622
0.519013894323008
0.54068911559669
0.528355155903552
0.533706806186887
0.534645537320372
0.533651459484251
0.541470761421598
0.533478543495529
0.5108341319299
0.52511205640817
0.522534239802186
0.53126213265125
0.51314359841089
0.53126116908155
0.523078721131876
0.53003777243569
0.527632498508476
0.53045367139217
0.537482416781425
0.527231708124443
0.522086797299056
0.52497539771878
0.528966977781618
0.519246959979273
0.527217296570708
0.536776118867255
0.523740777097019
0.542722020842247
0.543518160621463
0.539124527913977
0.536126675165128
0.553523338939402
0.540090936855668
0.545025003699241
0.543012009981752
0.550078888983479
0.552869069801533
0.557560513179685
0.558647912075999
0.565045273562182
0.565532850360595
0.572207425216748
0.565351268962945
0.555604183334171
0.564953306494394
0.570999594555768
0.554100336291433
0.573643301436513
0.580740674034574
0.592221546182271
0.574811424777184
0.592388546254715
0.599417396709967
0.601551665130264
0.598232879986308
0.599130787122449
0.584541019769673
0.595026628648257
0.59600384932119
0.611437023192608
0.597396708554154
0.616449719220784
0.60900587456562
0.622606493487172
0.62382321272666
0.630102621795015
0.624161747559527
0.646880570122708
0.627498018497505
0.654681812014754
0.626468838168844
0.65495356677633
0.65183133527226
0.649857385710221
0.640107989152275
0.67623469514229
0.664821573372059
0.67301597840846
0.675691987910461
0.689735713028388
0.673934392023386
0.683282687732891
0.667705502732151
0.694889841323557
0.669324147651279
0.687401606369908
0.677522673935244
0.702163409400547
0.689619619927613
0.68377135008597
0.674550826624595
0.687138828987333
0.68080154815098
0.688067151249264
0.671110024749207
0.669204108525175
0.656413907031197
0.680747398207706
0.668140100363456
0.664765899979688
0.666213264689675
0.691762072536517
0.657900878451014
0.675413251538976
0.661577820745553
0.695276635194727
0.672658209514272
0.669651862888738
0.669848928657983
0.667293914171816
0.66560341555431
0.666460796199667
0.68043889751877
0.678780021694171
0.675785063200813
0.697529746878505
0.676775444291286
0.655377090262258
0.669345519795174
0.681473610408104
0.679068471256016
0.667884651897186
0.664658634846588
0.675180489534729
0.65957293038449
0.677499078788651
0.681717432195124
0.676438044517051
0.660723278730721
0.675686148965068
0.665991394996168
0.687152405752517
0.66150246867678
0.66954701283777
0.666692351726318
0.675075060057811
0.654451569054077
0.673411841135856
0.654922359895714
0.661388792410575
0.652287005709133
0.6588674642855
0.640990438862668
0.658282381169699
0.639033102010873
0.648432831477509
0.657022148052137
0.637024004084054
0.625788982883403
0.645535651011076
0.633743413040312
0.635286174681757
0.621895703953662
0.636102597294549
0.609179257783546
0.620201996269409
0.600816253290432
0.604123134693121
0.591930773564955
0.592925942293651
0.579527119431494
0.581277314248601
0.575096876320538
0.57876494991326
0.564092663039962
0.574397274206372
0.56493738203173
0.575992354352442
0.556114851122862
0.558240504916889
0.546160945301873
0.542866270996218
0.52837916891431
0.535205315908777
0.528391890575648
0.544730306876988
0.516616213828032
0.523740083893373
0.516234000462442
0.525119556227387
0.513952285197733
0.518038468250402
0.493282958025659
0.511718266588072
0.508760632430427
0.500427060720753
0.485438427081023
0.491371609373386
0.474823979088536
0.491000735142954
0.482605024021732
0.480437922137109
0.476663592365066
0.475961380718679
0.473730674384696
0.470430367325989
0.466028820735047
0.46576749629855
0.450478038265794
0.460054709697329
0.450272255460122
0.472946933640572
0.451537855893787
0.475033778661871
0.444270256831098
0.450603451759329
0.449917053411158
0.460917065783777
0.43694940622308
0.453554506179742
0.446800493828505
0.444579934452516
0.437538115668246
0.446868026548559
0.437092251559253
0.437357805267647
0.428457304228587
0.42681225626925
0.424259893076344
0.431970146395066
0.419627788131585
0.438079711891871
0.412546294607065
0.426878266700588
0.42032531765165
0.431821906365713
0.415586453663381
0.421299192842362
0.422371971741785
0.410073466138717
0.414027509301115
0.421128958490205
0.41017239363981
0.414726372249402
0.404210025828645
0.413237020553748
0.396236267683954
0.410328975968706
0.400733247943415
0.399612220837996
0.398645414219148
0.402115311157896
0.403166761339782
0.411667947451712
0.391195031841185
0.4016820082689
0.392184248483873
0.406080206277123
0.390624109749079
0.401812776093732
0.385623603561548
0.388611013958788
0.388431815415987
0.392698695508333
0.388387899997219
0.389212425214856
0.382424624652107
0.387343564182842
0.378825437880393
0.397535004442051
0.377928019442024
0.395915607028698
0.386976421379601
0.381695583291017
0.367866186105866
0.382406771242639
0.369264179490315
0.391047917489473
0.371718122737859
0.376288282317288
0.36738184323463
0.372039811482759
0.370672091832921
0.376532177250943
0.362691652788122
0.37538984576181
0.369520950373196
0.375476130815785
0.368730290371969
0.377283501967618
0.363914213287864
0.375507384623972
0.36402516001573
0.369483765786216
0.358384283536962
0.372234155197122
0.361958218551574
0.369796345361312
0.357991602973104
0.370466978441204
0.358896695605524
0.358857752479709
0.36245297906687
0.367741877445533
0.345351850759659
0.360058368325189
0.364703539167718
0.364327355802005
0.357413976664104
0.359511507302064
0.361383971172033
0.364904650417823
0.358384076597177
0.365707471730762
0.353220654994074
0.358193329010053
0.355627671924978
0.356085784858076
0.356989564917569
0.354718796607416
0.348667980217864
0.354959566274339
0.344421414240564
0.350214511056765
0.339869583810184
0.352999520644446
0.33897864614885
0.359878104072155
0.33818957899805
0.352815681994294
0.341846136704067
0.350499519642821
0.349339276442467
0.341313036760265
0.33740362572213
0.344226555460032
0.342050056272477
0.342360982061593
0.335220983620104
0.33911434544331
0.334558932508942
0.340090168839698
0.329653061466763
0.343891818794389
0.326521772848073
0.339156397467472
0.332950366187253
0.337220582666581
0.333519723198157
0.339888497425536
0.337854873871476
0.334579696584571
0.321697770084774
0.332549520066928
0.32431403132763
0.323908742261469
0.324992326349192
0.331571263743796
0.316355673329053
0.329052930886841
0.323652212881966
0.331940509301892
0.322654714194539
0.320558640372863
0.309959285968283
0.331523228019254
0.319292675438884
0.317467271962879
0.308482703015454
0.320209079099001
0.314478684717938
0.316410665186328
0.312567713339915
0.316912561060291
0.312780517517888
0.32249274409318
0.308238122786559
0.314516558412669
0.307140471554862
0.316333614372791
0.304887661517594
0.31089019154395
0.304171083890918
0.312731619925681
0.299167359731917
0.303937537740181
0.302140405865974
0.30832077382729
0.296754333110404
0.303509980336501
0.296354970030516
0.297661503721271
0.290804608298757
0.29865639371098
0.289059253719814
0.297248019118948
0.290642166991749
0.299056137562288
0.28978514631856
0.297720561001823
0.286894169831812
0.298111075417877
0.284370198672704
0.289420256096757
0.283646707310955
0.286558691217626
0.286932322566389
0.291218128246745
0.281633530314056
0.290473515020552
0.278428212855315
0.281005961470425
0.276595365183407
0.282716998918658
0.279187723155045
0.285023524018815
0.273652880678103
0.280260970664119
0.273252019187927
0.279848508418328
0.271343730497218
0.280485143393887
0.272567686831344
0.272257095494717
0.267660994704301
0.273428464667962
0.263640130660991
0.268953641218234
0.262636078515218
0.267548750587596
0.262971156422963
0.27089049008242
0.258267499476019
0.268627571211512
0.258786918874631
0.266392433523048
0.260935757430881
0.264930869159565
0.262206303506328
0.266099314526212
0.260529973505545
0.264235871576277
0.260910085393875
0.263238946606861
0.250977205984467
0.256659530672246
0.257203549815183
0.258751079847219
0.248261979967502
0.261411619341484
0.245119074950683
0.255852931354636
0.255553395120059
0.260542432840741
0.247390355860348
0.256769481237097
0.253263429263741
0.255891894702223
0.243323081183252
0.253670719310846
0.247949631992997
0.250109042657919
0.247939814488792
0.25286703630234
0.244158134372008
0.246299304462554
0.238637483253833
0.250652063927095
0.241232239775697
0.247911641715907
0.240575331343766
0.242922273889918
0.237456161870636
0.244645043214087
0.238980809397803
0.245873360078703
0.241457645727349
0.241964363777815
0.233443620441905
0.24429797542307
0.237254939653302
0.245652114166822
0.239455531810894
0.250178547462295
0.23738818849578
0.241064962592604
0.235340285403685
0.240425359583532
0.236226163395583
0.237300357278626
0.235571123629867
0.244203512932406
0.23304659820823
0.242349388078168
0.235234357207906
0.236838968483264
0.232845724715531
0.240238996529884
0.231702719095409
0.238197139608352
0.232865966688133
0.239233686141544
0.228911285870775
0.236611526809426
0.230312097113523
0.238710717490468
0.228599988434676
0.231595931749122
0.226020083863456
0.231903067946821
0.23114506968129
0.234046609931431
0.224813826916905
0.228855215043966
0.230055030299621
0.230048885530888
0.228098283510046
0.233368667171608
0.226593566805379
0.2326843693885
0.223841683619753
0.230070658239613
0.223812658970328
0.228591567330612
0.225464147664263
0.228451423373648
0.221460289966732
0.22362748927498
0.220599687108447
0.226641070069978
0.221029548086674
0.226319050455683
0.220071724858961
0.223982843292734
0.21932580811342
0.223599351256234
0.213738279564968
0.219234263307282
0.222574800180295
0.226647328166136
0.222773812392298
0.224142506611337
0.218646816127355
0.226047502699885
0.218958232486675
0.219906900499396
0.217319831040119
0.221610414712117
0.212063923479085
0.217597404929835
0.217111671643175
0.220338640537791
0.21360807434979
0.217797230521945
0.21048217983159
0.218321273602293
0.209727815544875
0.222434131504162
0.21128483687491
0.212747945491715
0.211058903765122
0.215609291918958
0.208323407798803
0.214566389575271
0.209441925300879
0.213365686795511
0.206845861084284
0.214265289211921
0.205062474345932
0.211806391567217
0.209443273483335
0.210531409756151
0.204959865843387
0.215210707433166
0.204695813430387
0.210068498164484
0.205387106718266
0.208008318385348
0.202335661229562
0.208603958179782
0.201469475847794
0.205230759739252
0.199573191680982
0.202523569412924
0.195895104205138
0.205058145442437
0.197994501790709
0.201908751762563
0.194677740035163
0.202039719272027
0.199748698877376
0.198688092636542
0.195414544050207
0.201258948798833
0.195607795245052
0.199560679198958
0.195204726267474
0.200724690400877
0.193091483258515
0.200008012540903
0.194187277193255
0.196779308277573
0.191948295643985
0.194885862965849
0.19238006584502
0.196090001037249
0.190357224029086
0.194588249333972
0.186068364452522
0.194577235819752
0.186527902688574
0.190192771205505
0.187147496353933
0.192025674222951
0.187715314133651
0.190356444236208
0.185949208535954
0.188973985296235
0.184683075758495
0.191601842641782
0.185547191633979
0.185914822570179
0.183836369044573
0.187748147072026
0.182984205450558
0.184142475973359
0.183313293187232
0.184624823678957
0.182994051100329
0.19027900198716
0.177326241313474
0.181097758581777
0.176705401732012
0.17977088630788
0.177203080769304
0.183963994539721
0.176854334300309
0.18299168944949
0.176897259247855
0.176352383344756
0.172549635609051
0.182402257712096
0.174274652587972
0.17992854497814
0.177649893233547
0.177064482443369
0.174102875553947
0.174953658385634
0.16748668197701
0.174309412494533
0.171057822559133
0.175623414229279
0.168388292472
0.174785777750304
0.167614262208748
0.17346909721383
0.171518080071073
0.173531185862437
0.169938070129869
0.175441153125137
0.167825313335031
0.170649088376328
0.16513178118397
0.174064260851643
0.169052644570256
0.171994762153105
0.165503285670913
0.167991666258586
0.163568049002905
0.169968683016014
0.16608742167095
0.171246398117352
0.164852793383036
0.168647975420545
0.162883059918993
0.171975399192762
0.165746834471188
0.165668177428506
0.159260127595982
0.167598458976482
0.167812249685083
0.169053365228975
0.164522997413169
0.165933955966764
0.163177667215953
0.16660868377138
0.16171375811447
0.167016691330993
0.162575068441519
0.163620443054135
0.155990946207668
0.158838856590252
0.15308173650371
0.164634175991532
0.160267852506629
0.17222884102161
0.157437422808076
0.164332584216774
0.154119809350725
0.16135377544194
0.156866617058501
0.156559064544553
0.156328391895316
0.162392320912354
0.154914045406359
0.164435267417614
0.147364455342393
0.162970998558058
0.153218873068759
0.161301813269865
0.156201416776711
0.155345407436305
0.156373083870607
0.162819924512782
0.147680216085153
0.159134738643551
0.155858777922915
0.157731144069132
0.152912244277636
0.165305957519572
0.151093900254591
0.160230306079456
0.156292366280765
0.158019222407726
0.156184556221873
0.156231080007007
0.14842744614118
0.153063568783646
0.152863283075548
0.148177557836802
0.152946515971192
0.153086133558237
0.162077930345976
0.154527092676289
0.164732244169461
0.139584233449555
0.156224735408494
0.142410037011766
0.170747526239633
0.139000844394659
0.170444030975754
0.12341458139255
0.174927442160498
0.129484024466037
0.17843329757804
0.116837542351069
0.182881643342518
0.126474888464024
0.179476424052892
0.124615045666931
0.173076618593295
0.137206702332369
0.161584697761314
0.141741590894745
0.15112393399341
0.149573121549897
0.150626894456002
0.160089724321334
0.142959978855386
0.159153664856976
0.147015530482492
0.153036626914102
0.148707186888637
0.153466233941998
0.149357281236184
0.148973963288954
0.150016303482293
0.14590706195989
0.150370527328737
0.147052430262988
0.1492580904401
0.151265372588959
0.147805052042875
0.150584949992011
0.151013574467333
0.152001506279765
0.14954189676278
0.148913642588989
0.150012063725415
0.146765450518023
0.150283202785925
0.149786399754911
0.144982758930367
0.148832228830206
0.146277614891284
0.147805778671079
0.146664620854921
0.151307123561416
0.152582655348247
0.150101343486176
0.148780217517355
0.146902201281682
0.150717902590602
0.148921302239247
0.150983461240594
0.149942834928864
0.147778145984983
0.150618576385502
0.150511617785271
0.14719677447068
0.147285086348944
0.1498689100917
0.149607032995414
0.150165757248313
0.150468779061554
0.15149065389712
0.147332794825179
0.149778184421712
0.147946029256011
0.147827184202896
0.147464397154704
0.146974265544921
0.148532593102375
0.151150166834067
0.148156661803437
0.147190432664268
0.145496691756226
0.150072930721552
0.14701235965526
0.151549451032291
0.148008181425923
0.151284639191122
0.146409297756819
0.149380594879334
0.150479996531667
0.152424826129623
0.147413410234491
0.149570846000059
0.148653021438603
0.15036235044342
0.147984808496636
0.150601101140372
0.148540027563368
0.149012125428984
0.150671225796738
0.150019582101
0.149229614972181
0.153953800341955
0.149088026135062
0.14912885310948
0.145856958079555
0.151781106235398
0.150456064859011
0.149900008252531
0.150224812943397
0.15261347295387
0.151122439085507
0.151276855563662
0.147808294997479
0.151712916043273
0.149002095373065
0.152865529745147
0.152430325934791
0.151547425555967
0.151963459871012
0.15099066601089
0.153080138419693
0.152600330043379
0.149909384166711
0.153555357045535
0.150801902325021
0.151658347237545
0.149503975569892
0.150638170743754
0.149553104446648
0.154437344054391
0.151546579463409
0.154414623648017
0.152635686551836
0.154750225818981
0.151995324380774
0.154646105981858
0.151814440010233
0.152509847189112
0.150957823064549
0.156600298672444
0.151519653232241
0.152651339988309
0.155306770763312
0.154170066065157
0.155926674939068
0.157890706268982
0.1541801917622
0.154852967174658
0.154090214446074
0.155001363718521
0.156362567609433
0.153484901367951
0.155760534954328
0.159740111733223
0.152388585342092
0.155826476738744
0.155816267200472
0.15382986004908
0.153012107302812
0.15706770629366
0.155738696946537
0.155037130935074
0.150771432857255
0.154002271343179
0.156951355031388
0.157998402467061
0.152783634306359
0.155355930949946
0.157992291076513
0.156734479510115
0.157948512153994
0.158463377427147
0.152711217267002
0.158724511279815
0.15631437213927
0.157148602027603
0.158678208928754
0.157346290229218
0.1562755698507
0.16105142529634
0.157069376948835
0.159990048369419
0.160127318396027
0.158586331438746
0.159666694034877
0.160921056330471
0.155366471566582
0.157290623335208
0.160210883598249
0.161071082372156
0.156491176244137
0.15985249352995
0.162590878432935
0.159415072337228
0.155066258736902
0.161660867680697
0.162397008691851
0.161625427751899
0.162260064972343
0.161251196769385
0.160052279323577
0.16045654368448
0.1617943586945
0.159060945544165
0.159416416612434
0.15746985732435
0.15614376217862
0.159397072155725
0.154446647451188
0.156505716914761
0.157008738909033
0.152769300660589
0.158767341348492
0.15389686942728
0.154881500008063
0.155021613020843
0.154988283503062
0.15895081785736
0.155120725187588
0.159328000619008
0.155668349549615
0.155894825658758
0.154652855520095
0.15285953260838
0.151388139657082
0.156186065151791
0.15444648414846
0.154469787556774
0.153533229032477
0.15555445782883
0.154547085273057
0.154987581029564
0.158203882997905
0.154875801152193
0.15582452643505
0.153519347144085
0.156007667805944
0.150784866848392
0.151569573847053
0.158144881451658
0.15367558601829
0.151415813593459
0.148560037254161
0.153168966438426
0.153502425913184
0.153019615786158
0.149801446969795
0.152842596648073
0.149158353811141
0.151530183632778
0.150608491964358
0.148972809841716
0.151989047456478
0.150795683052084
0.150352376615467
0.149176753798402
0.151682504869174
0.152216274281543
0.154535260591641
0.149633181379538
0.150987402593599
0.149068705779712
0.147874941906194
0.150612759675644
0.148465728594717
0.149214807670252
0.147961985009108
0.151491272276131
0.146458257691373
0.148043624505838
0.149512603959801
0.148603253393043
0.147035343453814
0.149567929329977
0.148666884594659
0.149627330057957
0.147434149437923
0.148837689761734
0.145326703033774
0.145914763036726
0.146619395687938
0.146677534027244
0.144274247444132
0.146114908696947
0.147699288283152
0.150971773912861
0.14539793701501
0.146475684732922
0.145497603133151
0.144771934965568
0.144409405551742
0.148103910486589
0.14809402658984
0.147214784178117
0.145040022155587
0.143837602985174
0.14358311224124
0.142720371452318
0.145440903478345
0.142416087232902
0.144362736860975
0.143928003838303
0.141908410407663
0.143341049222933
0.14103674420697
0.142282808673616
0.140823949253953
0.141675072919207
0.14335949672655
0.145283319303391
0.141555053223269
0.141548319314821
0.140748906505632
0.139562235860498
0.138528276342521
0.142045565345454
0.14267342404149
0.139904448040312
0.139572911707289
0.141423636453667
0.136451616379752
0.137215588341955
0.138646739184814
0.135684611377404
0.137062880865302
0.137365651365217
0.132266522605085
0.137968381847127
0.135936725275234
0.134565930985765
0.133103034521041
0.134045312599742
0.132982710281921
0.138796464697802
0.13162005262913
0.133833719096539
0.135619904089084
0.131613405028297
0.133316947477983
0.132953666185606
0.132869924695341
0.130747197018877
0.131036465854684
0.131755497297078
0.13064761338117
0.128463027156404
0.127480285103889
0.128842228435577
0.131444424123705
0.127116600270164
0.124309302500902
0.126913441844492
0.125609172209193
0.124406946401561
0.127244006678652
0.125195619069546
0.128031604161773
0.125410551941351
0.123558784871374
0.126099386626587
0.123736642825809
0.123199188446663
0.129647564685655
0.118291824452365
0.126573932645909
0.123176847569949
0.125472779151026
0.122033560238142
0.122113925021516
0.122041555349655
0.122809969971265
0.122963669002199
0.121521166711033
0.12268469356828
0.118720135635188
0.12195131116482
0.121981845089344
0.11866259463864
0.120360233967025
0.120572132792372
0.120870802774001
0.122453603718815
0.118726044282393
0.119220307405576
0.118528775887654
0.117153452126652
0.120780358726953
0.119323662856237
0.121031519560254
0.119201191087155
0.120127618636561
0.117460185114026
0.119116315112441
0.119609599943541
0.11751308991216
0.119888194868825
0.117857169094092
0.116902157603324
0.117660913292389
0.115642178172765
0.113197082760023
0.114542755429411
0.116400138046345
0.116873495589508
0.115849786450341
0.11415386393549
0.115248170847711
0.115425192185031
0.113421734885335
0.113741662791344
0.112545429821792
0.113736059906477
0.112576006787483
0.114983858972793
0.111777648129822
0.122240157230281
0.114036314475311
0.115484011063488
0.11066871191263
0.111184363987467
0.112719512187729
0.112223886446828
0.111522962366636
0.113464674133572
0.109933425151935
0.112230515346734
0.10913544284174
0.109974658636442
0.109985426261119
0.109985470363901
0.108075311587022
0.111743106373026
0.109724078236143
0.113010987905128
0.108816456250295
0.105973119023331
0.114021622976516
0.110182210395573
0.107665249632597
0.113990233885094
0.1078595563269
0.117498966437296
0.117045188307051
0.104019612242796
0.113270660216151
0.104897487030597
0.113085608583135
0.106555760281751
0.115318805341973
0.102479519330977
0.115205593488566
0.102839884835815
0.112177804809039
0.108586516679677
0.110331583589471
0.10885176748114
0.108426814158826
0.109808072659768
0.107357057418287
0.107340980267546
0.106916974358759
0.104403247081572
0.109397862378787
0.105977385000826
0.107738286739428
0.102729747434757
0.107289575333059
0.104534288386902
0.111166530122471
0.10519421581122
0.108835758914335
0.0992876002838235
0.118116922112605
0.107567938771361
0.11195970205103
0.106863171212
0.104678884832944
0.104600903999167
0.104501031680556
0.104966589628126
0.105933992638547
0.107583198114194
0.106823693578254
0.110136587847468
0.103008657934089
0.105303487726216
0.103378068916046
0.106854730403225
0.102805241869264
0.105685849654588
0.103732255804391
0.106641668316048
0.106987606561361
0.104838900362787
0.116980514886471
0.106452450041343
0.112468291774193
0.103199220769985
0.112205906908975
0.0996173726113431
0.105106898496939
0.102816948736535
0.107466688529011
0.103832828957486
0.110003538462017
0.104374394190269
0.103731488605472
0.103514295479002
0.105921148975413
0.102241032028939
0.109529545364132
0.103368513931387
0.107440407724995
0.100547718190897
0.105574265713986
0.102738418734117
0.106744176809388
0.112257581564568
0.104718825120601
0.108817242605437
0.102175640763826
0.138209262748692
0.0929392167426337
0.11072892672945
0.100918790965493
0.108615911269696
0.104227865720405
0.105530045365437
0.10789201533139
0.104996057405546
0.105272599340837
0.111110176196098
0.106727418921992
0.108018093579762
0.106463053851252
0.104644516122719
0.113443088636979
0.1093672428849
0.103889228134954
0.107675557165749
0.0997592736337929
0.117778763487669
0.10855189534631
0.107536537414484
0.115308303825944
0.103957035197144
0.108815535279022
0.105107695661296
0.108883600852986
0.104282841486865
0.113837990817749
0.105693773035431
0.112909039348138
0.105648041316825
0.107113142772486
0.112458655157288
0.107323663415226
0.114512111552993
0.111465195087902
0.108003328154012
0.1151838197704
0.104458973227522
0.109875786926431
0.111799485445406
0.110410832835407
0.108197733867413
0.11557848537336
0.112253689343674
0.113529676884225
0.119195701652175
0.112235635016076
0.108762626122576
0.117074432749173
0.11372734489649
0.121411042140645
0.104251645926701
0.143456775365252
0.109997559011804
0.121520836887322
0.115616574834615
0.111393054004528
0.117509291133131
0.113293126450319
0.119943777469989
0.111490602788031
0.127400470938283
0.10415179117839
0.129693691196328
0.105732341215087
0.136906160107807
0.115766666164542
0.125557213009776
0.116005695128293
0.119864832414747
0.115127382832562
0.129367642845024
0.113961659853769
0.124608121142712
0.140122849609144
0.118681418335028
0.130914968691377
0.116118723825317
0.133466625251056
0.145740855916014
0.116815146103198
0.135464488524363
0.11651394243789
0.134375885057542
0.118702227623775
0.137299566036644
0.137403478173992
0.124922668213461
0.135045590565344
0.130766461805417
0.127205712078957
0.148167475109991
0.12763139687855
0.134660027429933
0.12952290325103
0.139296180565973
0.129606012363716
0.17849719699176
0.119475388130635
0.165641142430981
0.136977230054704
0.154635003437475
0.146939184167285
0.150367914265862
0.148991358050602
0.160855419926007
0.153588788992517
0.149729360022136
0.144984577946844
0.180991976385929
0.160412864226596
0.151313088073689
0.164983756023129
0.154308894633515
0.167341087764667
0.182145827228071
0.177464546299564
0.173506562660212
0.170316564109897
0.168220875797161
0.187196914538757
0.166637837858816
0.178995562411193
0.175499345954576
0.181642017627443
0.177711967819177
0.181036897298726
0.192595624754283
0.176275927142731
0.191878552620611
0.183747901077047
0.195603887800908
0.198808779909994
0.216770171562069
0.206641806676856
0.191782931275727
0.229634280055605
0.202728717971635
0.216591271301259
0.202780278564352
0.213237543266616
0.221944281758159
0.217689854197629
0.218694132724068
0.21733285693224
0.245897532803604
0.224068009539845
0.242562437513711
0.24689458718913
0.239276923034473
0.25835308728553
0.239373644276969
0.389505080427779
0.230831327071471
0.289630687934352
0.260955413723729
0.314388789284431
0.306647122827745
0.304002235320645
0.311330412997298
0.323727512121246
0.322000063906025
0.343813904076878
0.351106683052596
0.360020873097198
0.369544178494336
0.378729309106988
0.37703591579443
0.420392351959426
0.40817724453391
0.430237525725972
0.420629280614569
0.429541098537782
0.450898110540823
0.468748188319518
0.456248173398642
0.48564005757832
0.475261687045951
0.48874292020411
0.539589305447834
0.515640317681912
0.539509340564544
0.534632594343039
0.574626814858298
0.540773232298778
0.623654668394508
0.596152322757042
0.605844887538471
0.607072245458088
0.614461199288331
0.638877636473818
0.636026397504427
0.696531774704606
0.664578719053914
0.680639996428432
0.686938147709767
0.709668265064959
0.70299325738526
0.726385800517434
0.72218492461329
0.734482958563885
0.777148667045616
0.815966484585814
0.896428082680466
0.782852013140999
0.746317497923948
0.769445996451581
0.763537055487723
0.815951392627533
0.753912570375309
0.831685370293048
0.809115434903212
0.797361051799728
0.795050753102175
0.799378669201778
0.799971715431986
0.793718567233136
0.804849888054011
0.778519700521201
0.847069167075645
0.816492586769082
0.810191528608585
0.890264169114477
0.786235721909327
0.812671676627185
0.796083235790453
0.807427253004247
0.791648970108453
0.804216539671222
0.812141913755625
0.832978655091162
0.775071258409555
0.784907877127374
0.749922500386429
0.812114768010971
0.759593560716253
0.738684886864808
0.733598576699554
0.72648016964007
0.714117975615599
0.688604843307604
0.724980561677023
0.732711074055258
0.653949213564218
0.681282820568916
0.665767025702518
0.674991728201622
0.650047058403917
0.65455141306666
0.65763284190365
0.644994696596807
0.630633731988568
0.646965394299183
0.607298743136844
0.615251864688387
0.607615621777506
0.621144299504842
0.607472061496547
0.612230931456228
0.605299829525468
0.606792841288277
0.607076792818505
0.617130298974027
0.599509542681883
0.603290193626561
0.59566407200537
0.608722610138583
0.582850099908891
0.600509511570315
0.588143776782485
0.605366439343641
0.59841998725555
0.593474127882965
0.582940025302816
0.592884644109029
0.592231309826072
0.601102263831957
0.602464618551419
0.591421366444656
0.591189168076374
0.595434528347451
0.586755686071117
0.58728163064278
0.599615420211534
0.582212293370646
0.629218112813163
0.605821383572278
0.580484941398127
0.592716754770504
0.574695086333537
0.598106328833067
0.560798879336419
0.64139091714154
0.59202687589861
0.581514636469149
0.58031821151844
0.579075288510243
0.579780167383123
0.58743652510964
0.561292299893866
0.586588681487028
0.554911911415277
0.612953112998735
0.615136167247842
0.59686396256765
0.643496794639294
0.57445187587348
0.562185076286203
0.562793435086284
0.610595598213813
0.549168836992507
0.581634817574226
0.561553765802255
0.584283988781632
0.579264351111704
0.557887999806026
0.578489714176737
0.554662772946756
0.559718159137375
0.580415728747108
0.548702009440285
0.569049952234457
0.589919622395166
0.549413361539247
0.596374534397437
0.573414646854617
0.561943847596803
0.526689443465782
0.537724767731231
0.531453185655407
0.524142864072133
0.569250340661065
0.512937098552708
0.5190244066371
0.518850059091633
0.494475975245425
0.508059316928092
0.495344604360576
0.514882561618197
0.471909703843065
0.535350286449467
0.47385803701178
0.498925443503417
0.493554729089068
0.499438773473394
0.487006407499608
0.473019419624555
0.462834061908388
0.479254515541619
0.503776329993364
0.470474474669053
0.468586019056494
0.456628729105146
0.440327633011431
0.459400048858001
0.433725653138325
0.436797654778519
0.438553162365415
0.437787761589807
0.453546835127241
0.445504567062148
0.434029366571293
0.408329797190412
0.405337432452994
0.412583145598486
0.400266883574432
0.413264501258617
0.391760491994618
0.40498594360101
0.413836776118925
0.390137445555247
0.432408916839092
0.39186200216208
0.398305813793408
0.397571429002916
0.393317934703851
0.405467029201203
0.419484790812554
0.420000775407556
0.41522987721307
0.397164333081046
0.426534553884905
0.408149242998125
0.425229938201494
0.410075719530801
0.431505627365499
0.430188021063186
0.440468943203045
0.441425178893276
0.451213023339674
0.454874687412611
0.465895296654619
0.459900478005528
0.508295937423963
0.472020956407499
0.511795357055618
0.50655818591045
0.537204781489493
0.52858031420991
0.526695710606891
0.546105776141074
0.547042483870461
0.555965890560873
0.565081909841877
0.554042265778001
0.602094511054992
0.571066889545345
0.586310743455828
0.587363210117584
0.60314355510719
0.600608388770812
0.624334940631446
0.629391817572575
0.629743556809329
0.661114824683369
0.624206384288094
0.639517637874553
0.619459326014773
0.642564689760209
0.640276795262605
0.639185188755603
0.646887347577926
0.648149173736984
0.663747628846935
0.653290209717463
0.654408950689296
0.658148111583281
0.656964437952712
0.670248657163159
0.667956008516486
0.672852398231121
0.685489857965742
0.679653289837451
0.691838669608082
0.670135818877539
0.732156413356157
0.708362953861065
0.689740818739459
0.71043563807511
0.705786692377427
0.712035102718385
0.701269016752314
0.719769172985491
0.724637739316423
0.727167857938286
0.733582484431887
0.73140219711228
0.755140681631551
0.746763065734713
0.774928952414596
0.765093188247512
0.760638114122227
0.761000214461594
0.760659577598792
0.850077899680683
0.762408431244112
0.812941851471486
0.778943950460823
0.776250283250716
0.770902923835505
0.781785644330406
0.795136736068323
0.791511198489488
0.793798342880467
0.806626001532377
0.800401743714318
0.804464427987916
0.808340288152615
0.802988797198524
0.820399930641426
0.798281841984829
0.785255805460713
0.813101508572463
0.812370336049307
0.792531056143128
0.79305731513617
0.838615262294803
0.814011356569882
0.804057566901151
0.800377358973525
0.82680253565005
0.815147936350566
0.812732602483098
0.801146227523388
0.809392625895995
0.806840863917489
0.81189082147281
0.791122952301573
0.827576373496849
0.811077916194209
0.819377760779847
0.820951968432329
0.828430719137614
0.830126425257173
0.829344641986591
0.827783181319704
0.845720624296183
0.835160427049409
0.846766364882291
0.842093362753005
0.842503007744392
0.86369900475262
0.864117754954164
0.855870018322048
0.847714966962246
0.843558029824756
0.842255205369899
0.83869129746818
0.857605401265746
0.844260747445189
0.84020221329485
0.818893679815128
0.812985816384924
0.806355846246705
0.828606775566738
0.805831891773949
0.807632245055742
0.804985610438987
0.78307616844723
0.796273135221795
0.7915920445956
0.779205371848526
0.769310265084037
0.775948274361515
0.765693293641592
0.757258088417966
0.762430661340056
0.756629913731283
0.753663774187658
0.759138477850584
0.760232570235895
0.75841427666271
0.750047027943934
0.758572914301537
0.75188417544888
0.747727734443546
0.752543269369841
0.752412163961747
0.762938833769145
0.759276004762611
0.760351143360692
0.771319899872008
0.744868812902736
0.748116634788965
0.747321112763548
0.759204341393754
0.75808214546835
0.750237276187569
0.744029218324383
0.750005893457248
0.749013636007701
0.744364323819376
0.748756304429345
0.746788821932506
0.740202336404823
0.743315196438509
0.745602252048363
0.748980827523791
0.746291004919637
0.740173237985267
0.732816969108799
0.73533662629566
0.744412706200976
0.734892468460835
0.754071706197667
0.754906462893526
0.756429979642144
0.755612401476897
0.754000219879946
0.746850806714696
0.747763096917255
0.744807517526329
0.748439115693299
0.752244070983836
0.751696183643909
0.750561881575993
0.750379193619161
0.740407964296891
0.734819376137244
0.727752644127658
0.729470745529299
0.727695582740316
0.719106417907672
0.717134838426045
0.714416388093194
0.709040351392779
0.705040382887379
0.699929259428509
0.700840721126844
0.696272040945328
0.694377707797006
0.676538263929522
0.671403484181138
0.673892021660506
0.67426411386737
0.672047032638008
0.672342775814436
0.663994711192333
0.65890351897542
0.656151030498536
0.662463588465674
0.656345545626699
0.658578932781565
0.659137777552272
0.654851737354942
0.651140741649
0.653178951289106
0.651728653315652
0.659159292529304
0.660977108187272
0.65742029777983
0.659781036007377
0.66745835552283
0.667882712546446
0.673324455008593
0.676320172882889
0.669862407349842
0.676419722705926
0.681464893495605
0.686509226312329
0.691479242272361
0.687060254564154
0.689315235431598
0.693891311212641
0.691829086365401
0.693061168429299
0.692727379058705
0.702004926252205
0.697006347360259
0.693566098812706
0.695125152165541
0.695127055902151
0.697235035023008
0.700870818609741
0.696467263797876
0.685813590788246
0.689049791082857
0.693881403115314
0.68341647473748
0.682336379162294
0.681077838333629
0.682258963557504
0.687563936953359
0.681788484685549
0.67321765700159
0.678023504967681
0.674856258299773
0.66369629713281
0.669445504830418
0.667730736069223
0.663169313489132
0.663520820514119
0.661567564133052
0.658094632114515
0.659080421419303
0.652342724562836
0.655018596645936
0.656211192561642
0.651567577716126
0.651815079908185
0.647266604863556
0.644583966609744
0.649583499451755
0.650427244257277
0.640995707152904
0.638351030908138
0.636945325575132
0.633625294927067
0.633202837213753
0.632054690302637
0.627048488847742
0.617937451254789
0.614761934414578
0.612017468395841
0.611895889890995
0.60230360121395
0.595681101895526
0.592679923891858
0.586929133083492
0.581276124757806
0.580856157809418
0.573481409149201
0.573166070356794
0.570436073557273
0.569954147196068
0.562976078215728
0.567080976213002
0.565605143476251
0.563045884272197
0.558514543605121
0.556993932813904
0.550954036641028
0.54740426629138
0.543232221410087
0.541346258616828
0.532851433763083
0.527210334803563
0.526074656447334
0.521258475224458
0.512859142785584
0.505306005658178
0.502222786232074
0.495839438833213
0.493506718344314
0.495465214498685
0.494958438471041
0.494133625550145
0.498726211566594
0.504038538331762
0.511550779687081
0.521300056880361
0.532594307977736
0.5414551736749
0.557538022928349
0.581174482764612
0.592947763031805
0.614012823031938
0.631983880287036
0.654762569061457
0.677069455588467
0.69649110446845
0.714662004020962
0.731475956837456
0.752547203793172
0.770965482816143
0.785536612629885
0.816469450448173
0.825718055189458
0.850700571415645
0.876202269377298
0.878646008443161
0.896619635458496
0.913788455461594
0.933478001529203
0.938382842039362
0.948975263832566
0.961702314834188
0.980093536544558
0.979430228310427
0.983876057682676
0.998591007124198
0.995306457983366
1.01278716411337
1.01850034508987
1.02944003520488
1.02436359674736
1.01631340117697
1.02683887212762
1.01949515820631
1.02409360705082
1.02115750330941
1.02677278641564
1.01977261508179
1.03740950475197
1.02266296886462
1.02699454379692
1.03174256399665
1.0491027624064
1.04754253638778
1.05894683109076
1.07100302666334
1.07592245876738
1.09128157318182
1.08452558735276
1.10278052058419
1.09985164059354
1.10907793826957
1.12406018541281
1.12984521356996
1.13667104252663
1.17272950045289
1.18226879663403
1.21794901451662
1.23192185325572
1.22732971730789
1.25736187757861
1.27206998405102
1.26595891399671
1.26557465956327
1.27803468510751
1.31153881999793
1.26962763833864
1.30970254898849
1.26327115614911
1.27580360936634
1.28913029348815
1.2898614619815
1.23906778096301
1.26838262817212
1.26363250426957
1.26745151669752
1.25051430476904
1.27487113996885
1.26553949919587
1.28219820158983
1.30219062097822
1.28451873105343
1.32812556861883
1.34038972163237
1.33616678721537
1.4162401578632
1.42578233515456
1.46142804411315
1.44093618501095
1.47443421549896
1.52459163527683
1.54236270166577
1.50675267217904
1.50014822263947
1.56158860552227
1.58232011175337
1.54992376430283
1.65659400692913
1.67259839615347
1.65259772373726
1.68794327574161
1.74956541438138
1.71451463785343
1.85621673196714
1.77125024082219
1.84179679530812
2.03032955431375
1.8769872196204
1.85470785885107
2.00042277420194
1.86779098976512
2.13718709066123
1.97160144435762
2.20706608616178
1.85176072730073
2.0281965768302
2.0017754587803
2.03640837869313
2.05705618676194
2.64829562236364
1.97286822670845
2.22537660518146
1.95407098027319
2.32000079660849
1.9861179750432
1.99619013437244
2.01786094343023
2.15768975639982
2.09341513179045
2.16043063135022
2.16104269405566
1.95552928235118
1.87680251338833
2.2222837487829
1.94906823674314
2.07599364125649
2.20391979600502
2.0547151312595
2.26005079444181
2.32076183868961
2.19893406702921
2.45703858204995
2.18953668055677
2.35438977473228
2.70710864964034
2.15097017808424
1.99477365501971
2.43722422620877
2.19804811932076
2.28062988042174
2.06807339406151
2.49921696937485
2.34529136083831
2.26592585477704
2.13792923935808
2.43762694196404
2.10108534605452
2.68703647657831
1.99700548799668
2.06563902678825
2.32949337794474
5
2.37085677402744
2.70699286962084
2.54463272967496
2.42663967877902
2.13455567831964
2.40868882478526
5
5
2.19396884050654
5
2.17138840861329
2.09639439660749
2.115147001367
2.14774050649241
2.26596354951
2.04196417175411
2.0311201342722
2.55366569219503
2.14728623612231
1.97784349528543
2.0521643429432
2.07530697076852
1.76731562438458
2.00698586130482
1.85552857106445
1.91912737005931
2.0686691652083
1.88317750199582
1.72734142899494
1.85266248021611
1.81324962670249
1.96036953789484
1.69620061072898
1.90092767347733
1.71870661661005
1.84246992640886
1.70950484539863
1.88656951706361
1.88233771259322
1.7059102359896
1.55543621137565
1.66480948563686
1.60820274020538
1.62565786823016
1.62904715336418
1.54038663507452
1.56108967166929
1.5760628646846
1.50166954892278
1.50677241276089
1.44974243509146
1.49383818316379
1.34534796994943
1.3865363647682
1.31878188262228
1.30600317653598
1.21425693664714
1.21753029364179
1.16699088668248
1.16667617078485
1.09656715077221
1.09530029701823
1.03057044458117
1.02714321182146
0.959020887442187
0.978525654970826
0.918472105434958
0.916857613762697
0.885748276647889
0.876497614167974
0.855762867856567
0.877391431459314
0.842567291532225
0.825649400107836
0.813110805025213
0.818984442420877
0.808096014918823
0.825392239842663
0.806194645468763
0.820316165832889
0.805347534654943
0.809614197824573
0.819223635661787
0.822240539277208
0.806158333635734
0.796431918439258
0.814121682488619
0.795336087121391
0.77912769518551
0.796087263364638
0.789078005014198
0.781468346860449
0.756617904637834
0.770281563955405
0.746786495688892
0.743325183723188
0.723743712398898
0.746443198629201
0.731233228851695
0.743852553447144
0.728695610677061
0.744456221451885
0.737618921476044
0.743729666416343
0.737057596665767
0.751980883241329
0.74425545137317
0.743532207938617
0.755750659107996
0.762882475410942
0.753780410847633
0.787567686596185
0.767635293745646
0.776132788357548
0.773140522286926
0.791010991982827
0.773004080266473
0.798481235269742
0.778656071465756
0.798817682230438
0.78129010937365
0.784867886306233
0.772344823809402
0.788222955822394
0.763113792982744
0.819511512126362
0.78625386967275
0.82002023222602
0.803743954415683
0.792595521634726
0.812684049530371
0.828169494908507
0.837289747262082
0.876520731422794
0.86772273474015
0.906626159508695
0.918760920540598
0.94881458897621
0.939436868060627
0.960055752852072
0.977530120512614
0.996083171239528
1.00349428349432
1.01954079067491
1.01108595107319
1.01317146231782
0.979581785591061
0.987627896013369
0.97171637873499
0.957707530699468
0.929557824491356
0.957988412232297
0.931760656711005
0.969236951760246
0.918422124039108
0.925320624681638
0.929033484128159
0.9695729722048
0.908933954576576
0.958104399594185
0.929101432824835
0.961638522957906
0.909354314134894
0.927920784228912
0.912641092051167
0.922280120947091
0.932559532765519
0.91717847713691
0.887175337423139
0.907991648661983
0.88277220476323
0.871043125126318
0.843625622299345
0.88380064183703
0.839273704094174
0.884590544217372
0.84315662747236
0.875374363070874
0.839393123404954
0.870176124348809
0.854500923969675
0.852021174048811
0.845148838339667
0.89591882214236
0.836498061573208
0.832548465660687
0.816104135374571
0.849294053055801
0.813791369922525
0.82964572668496
0.805567731467563
0.845563497523437
0.789028165686929
0.814423102638512
0.81525417118465
0.806153156423756
0.813942509848074
0.788418374871057
0.769882903107404
0.779109329470405
0.783459459916055
0.807225392328466
0.790818269924592
0.816937836750656
0.788397794623271
0.797307864690147
0.751023171586821
0.790813801684802
0.759898116564666
0.821314934502741
0.76977581254649
0.783444053799217
0.750049867469601
0.770610391026094
0.783663718182172
0.828397272740564
0.835072856899608
0.785644727011299
0.794377336227772
0.806434418803829
0.817586092723761
0.803894610268555
0.8045892606782
0.808467125157525
0.740127221989507
0.882619345530474
0.790585747220994
0.811115674531648
0.791210570867421
0.827260437103052
0.794239363841736
0.816207593696344
0.845123434641971
0.890931970311461
0.829209282548374
0.891037930593707
0.841569923736338
0.841949841740657
0.878160207180957
0.900507132659722
0.857344188042636
0.919144119272611
0.852389727464764
0.908848934728091
0.892201359231821
0.934815758781681
0.923412556210106
0.987854033381029
0.999534367007238
1.09122022648007
1.01273839587174
1.20730071973958
1.0424246172009
1.16057627273918
1.10632181531133
1.18755603804285
1.17833553012539
1.36581274728596
1.11469590559396
1.31280789671911
1.19148234938675
1.29930363526246
1.16411135696152
1.21865296187851
1.08640620205102
1.30559573497697
1.12979316382038
1.37603653164476
1.34032492955475
1.21215557970426
1.28441263261274
1.19513092530733
1.12161448213393
1.2404802413852
1.17256407418637
1.32324158949264
1.14087032185329
1.37019829799819
1.16663682641275
1.28127263399556
1.07583712326658
1.44231672218337
1.17382358330899
1.22508246336108
1.04894869064414
1.1016729489392
1.05212131191806
1.29802298499456
1.06203117976062
1.31756366646978
1.15005473034407
1.22042345837712
1.07010998078444
1.14309015068981
1.04940581519292
1.17938235260933
1.1266876324961
1.1750005762112
1.06657747984866
1.15059531841697
1.16033581467792
1.31013036219129
1.08943848011194
1.24906238022914
0.995848881344745
1.13502063210258
1.10253911781362
1.36454907169983
1.04206641040518
1.60358455130487
1.11400401678145
1.69560859260865
1.15691569283718
1.32166890589177
1.16349708667703
1.09246968719002
1.1881644240188
1.27642885645509
1.07305250107918
1.13595905426148
0.996404001476224
1.1667917447324
1.20445427621886
1.39248551141282
1.38023558023934
1.25345348340283
1.13672222942906
1.4362744761527
1.24973172086018
1.3354749279544
1.18959564687499
2.63553533304632
1.24077155850167
1.79820970602751
1.41627898352508
2.159382626669
1.01023877119334
1.47864657496196
1.3873023945419
1.81226367945084
1.19036347528858
1.64829419444783
2.06940063126985
5
1.43662719516549
5
1.03353569965654
1.25381824857081
1.45187404807509
5
1.09043877770637
2.45500110963945
1.71873062923693
1.43066086047446
1.04958498853247
5
1.20483615045333
5
1.65071208510918
2.05549601812038
0.94496336476562
1.40661754929644
0.919789606901937
1.33065762293424
1.45927220063462
2.18018379744793
1.6787303303422
1.07211069488507
0.802834170369668
5
1.28254284149682
5
1.36511423182932
5
1.30263371970442
5
1.32154934829395
1.10254623829865
1.5614239323481
1.85100109990848
0.8900952087787
5
0.998488459467566
5
5
5
0.779220169805229
5
5
1.82494580388817
1.10984209249109
5
0.846728965889847
0.484163081081323
0.933648526883147
5
5
5
0.605236070312125
1.04982024447758
0.6278900066373
1.96665370097478
1.31081980854881
