3596
4000.36533379555
650.420452594757
1
2
2
0.0417578324068593
0.0447954521710171
0.042562052549696
0.0397891313025946
0.0374818160621684
0.037902535480029
0.0442666677693047
0.0413744508181444
0.0424033393661933
0.0397147947884675
0.043445522099525
0.0378684356923423
0.0369852579065074
0.0357786632369415
0.0382354125993614
0.0414963264850017
0.0408451136792112
0.040495159883618
0.0451036287365223
0.0406742340161773
0.0454999688384083
0.0453204351583772
0.0439654801394868
0.0465738545823031
0.0472213980302077
0.0387146113880059
0.0414861806427972
0.0461757005046496
0.0417839183953672
0.0478365010024676
0.0418832097457695
0.0411537771981816
0.0476770611987962
0.0383237781325912
0.035945182900387
0.0442246436493146
0.0456866280507296
0.0401154614340862
0.0346462681630264
0.0351091771217479
0.0385555179032465
0.0491159534480326
0.0430559160587266
0.0438970618937759
0.0369076230665802
0.0344711804427885
0.0344400522581975
0.0434362988283856
0.035944407966473
0.0366545640330847
0.0406581115321226
0.0440598883182318
0.0503241633387211
0.0448601440472936
0.0432942143389863
0.0316881967444829
0.0425875953490362
0.0446989886687814
0.0456822074462396
0.0501289073252765
0.0472353538784143
0.0391023312559638
0.0466985649559599
0.026917053361224
0.0517234358625175
0.0399787309537674
0.050021823016233
0.0351914332129879
0.0563440154605845
0.0403878856473927
0.0471130260070516
0.060476176013545
0.0350639412619472
0.0462135338409808
0.0465519473078187
0.0351842107587844
0.0406921850179184
0.0320711075433056
0.0436376252908821
0.0364475477369253
0.0378896034585805
0.0399015383889963
0.0365218251766971
0.045700626383197
0.0526208862337854
0.0260573993362731
0.0393145814956137
0.0318979620635252
0.03629245034262
0.0365315584936939
0.0438476175707748
0.0391005532936721
0.0404643460758857
0.0323533824493393
0.0421351016523114
0.0373122317500157
0.0472289711991188
0.0367867413473935
0.0298448078887482
0.0495630308874506
0.0311974611448461
0.0651680197851597
-0.00477165908382577
0.0591213939470931
0.0444343678296194
0.028146310703088
0.0786351952756197
0.0128189180788922
0.0458471342847448
0.0373353851184905
0.0430745875741083
0.0298259832054995
0.05035292494485
0.036231024441912
0.0553931250392919
0.0452061580375214
0.0296598722504043
0.0399337140726977
0.0297640744088464
0.0314891929767235
0.0394030695744514
0.0558995033861505
0.0132784244014359
0.0452602428842938
0.0365579850787748
0.037673460638652
0.0434484971161032
0.0396925953623598
0.0176811154076221
0.0344593850675191
0.0286270171060197
0.0440105370284575
0.025318835292855
0.0571161236876275
0.0204466838750184
0.0333395585489683
0.0310239810123521
0.0438885313033039
0.0729018796547923
0.0204515717236468
0.0406476907038193
0.0338432236095543
0.0398187961129877
0.0378215722122108
0.0264098715044975
0.0321001853306615
0.0336102685129731
0.0353263398256545
0.0248450241384939
0.0433942884620086
0.0294308130140182
0.0383036898247076
0.0372310611105642
0.0293690324460111
0.0527597711216487
0.0812857290149257
-0.00290313577300709
0.091766052908679
0.00284036961445741
0.0338754614146435
0.0404711970138036
0.0275624987680132
0.0363083171749094
0.0332937570873926
0.0336610502699553
0.0257670997011199
0.0501803290392649
0.0185190313570152
0.0382786787260582
0.0455646306856977
0.0381315538340632
0.0291347577514491
0.0647187715222751
0.0303498800842123
0.0253158056949212
0.0573947894395795
0.0252150539677695
0.0373391027973547
0.0273530497868744
0.0476080975970445
0.0259195351864637
0.0364536776347102
0.0404400892950888
0.035179605646152
0.0449629047076413
0.0324280942822793
0.0408863920912487
0.0416568063045107
0.0291184987458603
0.0493642572706071
0.0602245739137768
0.045795698577777
0.0279009229063946
0.0448685654954541
0.0321362585991902
0.0407311193069563
0.0573067025605347
0.016659371148519
0.0393505456707328
0.0287437762191857
0.0451678242990141
0.0323647787162271
0.0268160477528218
0.0353880974169948
0.0319174356028087
0.0518711856318744
0.040064470131687
0.0212237993153199
0.044668054635557
0.0320460017634469
0.0511452331075383
0.0570445001195793
0.0726846683753315
0.0161453716963245
0.0474891136593056
0.0357587163668898
0.0514883876565294
0.0317013640998361
0.0388673674078972
0.029961785693868
0.0395333401584323
0.0339296750577989
0.0476625616239312
0.0428763398347314
0.0299740588356221
0.0317294046914523
0.0419017084495879
0.0337788093492023
0.0424969888578058
0.0397785462980458
0.0481973382692097
0.0256112408809799
0.0440792612929245
0.0303813040229889
0.0442275618992582
0.0460773472292718
0.0283579503728977
0.0334288228096447
0.0367192277333501
0.0391771199242378
0.0385494711571263
0.0352742203779071
0.0358428086892688
0.0382051634516062
0.0355460282778487
0.0527075802669059
0.0451947297841833
0.0305738795569349
0.0440144736642828
0.0371630425248721
0.0731261953756463
0.0158843616114982
0.0563670020176548
0.0299924985967179
0.0544989367957697
0.0323176532098328
0.0746297824297849
0.0315977294592595
0.0521554502728718
0.0452455454503981
0.0675543931905954
0.0187665900710766
0.0609174597911367
0.0337816277310143
0.0703829491576286
0.0268477222213209
0.0190368972283252
0.0566033889323553
0.0462312817229622
0.0160043169349681
0.065128574183355
0.036721625689359
0.0950003313326413
0.0420105143026919
0.0239372659981323
0.0288036328067457
0.0637798309380953
0.0322840212460892
0.0490337656803519
0.0530007509228852
0.0452816661200333
0.0732637937454305
0.0383798338760666
0.0613186250237444
0.0537209082075805
0.0323469079761738
0.0774413853588586
0.0134964678900082
0.0638898819224431
0.0378786904039557
0.058689102290117
0.0376799557095873
0.0692334568381147
0.0327197027813687
0.0639079032511366
0.0324491533127746
0.0703365403275508
0.0463448042029823
0.0502148777601774
0.0385098534296187
0.0526355945504443
0.0306356432313009
0.0582284003888333
0.043426295477031
0.0556878129835729
0.0542810127446102
0.0565325722550094
0.0731399111269014
0.0618610114862618
0.0342160976590997
0.0704103247887901
0.044969182323335
0.0571805746624268
0.0497168283582268
0.0538627595615404
0.0516457244667158
0.0569005606818508
0.0432861211029387
0.0590627174473047
0.0669400365959347
0.0494232879089699
0.0537746709693544
0.05178051761611
0.0551675103164999
0.058105842811192
0.0600620810584846
0.0599754056454761
0.0552028869609893
0.0556213574359049
0.0609685336281223
0.0983449917768125
0.0584899759413203
0.06582262619216
0.0989732889810183
0.0526622882423529
0.0548273245137223
0.0664105456074174
0.065711544066417
0.0703082390016435
0.066353256988758
0.0816082338669321
0.0732833662304183
0.0868557959475739
0.0814787546746792
0.0788722935230914
0.0695380250140429
0.113453099822564
0.105283170543741
0.0831581883276884
0.0638116092241513
0.0892487601018634
0.0827413860023214
0.143790327642033
0.062563432144725
0.105558537686878
0.0618561754910546
0.0958222830977554
0.0854161996603219
0.0990747367840108
0.0928303355218566
0.103879649009761
0.0975661674655223
0.102146506808199
0.108819150735612
0.10832113086987
0.10548724099322
0.114918519286736
0.133835251355455
0.121677354726777
0.101613300156279
0.122383046058787
0.122809856567598
0.139966137219121
0.155187441453281
0.125411279213302
0.168703627745728
0.12469114429576
0.14887448331643
0.136088465031821
0.117292955156244
0.150161186535831
0.135856873958395
0.159909654252381
0.153116801676836
0.156917189366391
0.162836546361062
0.167063910583317
0.162223247670893
0.166955374715054
0.150876301800679
0.183300451098207
0.162709847118659
0.191764674594727
0.168504973884142
0.199188044643968
0.179485349234617
0.247787601745128
0.18660072189044
0.201948629983781
0.165481546805988
0.203207914969172
0.190451415306492
0.224321503777709
0.199066000660226
0.234332551686562
0.217503119403374
0.245553107277386
0.236949461235253
0.243782531798687
0.22525527970098
0.239383390543427
0.217050775475261
0.259645353123068
0.224938018074358
0.28345646969121
0.244993119427755
0.26142643314986
0.262440129632274
0.295496723209544
0.250477479912755
0.29694490373549
0.267133414212381
0.28339166459968
0.273696900381866
0.296248200836937
0.281597983166934
0.315014139269774
0.296655717345222
0.315606276924745
0.270695810656996
0.329806374961221
0.303105098700472
0.36359853487429
0.327900637074916
0.332481944959614
0.307976554534002
0.354122562237083
0.319761977189541
0.355993441541171
0.331668498848694
0.391196372902331
0.335282599448781
0.365523468370296
0.320471282564209
0.358488160170137
0.338452546232453
0.395126402739429
0.374669183898706
0.397970075512469
0.383467578802139
0.416705135326949
0.402602618596251
0.42345959807072
0.401177644468005
0.4267379747978
0.392842268334018
0.440849976910651
0.414223911797793
0.46468279631426
0.405993694084927
0.459027054073916
0.431801478964626
0.523811160277877
0.442414595515944
0.523605134973174
0.452209901440386
0.467713343320203
0.464120901544781
0.470642676257309
0.446195411010234
0.512298740323634
0.484808621301843
0.52206814232268
0.485946654056825
0.523522796039432
0.501752188285214
0.558231607704475
0.521906593539985
0.569896288020636
0.500073889796258
0.585078807407383
0.504744216625314
0.564959890908794
0.544705638826217
0.584144161044068
0.552594661855869
0.620238543739652
0.56170210577196
0.642259058225008
0.590118106561402
0.648263551068366
0.594428372899632
0.65848196004576
0.591913353329253
0.64665373609006
0.606993572662126
0.633024808829553
0.58639904761299
0.659186358545871
0.622897483698009
0.642738320923463
0.633311980884469
0.684096579258025
0.652544858802425
0.700621624526272
0.647458073087774
0.718966677852943
0.655167203707595
0.750482628092696
0.667039037453188
0.714087292591659
0.696219123806032
0.716659997745941
0.699435774531874
0.781160973348463
0.743752342864227
0.77403743089906
0.754467998052018
0.807483907615086
0.705455736093409
0.804075673336182
0.738193832300882
0.823285237880826
0.725619111101437
0.793135654294176
0.734238627350452
0.887572488310288
0.767088018817257
0.888997458614965
0.767555936447404
0.846710310237938
0.779169317341068
0.860843703502582
0.784666436904196
0.875854163119342
0.815803233416748
0.861713716292424
0.784351806548221
0.898018556569756
0.805013786084766
0.954114931260552
0.868926385299764
0.911756247195569
0.837825910578161
0.934766785055487
0.859340073920364
1.0071917657792
0.925269944474286
1.00379202462609
0.838657727992139
0.995346083676571
0.875751320507752
0.999996126309278
0.892017966900329
1.05184002905469
0.901192046180365
1.01908440640491
0.965259517690554
1.03320818246744
1.00947290788589
1.08817044276769
1.00281181656308
0.975437231343915
1.00724258258745
1.11995905650361
0.987734962973705
1.0809841247567
0.906033549537456
1.05932680198698
0.989785357619956
1.09815063261842
1.00912849696741
1.14239373063682
1.0850044559338
1.17347147531986
1.04682490485345
1.10277765471508
1.01891643263966
1.05801815848797
1.07456859303113
1.19005313154923
1.11117371483533
1.19707778446974
1.07533917666215
1.20167106956909
1.17554974754397
1.21815768201601
1.13366348753287
1.30085233158575
1.00348251506143
1.29924125962598
1.12258473461467
1.25548291815542
1.11906712769208
1.25095676520599
1.18733481901062
1.39564745731473
1.20756237359038
1.33476573677683
1.12943115944879
1.32946531701919
1.13552634143779
1.21929566871101
1.26129259052635
1.29785364922607
1.24511624485922
1.42669204280444
1.50383336968057
1.36016605306073
1.07855640800121
1.24855303214732
1.19259761014798
1.28871514893829
1.29348750658291
1.46658726212272
1.15205777939138
1.47400646400458
1.40489752704085
1.34107044836343
1.26221422348171
1.4603674588721
1.19322247460034
1.38588101206951
1.14765925818376
1.56145549814378
1.30679170674627
1.49795098108277
1.18331217394982
1.41909219363971
1.37433304043328
1.49604165574466
1.24347298748732
1.4483902070006
1.34278615741095
1.6594556400883
1.42259789201157
1.39321223011935
1.32423375311466
1.61079159034011
1.46901695470787
1.38462428565876
1.32204634294845
1.40853087018133
1.46895250887016
1.58337160015489
1.44260286142654
1.52172538649693
1.36102110492523
1.47771301655389
1.36150808870057
1.4305569567182
1.35471624359371
1.82059798658496
1.49711868973047
1.53878124207027
1.36626812490093
1.69221981760768
1.52790078820262
2.00645016467017
1.69332076647434
1.83574122257619
1.43017181834235
1.5827348784053
1.40573718848745
1.47255326789037
1.45325964054251
1.57672446728302
1.53900377889684
1.82511291119666
1.50013637286994
1.76032820575815
1.70913063046516
1.4758184101504
1.46127364689993
1.71822934868696
1.38450045738149
1.47540175078518
1.37237622969397
1.60245620450137
1.5923263638289
1.77448077266026
1.48939495089057
2.18047556626912
1.50033149166336
1.47617535230347
1.72345234214495
1.56198759638049
1.40922237610713
1.89688016436436
1.68380058726322
2.09600713858365
1.68567302709021
1.54275624113506
1.40515242941392
1.5800262797299
1.53342806496283
1.63262178623429
1.63306709018853
1.60044875985622
1.61905284192668
2.09074869913388
1.7610189166527
1.65321531366116
1.58524633653073
1.65738236006
1.89801913222602
1.52900860115964
1.4279272394655
1.63224694608721
1.63160810715365
1.89768375373989
1.50327526765656
1.78848762828023
1.82154525500759
1.65605449571817
1.72637107820049
1.87164287700007
1.70341365146313
1.65154010031751
1.58509234316497
1.61551016580325
1.56584009630802
1.65830349799776
1.85966142697559
1.76745889796584
1.52527213071302
1.86058574188737
1.52920455745492
1.61279970418819
1.74139353988756
1.72766083424643
1.80366233072615
1.97017896072023
1.68939873726675
1.89099654993364
1.61406381031448
1.6775273244099
1.67415507711314
1.52603980734521
1.51234575459058
1.46340411505497
1.54961626370002
1.88526050241788
1.55671754428268
1.59894486329231
1.61020235825493
1.77250093965343
1.67121258540184
1.63591664339574
1.61019811458166
1.73165848027755
1.78709008801072
1.86911680588495
1.81547135577015
1.72320002445473
1.65576371149721
1.78189682199785
1.73782343608873
1.64777168031465
1.71720044823877
1.68587968455497
1.68704751393875
2.2649062315798
1.59667616163388
1.61823706776482
1.65124625287846
1.65431774070083
1.63708382923326
1.76182315588596
1.67261160717608
1.55230311079244
1.52378600849009
1.63208431010275
1.69768294273493
1.70592833256097
1.6104038111926
1.60217439139458
1.67923791770698
1.52983490214933
1.54523862201789
1.88487953895478
2.0211430648791
1.62803072970295
1.5216640778598
1.69107451926006
1.77614893897873
1.64844903803085
1.59191228877849
2.24311550629573
1.90374359643583
1.54638359868901
1.62886361329395
1.84547385105841
1.66258314875099
1.57537325043995
1.50213919789653
1.69099335748999
1.76528082966237
1.74130613473837
1.77591364808468
1.63662196790085
1.62943051669896
1.56200998856053
1.71904809819859
1.75725354305481
1.60503564706778
1.71526591270201
1.57608757925486
1.65407212882904
1.61893724035523
1.61708977163939
1.62667688105859
1.56529319838787
1.49479922447363
1.59624795916239
1.57024896985139
1.52371449846401
1.54156371668662
1.61753217847369
1.70763711294123
1.47378431500171
1.58789455498069
1.6911817636846
1.54329417321898
1.52918107564793
1.49278793862438
1.514954628182
1.61892455013616
1.51956234792219
1.73830046428768
1.67227649009544
1.48612674680643
1.46310240032317
1.6170045918429
1.54245806519476
1.57797562163981
1.68017576493106
1.51375816085524
1.477491720148
1.40116520313627
1.45917701360569
1.49966516109076
1.44098709059125
1.51892077126313
1.47267721960824
1.46962036687692
1.50398867637762
1.4694331332502
1.50156823962521
1.63271519623538
1.43889310907892
1.3851912501579
1.41718770700473
1.38411145144106
1.42205461750562
1.48007862507652
1.50064595302629
1.48471547389122
1.48878985505137
1.39552216336184
1.36716064595248
1.40586074563677
1.37362292108024
1.42969555196884
1.37430851739656
1.53820318653566
1.45550883556667
1.4362523765208
1.43535331245347
1.35703546084394
1.37846310442061
1.40560649673183
1.36397701216492
1.41780038482464
1.34686984523489
1.40342970131216
1.34272959743993
1.27106189496838
1.35587796612337
1.42626730661297
1.36384198965651
1.36584769559123
1.24649725666891
1.35591388718194
1.39128542744256
1.28208488546882
1.26947760518603
1.35138785450626
1.37992160891711
1.27737259098914
1.27167139528562
1.19942031275052
1.25998179922928
1.34360474978252
1.2951701166774
1.30338400582422
1.21208611557839
1.24566414312351
1.21685288685661
1.2230086937924
1.29199202011558
1.21854195003459
1.19833842643739
1.22840267517067
1.19207498020519
1.22806103980091
1.18498910980325
1.22252444497908
1.1606815079712
1.21226692693192
1.2290343074684
1.1976614259609
1.11446812785559
1.17407325110262
1.18434509924728
1.14842881516603
1.12271006198878
1.06449111170467
1.064205063801
1.13424831311233
1.15340550087567
1.09786923068295
1.08701773440079
1.11555028126838
1.09842768975746
1.08554703298239
1.05676533628118
1.11493341098126
1.06570672482463
1.07998626820342
1.04658753853934
1.05264063572057
1.01658283617878
1.02445893650896
0.992196210310756
1.03870697820457
1.03293688990064
0.987018990945422
1.01155425723379
1.06229116288953
1.0187289270554
0.993761564530415
0.961803053307735
0.986134457919969
0.96719372572862
0.960662274049636
0.944193738830222
0.959185249647301
0.961584641104999
0.949133412029868
0.927770205652285
0.964853938837023
0.966947756953701
0.939468625775049
0.924710094050843
0.977368020557171
0.924012392618244
0.913105258596375
0.89946212171382
0.894053919863872
0.909061421912554
0.901568921755486
0.883039520286772
0.885053820756792
0.893662686173361
0.922162743655213
0.892001675155085
0.877803293994163
0.845008556355479
0.848609172849045
0.845545498038363
0.84907387541188
0.834857352002085
0.851701042551135
0.841023150400651
0.836515454176452
0.836870562382809
0.830080266323992
0.805477111471181
0.840846619774607
0.79976042290779
0.811275165499064
0.803582414659368
0.792680797671292
0.792018219964666
0.792956769439217
0.784180289758475
0.782431179781225
0.77077402489683
0.804873364445164
0.77218692688102
0.78666792941213
0.754920068372372
0.753644574163426
0.775960013354219
0.758185433355121
0.722163712690497
0.752698736034936
0.729122262415001
0.739090036566479
0.723179220898705
0.73211499951602
0.72018827668873
0.726621665275778
0.703557767730966
0.702129809166905
0.69771936864103
0.734393143350051
0.713439071247652
0.691061816633606
0.694052022613452
0.704131449261061
0.683824194325522
0.687243752212384
0.679421055266467
0.685899273991977
0.655060912550298
0.676308455543275
0.660171169936349
0.663597885175196
0.651982349740045
0.650764255868687
0.646023081730609
0.645396224044986
0.640189038742009
0.657301579229014
0.633033416660589
0.635326226986834
0.617268955832369
0.63805554226697
0.621939447064919
0.630933903876763
0.611714367440004
0.603793187770364
0.595268503519979
0.601057351311067
0.604293280512776
0.615252699478452
0.601227542532754
0.615570616238272
0.583399490848885
0.600339681849259
0.579584561033664
0.582201808220414
0.577270170203411
0.578387793437935
0.574029803895547
0.557759791302657
0.553170966527128
0.562536313039565
0.569024570110971
0.567372998882051
0.549574556264942
0.553279858560852
0.548108184203036
0.547486450391643
0.538315822998396
0.557494579507154
0.548188187310274
0.533982144431942
0.534149342484528
0.537146267756563
0.532209680593355
0.541833532936489
0.538948767008187
0.537105148984319
0.512220347384152
0.521579057304955
0.522384129853907
0.531820930832844
0.515264969035728
0.519695581249302
0.508010812281427
0.53089078207204
0.511365631160121
0.517548394659156
0.507777975736528
0.513368358003395
0.508418060857359
0.506984571647344
0.511905871069691
0.498947878918432
0.50330206278179
0.52190756536873
0.500138498772356
0.506724236250868
0.498661210649446
0.521538537532523
0.502367801869243
0.516002444024383
0.501224076316132
0.50960692370931
0.513624885039785
0.516016246746077
0.517666738733676
0.521961381194476
0.512943855034504
0.528370080206057
0.517645541496302
0.53336516236817
0.526864749224599
0.527827096022439
0.521280531672698
0.543941857823348
0.52945864505619
0.535807048966333
0.522877233106036
0.546867989073848
0.538212056764274
0.541380779459497
0.540483743342585
0.558489939141111
0.552940667664441
0.550162005770098
0.549148585340838
0.556552516417796
0.546753457179072
0.570342566326754
0.559420468847067
0.587141152486503
0.564507111129466
0.572046102954892
0.578299521957576
0.589750322505403
0.591443191771086
0.597116910018169
0.570340366197325
0.593146894166119
0.587843422781202
0.61403475687668
0.595757649483855
0.62831606290403
0.616889702786071
0.622390373601055
0.626721535988899
0.644312845377156
0.625749283512902
0.648076862972868
0.63868164913991
0.641480608234811
0.632683458088393
0.670726416443819
0.652406125002685
0.675208746090328
0.652215980453937
0.667916688944829
0.676308174209827
0.668633819523652
0.666625922680411
0.673302944541025
0.672418319247513
0.677303717300982
0.673344531865247
0.670035508220852
0.659593333871705
0.672527563030587
0.671840477698864
0.670570667246687
0.66517307250171
0.699829055888406
0.669524322842471
0.679088077588634
0.655028846106379
0.669808867825047
0.658961296313981
0.680444638113968
0.655132034478837
0.677280988328739
0.656165032227005
0.674336139402959
0.647192351350993
0.664847889761462
0.653955865431116
0.672468838525142
0.67734165675785
0.675711421829568
0.672696184356669
0.683870171912856
0.655733444021299
0.6536891146955
0.64834071677916
0.68316379598264
0.664627116362594
0.68368139131941
0.672838535710048
0.676748708452844
0.669135951253132
0.670263243269545
0.68563571159027
0.675228639202672
0.644290258182966
0.692820355574427
0.65919013885058
0.683031666497302
0.670085723180619
0.695036501974085
0.665720894694757
0.681848025291541
0.673425673012081
0.6887552414996
0.662851956720655
0.680228757564361
0.648413645363007
0.670799964485458
0.646811903915822
0.657570004240676
0.654635757112494
0.679353860381102
0.641464518285716
0.655797262369244
0.637123871751308
0.653829208899264
0.646153168898442
0.640189791842598
0.604117844545945
0.63212318361016
0.635170690856154
0.635650082637893
0.603474087522566
0.636544995975379
0.596392928548972
0.631729217476911
0.594284205489632
0.594238559747661
0.600813802643545
0.592991063403054
0.576382606454461
0.602407335088001
0.573969542472598
0.573642532058257
0.559413396515218
0.578093190782704
0.555695931789447
0.562934482674046
0.552571026401056
0.554667588389975
0.540225359087998
0.556108309694944
0.51476484526766
0.532444784776486
0.51613223180815
0.528330493472156
0.520231460400405
0.515768193743967
0.510183015934278
0.513753773845238
0.49698292465406
0.510807860490959
0.49017348862978
0.498012160917553
0.48139484521516
0.498659927480043
0.481857186730037
0.476141782128938
0.470655972471255
0.48521871483526
0.472407220367946
0.478233450500908
0.456220953764172
0.472802598780692
0.463123159028971
0.468865998583197
0.461182492570695
0.467560406949203
0.452946986945788
0.462115387100979
0.450141288253872
0.448775751885065
0.447201079988109
0.448018713452644
0.44983028391104
0.45212431778051
0.439005657533066
0.44762149456562
0.431379344222477
0.442246635183632
0.427102783058115
0.441653783835505
0.420440029831342
0.430980288296492
0.425899795173072
0.428507822315193
0.420835867446986
0.431433668443931
0.415354989701454
0.426186441141209
0.417812355906276
0.418771174509638
0.405092603301207
0.41654744733569
0.407003398048377
0.417051646067434
0.412759911388626
0.410634543727344
0.400934514771226
0.413433948059971
0.404063939701169
0.40468280745045
0.402677012026992
0.398743982441286
0.394415407603343
0.404694760998027
0.393428535646575
0.397790083510451
0.387901004201358
0.387370335570613
0.375130946972421
0.389657263790015
0.379274993942184
0.3825665304777
0.381156919761206
0.383133426650591
0.383570417506802
0.390564612595279
0.377378737826732
0.383918708231503
0.368936344847812
0.379961599250023
0.362034896284797
0.376311794628981
0.362588717119085
0.369994383835513
0.368051025837885
0.373719664061429
0.367242651379221
0.374431855280527
0.359391426200311
0.372717749940818
0.363435944148434
0.36598117279069
0.359176992415269
0.36431478378084
0.358859965851887
0.365476125757071
0.353600207801408
0.359342837857158
0.353832992408788
0.362371637922402
0.352571272605941
0.363502376623361
0.355507570522262
0.357139773606206
0.346184337535393
0.351354284802821
0.35257078864644
0.354858131557414
0.344269104770948
0.359126386742769
0.34453576611584
0.350140455267103
0.339143079839761
0.351009163292373
0.342430215804886
0.354037887797145
0.339604372729143
0.353436537310582
0.34175605793385
0.348600770686583
0.340409621434421
0.348401907688262
0.33826319981299
0.339907480000574
0.34041829133517
0.343270587731073
0.329323801108709
0.345937492080548
0.337885085339281
0.346078532524755
0.337142549897501
0.345077623990265
0.338176194889755
0.335982284103433
0.332195704033511
0.33478161605315
0.334906789119691
0.335321822008049
0.331501241802979
0.343773210056493
0.325433594081754
0.33015030607829
0.323106107435816
0.327768119424836
0.322911088614665
0.327240742611547
0.319884394127482
0.332507124164909
0.321391475562367
0.325888867790705
0.317999625701312
0.325154761299537
0.312755013896233
0.32371478346778
0.320848415016131
0.322997824632908
0.310747824962692
0.32394496708955
0.31953910233066
0.324541212888627
0.309858227637772
0.315530597123029
0.311729684476565
0.32108078462385
0.311351631948795
0.318421489986208
0.30879125537991
0.320694562911186
0.312052666647873
0.312396005187367
0.301717472558825
0.309338703242827
0.309351063837081
0.30506152055831
0.296141418127231
0.313466235169907
0.296959938401868
0.301542855995461
0.297075043891276
0.304443791703288
0.2949368115951
0.300357353849461
0.297136348299621
0.303717373736373
0.290347378747491
0.295519510732261
0.288664658502164
0.295784677650283
0.286797583871888
0.298212266031007
0.288613286361939
0.28928580812176
0.283507858852994
0.290516324146638
0.281007419072964
0.288971924925409
0.280850951015111
0.289472284127085
0.282705787199583
0.287156057909772
0.279247573815009
0.283978239914182
0.276832152128795
0.282127240956635
0.275780345154187
0.276313966701698
0.273527387490412
0.275230132693785
0.268727552308078
0.276988086215914
0.262848596562111
0.270645573456197
0.262967320806428
0.270579250414247
0.256930364740258
0.266048662452675
0.259032786381819
0.266509038600616
0.259581083144313
0.263284619768719
0.251793342924396
0.254999017489323
0.255143452696263
0.256204434317385
0.248645941552905
0.256834198264876
0.249070359439346
0.259259224395936
0.248783593845653
0.251701369104074
0.243321048940073
0.245615696518173
0.243325167098235
0.245593746896213
0.243734977040487
0.239897554125751
0.239867093773328
0.24094608704554
0.238138212067532
0.242681938025072
0.238459178077677
0.237285848619539
0.234054386752578
0.237897884614929
0.228413487030059
0.238851474513921
0.222898773460206
0.234093821378369
0.227000218672341
0.23056512064461
0.229223543487428
0.231855092969274
0.230070454978516
0.229428070036783
0.224108364003175
0.229847473091666
0.220476363739212
0.225765180403022
0.216166479826185
0.221267917061602
0.22232738479769
0.221814862209733
0.218996436070393
0.227051680265487
0.216063560850406
0.220556483232067
0.21270560581061
0.222042494846137
0.211425007261742
0.219312068720493
0.216299700776565
0.215058061471615
0.209982711641045
0.214275056344604
0.210836782854428
0.212962401557757
0.207114169728964
0.210834064335055
0.206130637820807
0.214398539845454
0.206266722945849
0.208692767714941
0.203108405578425
0.208762955194811
0.206774243313043
0.211073118190182
0.203440085284223
0.207677355033358
0.204623317398808
0.206927085982276
0.195535711063364
0.204558114447903
0.204987167273922
0.20213805934196
0.201373697143986
0.203331197508899
0.196949323784568
0.201544923813257
0.193844570596268
0.200113308779215
0.195255685161988
0.204037268359553
0.198430936979384
0.201366724422622
0.193729488655567
0.198437709466191
0.194162830225042
0.198799214827207
0.193681763458633
0.198079109321551
0.19169387493419
0.195475509312708
0.194759793146304
0.199232033399285
0.191778855962164
0.192058696061318
0.190328455463513
0.194372529842095
0.187501776507543
0.198610676663508
0.190992470868385
0.191723079093647
0.187057375304027
0.191178228566975
0.186851683806642
0.188637711905925
0.18493533886697
0.187911159863235
0.187679936633488
0.18641473224956
0.181681019519504
0.189464949104505
0.183063631131732
0.187778908515199
0.180096051015463
0.190587539040345
0.180111609025689
0.185943625700157
0.179877116009091
0.182756170593259
0.181831985659438
0.186037857916999
0.184232808915161
0.187977112442905
0.179785253819633
0.183010455351573
0.172796759127907
0.186393666292909
0.18000820061277
0.177081887584164
0.1792073813253
0.185283802441135
0.175475369238163
0.17829595738148
0.173983694031478
0.181631270536062
0.175117746380457
0.180048813256308
0.175132779293153
0.175937592741568
0.172910466252017
0.17730348062196
0.173102798332427
0.172962721715688
0.174582922409174
0.174502392082
0.170307527131333
0.176060215654157
0.170685808900316
0.173389915960356
0.168236806334607
0.173953922696126
0.170327795534352
0.172930156958821
0.167314440732438
0.173697215197705
0.165406212112111
0.167478357838685
0.164830255208648
0.168425369196415
0.162738935300677
0.171828057759611
0.163579198858218
0.168065599739456
0.166497353568413
0.161905461639638
0.161497625754782
0.16992547366997
0.161973683554734
0.164503670927169
0.160666036072538
0.167955248384259
0.158038471469711
0.157763262150735
0.157986830298373
0.159479465621082
0.1539129768549
0.156698720964607
0.153978109214613
0.157320101564826
0.150160174557342
0.157195385545619
0.152148555979401
0.152961930533537
0.151278263913423
0.157390321697383
0.151510877240261
0.15592468794258
0.150268103525706
0.151122558642522
0.147142496470991
0.150704780498435
0.147088476314581
0.1491350323046
0.146422051847206
0.149753488140044
0.142500433697946
0.148887909574514
0.146024207103032
0.146907168186305
0.143155531176795
0.150508668951645
0.145102906026001
0.147194464444547
0.142440579225682
0.144759893543507
0.139072561651247
0.146462668366918
0.138840360103634
0.141940098466921
0.139252318425284
0.140096415858197
0.137822789536064
0.139190610957663
0.136645723480878
0.142793654413244
0.134785720940955
0.138073736807153
0.134383459134556
0.137549107329834
0.132236355795227
0.135931879620788
0.133118316662728
0.130004984566421
0.132128625448992
0.134382977258285
0.129358376271133
0.135192905835703
0.128633012310335
0.133311698763327
0.127804099816011
0.128750325539397
0.127239902520219
0.132738322658155
0.124723230171141
0.130104939004998
0.128213889659591
0.122849837127905
0.120551390678095
0.127348760938518
0.122755615647604
0.127261922885402
0.123162774709337
0.125637213465423
0.125335679475641
0.126927568494779
0.119416444712504
0.123313722482304
0.124676697643463
0.126985821532856
0.120014931151612
0.122682018556554
0.118553864183242
0.119991039135501
0.120384233700453
0.120298603541974
0.117913270718194
0.122545882999868
0.116752743896451
0.122797371984708
0.116821795673144
0.120837911212903
0.115783627861102
0.117292203567545
0.11638878121994
0.117628048181349
0.112915654810719
0.118045958617122
0.114056800348298
0.118498568999282
0.113119366712285
0.117948763245513
0.114465021219168
0.117335131426819
0.116022458257682
0.115186408886855
0.108949347624712
0.118141854322619
0.115941205078116
0.11902476933434
0.114628899065456
0.114609182199922
0.113896348692036
0.115523875679448
0.108950814483152
0.110878364369201
0.109111205024508
0.109800035477864
0.103265103057647
0.112545708213119
0.107345917061646
0.114083080375403
0.111384546320147
0.120657573978467
0.112058154774933
0.109575431763129
0.105023869596248
0.109162635647854
0.106318524924306
0.110060912729739
0.105242561261967
0.11138081155656
0.104079057359332
0.111352077387625
0.0977448769596142
0.109497860122608
0.104183465777512
0.109338984012214
0.104963991700104
0.101097925497466
0.105862613519625
0.110600626639498
0.101749273142984
0.109206728596691
0.10903833525703
0.108267591186785
0.10904602097099
0.115179206278054
0.102318146989543
0.111683693647962
0.112727002497119
0.103930949939486
0.107418684688552
0.101169078674609
0.100315539484772
0.100330238442776
0.103001985374001
0.0965244385177096
0.107337999477648
0.0971318491526631
0.113435293321617
0.103048931182411
0.116156058028284
0.0870291005557036
0.107634854818763
0.0886514280238172
0.126988289804029
0.0890168709693525
0.122514604952492
0.0705799581508672
0.124260597662057
0.0806617115015153
0.126194739777957
0.0657821390990675
0.131987867034578
0.0825908322189052
0.123198562104141
0.0780193344435845
0.119473338146779
0.0919356184921
0.107701596277031
0.101051062195183
0.102037490053878
0.10440338418283
0.0971512973453665
0.11146198635481
0.0931723428063811
0.108809961281716
0.0980067877839901
0.106098867536011
0.099433360507978
0.104556433894574
0.10141321059235
0.09949150456621
0.101538845240568
0.0971399902890096
0.100627631037268
0.0994071819177185
0.0993805496238099
0.101577897694264
0.100623683724193
0.103695923872352
0.0980383344520069
0.100459564321009
0.0996840363792614
0.0991926619465557
0.101675231705183
0.100467787714944
0.100937797053248
0.102782024193024
0.0996099411345034
0.100626469692953
0.0986896333573382
0.100654820239718
0.0993411636286256
0.104831811333069
0.10330946100196
0.100794189822267
0.102831451011039
0.102140452707511
0.103111939182896
0.100599680353931
0.10004817065327
0.0995045501383441
0.097736690318377
0.101964800135649
0.101643789243738
0.100959259449451
0.0997043705420917
0.103669523486282
0.102440018942583
0.102436338421396
0.103706949975864
0.102470742144027
0.0979784055621792
0.101178405527254
0.100203203431346
0.101870708035954
0.100095141481146
0.10179676606562
0.0991436360698101
0.1014382878873
0.105229566881231
0.103314237528202
0.0986778416605573
0.105481426502631
0.101556569869031
0.102579775779029
0.0997481378745354
0.105125024970931
0.099752192136749
0.102831128418541
0.103916518625603
0.106423126891233
0.100641855702997
0.106166172982286
0.104518072134389
0.103920110824245
0.103011670712627
0.103542563793511
0.102121802061373
0.102875567295797
0.102037914772558
0.103324045127257
0.102385504287236
0.104091692582969
0.101893008657721
0.106734849455787
0.102726206041969
0.104167985992836
0.104512586159322
0.106738926683138
0.105545519152858
0.10534219403062
0.106288647827103
0.10690767708236
0.105211923382868
0.109112004642154
0.104414094470236
0.106436943665443
0.106646322401383
0.107488044407061
0.108080801410923
0.106951059012433
0.106397430091634
0.10616116539666
0.105494546588078
0.1064012344514
0.102972365616525
0.107168400736019
0.104242094582569
0.105516985658462
0.108419408770051
0.109221673584923
0.105390381237689
0.107761208835262
0.109489475555058
0.109488856309517
0.106959298057695
0.108943230838312
0.107329483179592
0.113823944808672
0.108381315854959
0.109837460608136
0.108310057729444
0.109393209839336
0.110077394529649
0.113144651809363
0.110597506850587
0.112947274482448
0.111274967028452
0.111337221180729
0.11194137769063
0.110210253328485
0.110566744364808
0.112139742024936
0.111812246079369
0.115666491715218
0.108650838039441
0.110641043288045
0.110998992636953
0.112461076539102
0.11269147314675
0.113134101012651
0.11090711199372
0.114537189900297
0.106845788809755
0.110962091683569
0.113817384616019
0.114243887869017
0.110602151855514
0.112458385126176
0.116307625307372
0.115765943809839
0.115195388594123
0.114092997521797
0.113516657621431
0.114997883657617
0.113694785642245
0.117646760533081
0.115196587152708
0.117177443323262
0.1151137036925
0.119562294328572
0.11589151392744
0.117012943495091
0.114148384961892
0.116055695531169
0.116304909725337
0.116565859818933
0.113529375561333
0.116339464775893
0.117320645168453
0.117142826171167
0.11570904497669
0.117847989209794
0.117377468792754
0.119315436314373
0.115257797968303
0.117332749447174
0.119664769579878
0.117447447118797
0.117204212451149
0.118028209043533
0.114855207452911
0.116951720988073
0.11778191667908
0.116093289579664
0.116808389269134
0.113890197022278
0.114260435023903
0.115516503824774
0.113426846293219
0.116140926947979
0.112331896965313
0.113816630187817
0.116392641371211
0.114112424772481
0.112441643444485
0.113974592877735
0.113065185210784
0.115582706015576
0.116025117402621
0.113576580727165
0.113920767497942
0.112777435486886
0.113756005574382
0.115967705607155
0.110752837787202
0.111957835666512
0.111613740345067
0.112897459504443
0.112461684334152
0.113587750523738
0.114362461318962
0.115484364167842
0.113979851617827
0.11317082492032
0.113398048991532
0.112734189538653
0.114338711305555
0.111439644889954
0.111060231068405
0.11116390238862
0.109220701023848
0.11222217338541
0.108262997219985
0.111279079704112
0.108628077670044
0.110030870932637
0.109566243700099
0.110287310448419
0.108498560733368
0.11334535774779
0.110183726864379
0.10836836386069
0.111857811446272
0.106983170961226
0.109368397097091
0.109129769381269
0.106964219400687
0.109714884811122
0.109669866930753
0.109327326620359
0.110089985754428
0.109507061125006
0.108536866004383
0.108857629025071
0.108238294604194
0.10954866762599
0.108428461999901
0.110112656842411
0.106695291048327
0.107497080936172
0.107470257100892
0.106984068271922
0.108941150536602
0.109779297019766
0.107246991826073
0.10844936519713
0.106593260790648
0.10770420303007
0.106041727437672
0.107191221382565
0.10509510638678
0.108379910713569
0.105968695255386
0.107671553669588
0.111141274232441
0.110209369875097
0.106875839004728
0.105705748317741
0.104070476770832
0.10632692987951
0.104937176880895
0.104929393934836
0.105486855430174
0.110104118550871
0.105552837521191
0.106442348622299
0.106305684714769
0.106216310177045
0.103937953286213
0.103105153047053
0.104651757243537
0.104272057926905
0.103371758236465
0.105521742687438
0.104789056294903
0.105184545717356
0.105142740063868
0.103152205668063
0.104695482887961
0.106860463020168
0.0989354190820505
0.102704949622432
0.103388853761556
0.101966019599167
0.101107706751142
0.102388188553052
0.104885364602236
0.101444257863328
0.102075229882945
0.101505235218241
0.0974803094718112
0.098014146559675
0.100604192664302
0.0987569172896756
0.0980669588141105
0.0989146026837992
0.0971633169342893
0.0993559272512821
0.0966706847052263
0.0999326724146977
0.096527824950097
0.0955448451693911
0.0950491237624179
0.0983020809528097
0.0943078560950395
0.0984121493626629
0.0987541497397954
0.0954167805682633
0.0927278463626692
0.0934420328046364
0.0962556675261948
0.0921375740429811
0.0950834053577805
0.0930827751202352
0.0949383596263456
0.0911432229602247
0.0914347842086809
0.0922894191457649
0.0933983006750558
0.0920024443541845
0.0904363099759549
0.0891132436152925
0.0873239336947435
0.0881507116730559
0.0928765551231127
0.089498473296227
0.091931636083086
0.0891381038267401
0.0874132297726099
0.0878175980908101
0.0885344295685416
0.0905435374784052
0.0927736273761294
0.0832516093898013
0.091895878704463
0.0881266845278659
0.0876002531849318
0.0853700529641275
0.0887963623774066
0.0849066109001821
0.0859237133997146
0.0856419348630603
0.0869459750899323
0.0879191454577879
0.0838420304691611
0.085778322166581
0.0884892386605304
0.0862132343801227
0.0856019259802142
0.0866257656955524
0.0856476539590417
0.0870079704203686
0.0845538988895219
0.0846850686839295
0.0867947235822372
0.0853988993875216
0.0845222507590078
0.0825669514287779
0.0846288912811731
0.0821673422052297
0.0836368228329774
0.0833995836681124
0.0853686958818127
0.0862172510585057
0.0852833591968051
0.081809619636843
0.0824924800575131
0.0824598138707855
0.082187250280786
0.0821600509919619
0.0808262452796327
0.0807171116071903
0.0849487614026694
0.0812893889980662
0.0810611732218058
0.0830353960092711
0.0811551237679457
0.0789820340585552
0.082808973838907
0.0812429495938058
0.0778170059895223
0.0812706526421055
0.0793897855255751
0.0799744249483137
0.0760689542615507
0.0866513057285087
0.0804016494232672
0.0836798662702126
0.0810377962449462
0.0789729877228638
0.077391903702651
0.0775408774451199
0.0778107857062906
0.0793174921060125
0.0780040611930301
0.0811567638382354
0.0783575825698385
0.0777186694285062
0.077638725847228
0.077626585234952
0.0775974281115605
0.0775627669516376
0.0780959879517022
0.0795077037187055
0.0778056272617755
0.0761963878023631
0.0820887900068465
0.078777401796718
0.0741286126973191
0.0807247332435066
0.0751839125860895
0.0825811156101045
0.0826917647164064
0.0696737039213872
0.085206135066061
0.0774489607179975
0.0826396365868222
0.0758923784393281
0.0827180936681773
0.0729520521926692
0.0836608617693507
0.0726872708257111
0.0805398793855425
0.0769549351114888
0.0782689150128712
0.0766778244169205
0.078903827885296
0.0773293059840391
0.0778320726778148
0.07673732738053
0.0760941700829934
0.0757885896662394
0.0771799682694768
0.0768582635717033
0.079595642362219
0.0733275679594032
0.0797698574242083
0.0751455744484305
0.0805924143249074
0.0761505918698616
0.0808166516603003
0.0722658497372129
0.0885453796035047
0.079077576889681
0.0815439800426156
0.0745305945174799
0.0749708565579601
0.0769679794328437
0.0758518903865919
0.0748280561789778
0.0783402767170495
0.0769760828531306
0.0748572650343141
0.0765740245744545
0.0743410395320231
0.0768764179323249
0.075424038443585
0.0772526027801295
0.0743086475953768
0.0772052589557068
0.0740894064869287
0.0761632864159837
0.0777166532025778
0.0758033272708361
0.0867431492441686
0.0764126281354439
0.0829978973337511
0.0748972466865434
0.0818569174497097
0.072565893864127
0.0782062869667771
0.0713406490362794
0.0803773499633044
0.0746317258654235
0.079516141012975
0.0762246694964847
0.0806882409142052
0.0787595664619239
0.0817867985698463
0.0796552567613957
0.078329724306742
0.0737343600850542
0.0779275810422291
0.0725525515083047
0.0773323524387547
0.0753849420663728
0.0765451206617853
0.0851409595392441
0.0774748677139057
0.0783356194499695
0.0784994076623424
0.107599767741525
0.063188693731837
0.0841203788534481
0.0738459356468466
0.078685595679055
0.078906232935706
0.0793264896314856
0.0830851122928608
0.0788158460891215
0.0774300558630938
0.0839675153202348
0.0790035497383395
0.0823648850800657
0.0803632899613568
0.0805991350899349
0.0849778529828568
0.0832818543363631
0.0764890948923478
0.0863034617456201
0.0760089185715694
0.0929753943537537
0.0813979001793654
0.0792669962781574
0.0908070134236603
0.0794399760556519
0.0818519783239388
0.0796688849012551
0.0843677713635608
0.0787475532859486
0.0854257321805646
0.0828722867722226
0.0853208716503257
0.0805891796611747
0.0836645743491591
0.0885250774079293
0.081936872173376
0.0901492977398072
0.0848485728986364
0.0844599320547531
0.0899062234521074
0.0791838967687133
0.0881456108941051
0.0846580134418262
0.0856733037319688
0.0816765235690623
0.0917220940614228
0.088325387348975
0.0892636650690731
0.0927256202874819
0.0883482638965768
0.0865205373195964
0.0930159690711186
0.0857206984614646
0.0962989543798317
0.0812125187692154
0.114289916310873
0.0866341905931495
0.0970978223776696
0.0913201241675101
0.0887406003936079
0.0954431289632186
0.0890317530898709
0.0961881660045832
0.0902897654850937
0.0993591287799656
0.0839456847496886
0.102520999183778
0.0829604064333389
0.112628392155752
0.0931363187404239
0.102103900447037
0.0899421888332564
0.0976472596575344
0.0926756648306478
0.105432313470327
0.0923296600016556
0.103245516813779
0.117466875956772
0.094216206444771
0.108390742465148
0.0957552256171649
0.107644547140841
0.115149830945108
0.0919034655200834
0.110465369617039
0.0947540599037266
0.110607495695667
0.0985796660254678
0.114638742922584
0.109054706958965
0.101143977300744
0.108998041395502
0.107960248338386
0.104762034385305
0.123164476741959
0.105422897764237
0.1136670429708
0.106269702053557
0.118230619164149
0.111272462063291
0.14532024679899
0.0975914211686147
0.140790798889974
0.11812757314531
0.129132496982348
0.121153047767239
0.124245366822263
0.125011340711422
0.132775947482519
0.127716847146687
0.126275831432826
0.124239650142276
0.146117876394798
0.134615510234255
0.129630361990492
0.1383591679915
0.130474855051318
0.148168624293628
0.157943741937318
0.151265882945815
0.140749592916542
0.144379548648867
0.143735103634556
0.16016117781004
0.145722830686948
0.153113708987322
0.149543614710057
0.155351498370581
0.154580998612001
0.158517030255083
0.169271341174987
0.158733272138979
0.166052081696198
0.165956087414623
0.174681451603611
0.185154316991599
0.190648615296145
0.176244515002453
0.173249221161456
0.210068592437419
0.17176855985639
0.191518176978798
0.178183971396884
0.186394121768299
0.191554102538271
0.19181968195069
0.194415665410545
0.192579139026029
0.218109316067086
0.204121059849057
0.211769869985722
0.213922849017633
0.210859239721486
0.236186227260815
0.213770695694425
0.331443198678515
0.206043915007052
0.258935276320929
0.229990711559651
0.276390857633205
0.26527792167967
0.255727776262986
0.261542644919805
0.271443300921572
0.27727182008016
0.295024999041143
0.29320789467228
0.299157198219227
0.311005929750891
0.317231307300467
0.319384990184145
0.359582514627681
0.348741680347431
0.359640173269949
0.351802455672249
0.362453627635273
0.377162722242618
0.393717261118064
0.384575184089081
0.40528606444171
0.404888059506422
0.4220309573215
0.458834312167122
0.430165254758571
0.458428090819463
0.452431899866709
0.490531371061171
0.453679498470852
0.535205552880357
0.491297505857837
0.513682639336145
0.513408316242604
0.522950223603813
0.545243195784222
0.528183999615841
0.580619331146529
0.554416797456018
0.574459859545126
0.575756158312102
0.581488793685449
0.594944348290953
0.608787811571079
0.609322048356554
0.59683925529361
0.643415971589626
0.640658459298723
0.722780170493401
0.637797528865767
0.620871778843502
0.645730642126931
0.621788305204809
0.6689211643014
0.627723754015632
0.669430748727452
0.645513565058201
0.645589793959884
0.655052427469416
0.642877904110462
0.671060276257952
0.652312209346768
0.665397471481275
0.644409988815146
0.698907616696845
0.661028756766674
0.663758709055836
0.725539352795666
0.639211538055719
0.666400474488884
0.653653385682261
0.667913305518334
0.653397498706783
0.653305921214353
0.660694974198149
0.691541406553005
0.635988986348299
0.660070618425832
0.628132913542957
0.659742783432989
0.642886789287839
0.626650392893791
0.630926563070945
0.628151688211487
0.611873407346297
0.609254686792607
0.630060837974781
0.673930501602352
0.594617833805167
0.606052996835344
0.599238133407281
0.599364718266483
0.59136701302295
0.587313895179072
0.589678822414874
0.585138159891214
0.578242867985021
0.584087785870412
0.555534953763045
0.567052602894372
0.564927580251947
0.577947411296224
0.565792998023925
0.569909652570079
0.573001335776466
0.557046818266202
0.559040288535318
0.568682474224901
0.554537559735766
0.558005084932112
0.547253139875872
0.558208836983911
0.548962147239346
0.552459668193732
0.551812857600828
0.552180573015813
0.551340094918907
0.551164267187148
0.549491422380638
0.547432668586722
0.544414282599315
0.547773777348701
0.536498067006864
0.541093463652683
0.544794007465562
0.537839353674575
0.541007096427734
0.528163815740457
0.537638149073367
0.526654751204628
0.573929246117674
0.537287264957749
0.507018927280532
0.528991125116994
0.51059107673949
0.521160012566375
0.497829979905463
0.527102848965842
0.505804514056572
0.501052866414415
0.489345181569969
0.48568081812325
0.474431906369708
0.490392448447953
0.463790437961067
0.478530981245944
0.454072401975731
0.513727788120045
0.50222747515586
0.476278095307343
0.493974634142937
0.448518657972696
0.450065029759355
0.439932910500854
0.467175804429102
0.423418295971451
0.434141191401515
0.422060524268056
0.449042390639699
0.43335007497865
0.418076122392348
0.425659968502877
0.416388894118797
0.419930117665354
0.418201675991614
0.413970048830126
0.418077226300835
0.434143538539292
0.40724208709104
0.419504353979627
0.417626254456568
0.399746277710311
0.380778662023196
0.386720282104817
0.381903345415701
0.378866230379141
0.400627478153481
0.377152642579068
0.374384542698762
0.363949918425095
0.360005275606127
0.368882041630228
0.356117364619815
0.371327772726408
0.342862115651995
0.379803799833105
0.341417960811275
0.358164635108547
0.346340509895801
0.368228468637892
0.358013970063799
0.337781055484109
0.34070859440819
0.346185050541418
0.365740311389513
0.337243008094214
0.342805756987854
0.331333616182181
0.326757977695117
0.34367984527059
0.323626845093757
0.328519443198289
0.324349262082664
0.331747414188332
0.353392548899766
0.343643828109492
0.337400695798613
0.316798273962476
0.317799655058641
0.325882462860537
0.314019851653457
0.326063014115353
0.319409866239411
0.32169298204214
0.331875698668042
0.313177188695512
0.348029907763253
0.321767167189826
0.326036232803543
0.326848190454121
0.33412431826089
0.346681759221209
0.356650212185449
0.355570078766465
0.355115660937811
0.346276369014195
0.366266645971332
0.354606052964059
0.372533152069209
0.365802229878282
0.380480886821484
0.374397780351854
0.39086726612862
0.392075167923671
0.402761051579628
0.407800466384603
0.425401402877856
0.417356040765179
0.453250561180214
0.424770679488659
0.459680217141689
0.45874888926562
0.478612444427634
0.479589890629764
0.478401114802709
0.488645052610645
0.493099175596124
0.509202691667527
0.518583799054798
0.513099635614001
0.54064379019717
0.525146240520754
0.543167294899794
0.531840566073582
0.550439302836585
0.551570688159658
0.569249257308956
0.58248265653615
0.581467191043576
0.616849300106134
0.568338922846557
0.585958555982702
0.574824985857891
0.588015307977309
0.588729272182997
0.59155757255502
0.595305060392121
0.589815617325091
0.617121861760787
0.599909583802651
0.602688601755387
0.61406925612192
0.6109131591077
0.620688655677382
0.622564371822837
0.628512169547326
0.634188563351061
0.639084806256455
0.654591664752107
0.62411612371375
0.683431055410455
0.662072908115335
0.645838862030059
0.669562875864881
0.658692604626303
0.678351250257633
0.674474731185339
0.693234605133914
0.702876789515702
0.693499420053019
0.701019251317299
0.707409947444372
0.715868522657953
0.709032253301082
0.738308965000745
0.727880454394873
0.72451894199881
0.733704434677393
0.725874852868471
0.803032187969151
0.728733810245286
0.746331311898399
0.743675306435671
0.751148353262918
0.738367810626651
0.749186272237734
0.746552017191399
0.754507361581186
0.761832116072471
0.76410380235647
0.756083537563726
0.760144587157126
0.765548449413827
0.763174616829423
0.772067435769775
0.761928572455696
0.763731958177117
0.768922262545224
0.763515099703731
0.757794108223479
0.759422291684283
0.780823479865229
0.759257676662778
0.779431881984024
0.749315670450044
0.759960450349023
0.768455647510643
0.750409579900944
0.759928932292476
0.76843113028387
0.764328017252323
0.77836672921573
0.750423821602788
0.785520944206211
0.768085794209307
0.77851302696629
0.791475058999366
0.789773102178882
0.783623359646371
0.797694698156956
0.786882134001236
0.796365862768659
0.81205137541512
0.817274781944279
0.811182255604961
0.806333650071469
0.807126164483204
0.808604546126053
0.81308393506183
0.808190898742933
0.793005260287849
0.80124466848248
0.800603891646283
0.804298575098313
0.791369101328041
0.779189091884983
0.777317429575658
0.784722825470077
0.774507306163607
0.787369939545847
0.768265948360068
0.761756719185524
0.760753133924974
0.740278705724765
0.740815571802176
0.727721879422264
0.729397816332101
0.717725626724634
0.726556159596335
0.718460956600359
0.711065782812023
0.712542635100568
0.714349484514851
0.714772483290296
0.715053224642928
0.71236888681634
0.704741952101893
0.704171702073315
0.703177218168069
0.701589668378966
0.712642188435834
0.7048783139843
0.694893921315816
0.703859235679806
0.707692720573967
0.696778432657057
0.700616454383054
0.692656767010549
0.697320585732716
0.686764874852507
0.691152610630721
0.694901628878988
0.691193848241632
0.69258355109305
0.696533414546043
0.692885373803794
0.6881602038323
0.690751768788882
0.695213324075209
0.692078354619001
0.690771013945034
0.687090473021846
0.688447905326437
0.687053422627042
0.68965893969366
0.694256943562871
0.691048326959244
0.695003450899245
0.688707866267774
0.697441264925461
0.687513595355182
0.693466492443728
0.699555808740728
0.691247048559785
0.684514693486777
0.68809075220173
0.686861099567052
0.69048400960879
0.689629581389913
0.689326508162636
0.681780627209686
0.681428076160327
0.682420895461067
0.684464797251058
0.678920480321079
0.675406175530127
0.666922288941353
0.664349725635315
0.659897562990423
0.651803303634491
0.647932902236014
0.645302880850149
0.642191813346492
0.632023369076738
0.630547916294102
0.622738297437786
0.622590209498596
0.616913116076474
0.61133570713779
0.613674523754858
0.607927127146641
0.609674877450257
0.603954692388023
0.613748001990708
0.607567338630197
0.598260745627482
0.596518564975212
0.596394091313605
0.59949179249668
0.605196212868577
0.604321007529821
0.600528520365367
0.605711660497735
0.604078549322908
0.604404711694464
0.608690197369938
0.610530210617214
0.61272265017563
0.614733587486589
0.616624678046858
0.61993463984485
0.62626731179425
0.626084917997687
0.622046491864263
0.632599261591971
0.631629187691012
0.631273476590449
0.632282209384707
0.637929173206047
0.641055749597239
0.637603017075686
0.641201347118774
0.639429010692225
0.636501749921306
0.635842878855352
0.637201779349612
0.643361548363317
0.638438554156602
0.634886411820025
0.634041032059532
0.629907854697278
0.625037958249711
0.634522463083157
0.63052493404441
0.629067837017303
0.624423652487406
0.622288309228443
0.624822573450525
0.616055234874453
0.612567397443483
0.609961293103569
0.609530438256452
0.607677695687239
0.600683881648684
0.608528635236542
0.604481862902772
0.600956619441389
0.605117652853692
0.603433403465079
0.598001103611941
0.595997620681094
0.594501308033865
0.58991362077038
0.586195835310469
0.590122592916239
0.586786587745699
0.584918204571654
0.583200941990853
0.583066574525346
0.585709156176756
0.582316271441505
0.576149890922929
0.572893703911683
0.573665414352376
0.568282473594701
0.567345186594374
0.566643301677243
0.558770471069952
0.558376000172785
0.549264906247699
0.541671881838844
0.542345747686959
0.537239758804637
0.532441805243026
0.527690946476221
0.529414955122175
0.524216426607779
0.522288693401991
0.523401763282447
0.520128289600034
0.517882678263571
0.51678861809156
0.51853212156278
0.518240276549734
0.51256204316267
0.513396110952951
0.510776711695011
0.506641659347162
0.50130112748289
0.496918054396846
0.488067858339095
0.489229543767153
0.484059151151435
0.473069248693419
0.467827270677595
0.460585880812554
0.458216890012132
0.453890668124544
0.451704360347726
0.450290055193398
0.454873879682462
0.455639863881996
0.459789875216841
0.467402978277649
0.475367244422195
0.484115227621163
0.496360074353165
0.508183893681753
0.524764282032583
0.536316809560124
0.557780288916101
0.581045942357862
0.60347782213671
0.622758096029638
0.644305650195174
0.667241606623484
0.685193806366946
0.704364873915977
0.723825832870113
0.748386081820666
0.768753055216252
0.77772936564656
0.807088876679214
0.826875656686236
0.834896529125556
0.851842511255397
0.870399968592262
0.882858335359291
0.899452096722401
0.92688624899482
0.927047839814964
0.924080224359945
0.949484967050731
0.964411799384334
0.961149229679791
0.964694512432592
0.979553821460721
0.983963542413943
0.986915702495242
0.985152068075876
0.980523806921451
0.978459297297911
0.985766471558197
0.991117516747273
0.985925661310881
0.998931486295388
1.00812257460676
1.00781185221641
1.00223983855637
1.00849372143981
1.02299591842336
1.00696721339025
1.02350281974321
1.02650930849256
1.0330176975625
1.04270248288437
1.03933415695813
1.05467585486457
1.06815453656556
1.07061407134417
1.07374280462286
1.11672540229637
1.11068159623913
1.10875034828327
1.13427914305549
1.13883748925248
1.13857185944432
1.17244133463929
1.19236568925963
1.21295227133252
1.20964410896695
1.2417894673245
1.24157490581969
1.26469466384413
1.24220769775256
1.27723393610194
1.26452134556691
1.25707286962008
1.26964023716403
1.25091352900893
1.2458008150981
1.24071894822852
1.25973728710997
1.21060086212147
1.26284271037392
1.25239786779026
1.21863684829117
1.27116090528077
1.27510062809048
1.25022746820519
1.26501108762131
1.30659136177318
1.33250407881707
1.35137601137937
1.33633485674065
1.38634309851148
1.38579662753536
1.41838109134258
1.42736194403935
1.4789414790637
1.44995621643137
1.49253214509143
1.48893363553245
1.57483665178512
1.57601626285574
1.57530437150807
1.58196303275126
1.61998691602785
1.72064691851341
1.70701511145289
1.64344685334242
1.68143887440794
1.81661958152731
1.870088851292
1.79205004757561
1.76607482783639
1.81721250747189
1.90529866355659
1.78542897623429
1.81440220737259
1.91654359771471
2.10738665567315
2.02474458049214
1.98244896437789
1.87690797565656
2.04718736451856
1.89129992306458
2.00623805430592
2.184685866717
2.26397665560262
2.3152619960321
2.26075498245898
1.94223813015161
1.98708036982724
1.95202438094329
1.95159531562845
2.03115817649853
2.07209482156855
2.18287887710767
2.15707606370492
2.04173576525007
2.1640649579111
1.98803368133233
2.24817249405892
2.04659466352033
2.23499312820152
2.04452574391488
2.15011295533657
1.96836928202621
2.35223772683465
2.04103270568135
2.32926778875342
2.43346474071765
2.19272430327883
2.15958692213007
2.32926525464461
2.82725986640105
2.5766590087396
2.10544935232947
2.85298497034708
2.29103991278047
2.31540191014244
2.21023160210276
2.1943292975493
2.12589062432866
2.55030606606194
2.18358813132014
2.36879099762376
2.88359071945599
2.76290815299033
2.22223192487981
2.50995035790578
2.53715108566198
2.57753897573776
3.02506976846594
3.15600669256135
5
3.46403433861251
2.17479455492596
2.86059443780538
2.0790172362473
3.11312712683302
1.97444430009817
2.08861014369858
2.09367023420959
2.36561703063417
1.95223840973138
2.13745375240929
2.47736909239087
2.07288374805538
1.91425158588147
2.08186446449313
1.88093504899661
1.87893264365669
1.81611813396378
1.92911661935408
1.74923049304991
1.80214863312225
1.6009595126193
1.886936435608
1.71018513282042
1.60823892739618
1.59929276875405
1.81554200503523
1.59690173506373
1.80343271474999
1.62812004008569
1.67535544900876
1.51956582403393
1.64564401457802
1.50532836957555
1.62534415903672
1.50945492398123
1.56793232868588
1.45640440041788
1.4841228590292
1.40398417517103
1.48008648944596
1.35620698673922
1.33206107586135
1.33190970082943
1.28815903362152
1.20317107255748
1.13283771543126
1.08488263568581
1.0844369420085
1.01346112510146
1.00677097663146
0.917687022224741
0.921414042296886
0.870390751787903
0.837113794941519
0.795657402339399
0.783512451311235
0.735981107730119
0.727095870376594
0.707122551669221
0.685621057233565
0.673087332454981
0.653428143290542
0.656737727712056
0.630146466863277
0.61607376798204
0.628177780649073
0.621429466581002
0.61739721445131
0.609260682962978
0.608508437343512
0.592162949564618
0.611970751766388
0.6018942121508
0.61827441829254
0.60789568837083
0.619441469871439
0.618127365135046
0.621781524310301
0.613931432849566
0.617094650549466
0.609439561296767
0.610659088988278
0.616598393706228
0.61263780763636
0.584557000960474
0.610237024400267
0.59520531940223
0.590731169411588
0.571675624092634
0.579221255137756
0.564390567431485
0.575606736121149
0.569320783832213
0.567476769737993
0.574074526830717
0.569421871026891
0.564471840115817
0.58187549091288
0.570032300235139
0.588374935433419
0.573152242708878
0.594231873540345
0.594508190549182
0.598335413787415
0.606756172007395
0.598716753115883
0.61375555377569
0.615321357378715
0.601363575767629
0.628263439200169
0.632813756518633
0.613574218896416
0.622459388727604
0.642492065308737
0.625289099737576
0.627665456242596
0.644991662946725
0.644495643900445
0.629036080248834
0.645542611661888
0.629104444835211
0.670520231282002
0.669958205012071
0.666737090809507
0.674582034639664
0.697552447451105
0.689044721965868
0.727896841436687
0.741831428867174
0.768965261833448
0.784256473634568
0.794811660186479
0.796603034012728
0.832964681386829
0.838350123609454
0.874324754955571
0.858869534448256
0.865740655624253
0.83500064022553
0.844598690113241
0.821451207179868
0.830865832763135
0.786400592001731
0.797314625048265
0.772266360148087
0.780128764249302
0.7577722904379
0.799593972701982
0.763960692854871
0.786526843176525
0.758496363076196
0.784819353661352
0.777610727326823
0.795211335856966
0.740542127319627
0.794400498624126
0.764811703666758
0.76753427223885
0.726799979177931
0.750721302026409
0.7545648970998
0.773291369303495
0.725036929906923
0.718249039206145
0.702551330267664
0.716552694551137
0.697097444911984
0.712185511930309
0.697447682060214
0.721046169116576
0.686013405712791
0.700514585953707
0.687254268856264
0.687852301626997
0.661926137969997
0.710996766519826
0.677091658671991
0.676057096514384
0.650323091279469
0.68827400864205
0.628942230453581
0.652997643522737
0.652198356810933
0.666000651123427
0.632310317825604
0.67148061240706
0.633902715500902
0.650382767388927
0.62950912714044
0.64035195432222
0.612040597750745
0.64181150502507
0.645954247975471
0.639085161166659
0.650026638682137
0.634171050052015
0.635465299225579
0.651714431778647
0.610962860257155
0.635105281659563
0.601434973990326
0.645459069330495
0.61377519231023
0.622091619642089
0.606546662623559
0.613029028303483
0.609037574748572
0.618287265457932
0.615873956436384
0.656179544426172
0.607658302920963
0.649452757482298
0.639484743755035
0.654052328777414
0.645534324082984
0.630621928542864
0.630860850592203
0.632621261286469
0.621458960785249
0.678345675017873
0.650222606590651
0.658442865543461
0.651404791990406
0.691413091259908
0.654967920353968
0.668222826195527
0.647703903163023
0.725911170451481
0.669355472669753
0.748557791689647
0.723099513172635
0.730602045997526
0.703107537076621
0.750439657418357
0.729416265904507
0.753011525749835
0.740506964859452
0.818898142838373
0.830015355942959
0.757264165478916
0.86510608799532
0.858200201947322
0.861149797846807
0.961569998841663
0.881528959126966
0.92743326928115
0.952755864643537
0.99669451105127
0.929377545504515
1.04810090933912
1.04871259589729
1.18133549430279
1.0460558287441
1.18860856936539
1.13767649939974
1.05527778564639
1.01598319219855
1.09309964028661
1.00588522748746
0.99716278635421
1.00040557698836
1.03776554525993
1.02284343419245
1.06894475781701
1.01417327786333
1.06484766601574
1.07420899367219
1.03487136377697
0.913036787000634
1.02964197832744
1.04733448482584
1.05779076973369
0.973443296437983
1.01464194966569
0.975260614847618
1.09279092712135
0.985229399039696
0.913965185291745
1.05867497219964
0.985931272362806
0.845612750597954
0.970729665525675
0.882197516934451
1.03758744864906
0.996131333372983
1.01890923027022
0.942938341145424
1.05290132922142
0.94692160276707
0.907580776758338
1.03606506586957
1.0276208759407
0.855702654373116
0.98302266962546
0.915462228188159
1.03380068887338
0.988124363460195
0.913161640123262
1.024521815219
1.07224468430603
0.892667851601094
1.01661912767696
0.941399347488537
1.02068016879225
0.915491497953697
1.10513281604967
0.869920040403968
1.15035912676336
1.11891792477948
1.22045302036759
0.909279276458978
1.0471266611262
0.889714526873128
1.12130144327416
1.06234417370297
1.06855406691216
1.12084347531109
1.04909309975989
0.947157389943112
1.15448171273813
0.974614891288783
1.09323436246273
1.11796779560149
1.37064962373565
1.03300963290351
1.13339221105887
1.03106370137566
1.06240480852557
1.05082449995626
1.19283649188887
1.0693716479097
1.28566590814712
1.13223025845119
1.91376115446447
1.3981267203888
1.14896590656478
1.1671451913915
1.46451124644536
1.17803057168744
1.24176417404349
1.29899823999651
1.1138131264522
1.21475294070937
1.4657068040426
1.2582549437956
1.44094621498202
1.18870837605924
1.45855721777305
1.11105757042736
1.43188611411116
1.3296717741107
1.66746386333862
1.14566688110445
1.00316296681682
1.30473589101937
1.84084139404033
0.817108725291468
0.974052664733023
0.921565960969658
1.45854634094769
1.37874268705964
1.57842968531847
0.863922990630092
5
0.968773012762309
1.37676798406452
1.10808952003992
1.63700059381881
0.95244389282604
5
1.27698724156394
1.73718538087563
1.02154532554281
2.36554721124852
1.07420889288811
5
1.10184535217481
5
0.910960405894209
5
5
5
5
0.989187441045386
0.597008298041062
1.31044909362643
0.662464904356754
0.771754101661963
1.38228983584199
5
0.841285657466831
5
1.22222153380654
1.55995521928807
0.586149274608178
5
5
