3596
4000.36533379555
650.420452594757
1
2
2
0.0412737767340423
0.0436165311059017
0.0487085579371088
0.0472466855515076
0.034357469397439
0.0414951218830562
0.0410672710915471
0.0404391592238727
0.0490360647468029
0.0422767715564434
0.0432828973332459
0.0432626029134943
0.0325223098314753
0.034144593476534
0.0441877584271381
0.0400223339439923
0.0437067925683183
0.0373481288741677
0.0368239909698166
0.0437280662029267
0.0420745084849951
0.0368345597111514
0.0432062090911377
0.0490061798038216
0.0397119337257358
0.0363521552736527
0.0365451917442445
0.0466946296532417
0.0468887165628539
0.0496445268570473
0.0407516502808303
0.0462014511508004
0.0389837274401909
0.0349952409717799
0.0374931777007249
0.0461540831961374
0.0435965309945716
0.0385779073761464
0.032184431474025
0.0395304014305542
0.0346741915791744
0.0388101200982601
0.0460844650380617
0.04488195964778
0.0327176482993617
0.0349335040606931
0.0342446632345092
0.0442904730067929
0.0347382116106995
0.0389001775467411
0.0334592261026781
0.0451571121495507
0.0466027414062895
0.0446950570031607
0.044814893342791
0.0277283985256246
0.0359403402477127
0.0489556382899403
0.0441047827395823
0.0485541468094933
0.0547963276069095
0.038939749609549
0.0381111306431404
0.020686742699265
0.0471572747222054
0.0433872965577721
0.046005974746903
0.0374462721112499
0.0528172442962729
0.0320030407097682
0.0402343621313907
0.0523937119637316
0.0372313240836695
0.0480342208283498
0.0409983759494634
0.0420138489550381
0.0420167164991234
0.0355826672077148
0.0543787498142945
0.0470117041720683
0.0420718110887201
0.0379939906878488
0.0369803282405605
0.045560554888379
0.05295371840024
0.0221526562737032
0.0420916763982164
0.0446666652949698
0.0400849018527689
0.0272249632566115
0.030221657280772
0.0355534771184274
0.0396530422041032
0.0351611953374089
0.0412186265204205
0.0341664742100607
0.0414559616705042
0.0321855760812773
0.0343405117911408
0.0466466159303625
0.0307402277961607
0.065401110279581
0.00650475691172324
0.0588064773487297
0.0369173407519262
0.0293958432352993
0.071427599297338
0.0272292977694485
0.0481548813022273
0.0389849270267848
0.046384752708009
0.0354768726970011
0.0491425325097533
0.0258259138461831
0.0499600420340607
0.0465519416774512
0.0263914299922995
0.0365352557775631
0.0280054173351613
0.0286138688050594
0.0431325720525734
0.0496140676574257
0.0200521016632903
0.0495385292600458
0.0333213574563339
0.0325717133988569
0.0454492119366894
0.0364206894906924
0.0343063362435812
0.0386725974965629
0.0296319013441362
0.0432164503347476
0.0249421662341156
0.0554931024794215
0.0168326852022848
0.0316515785295378
0.0323884928808519
0.0409232951144861
0.077688318846166
0.0242201271104095
0.0350176341067557
0.0245319228676957
0.0370816667028344
0.0433021825082366
0.0292206838607308
0.0342253697027042
0.0401959514976621
0.0374288140533909
0.0271251597745797
0.0414864860756259
0.0319733641398441
0.043783260805097
0.0378765969769911
0.0314947623717838
0.0539149007061225
0.0860918834611373
0.000842954276391951
0.0764893336935768
0.00173470376725086
0.042111135541002
0.0311730981324143
0.0290783124466317
0.0310105049978517
0.034636002218813
0.0381553342768488
0.0278420025392731
0.049040034557887
0.0234726744015348
0.0316605868734937
0.0399562074707669
0.0395197112406057
0.0248750541576292
0.0596788209523032
0.0281617248525802
0.031516110201888
0.0477744840552147
0.030244230512218
0.0322208257737086
0.0225571303674553
0.0450197687346365
0.0319494556408751
0.043536047540131
0.0281611073671821
0.0332300803834916
0.0390420006843912
0.0275249916531206
0.0373598983547484
0.0509134435618789
0.0255728153441167
0.0500429680350151
0.0569694515503823
0.0556109301853323
0.0214160109955478
0.0443009515105848
0.0318817625081059
0.0457174576584731
0.0456111426770522
0.0176006649417861
0.0361231802260753
0.0296582797801771
0.0337585061770065
0.0373223255954055
0.03179065724842
0.0338596911591209
0.0296346207418485
0.0593607356244461
0.0429967335325397
0.0257056952791361
0.0288093970826745
0.0372571607505443
0.0358027741748094
0.0543860078940353
0.0578121233765655
0.0115489323147775
0.046057786881745
0.0335509555953181
0.0457091556116962
0.0406235605772084
0.0336610293232536
0.0320267222007502
0.0353631828619602
0.0253699767891194
0.0367353521642598
0.0348031192539595
0.0317067692582697
0.0267457442304499
0.0341713487537846
0.0363237535005893
0.0397598348717578
0.0384546205612486
0.0530268951345335
0.0266158214861832
0.0344915937240755
0.0304034420744662
0.0382682016765215
0.0445644023541281
0.0297634683186575
0.0261818347284146
0.0350610102883385
0.0408526827442617
0.0374599760790307
0.0349037257544593
0.0353765482479765
0.0366471631867842
0.0310627124087754
0.0512778082223262
0.0414757267374957
0.0329894289419939
0.0384085228824296
0.0356402170280944
0.0591248051555924
0.0240580767190975
0.0478968499154575
0.0270666494457836
0.0443289601087238
0.0258616789382244
0.0589724344609049
0.028538710549498
0.0464251291242281
0.0378512888461798
0.0523436360586818
0.0217584109673135
0.0517714752251915
0.024832092349445
0.0647760878215691
0.0219996660585068
0.0220275203917631
0.0514116165066621
0.0434850058395348
0.029176160274152
0.0562632463107359
0.0261725524296472
0.110647777911591
0.0653629368193681
0.0303832967391483
0.0257091909919519
0.0530227697623839
0.0310554664956794
0.0416827981441178
0.0522605431340267
0.0439757800950363
0.0572743786008076
0.0257969356809788
0.060191677363432
0.050694570279374
0.0403330492951031
0.0754697112384023
0.0226144282920698
0.0554728555372439
0.0250049018284334
0.0534084494504965
0.0445252235253951
0.0645290623515435
0.0283538199499256
0.0581259962021871
0.0171225415546497
0.0681011724211337
0.0361787565697172
0.0485243832245611
0.0329920547755722
0.0605285544646919
0.0269944461837098
0.0471477994097454
0.0437880239245657
0.0521559052428346
0.0434270393461544
0.0504094325353035
0.0711091168823457
0.055945022093371
0.031351364288959
0.0643456845062289
0.0405698335828763
0.0531340676471938
0.0418942499128946
0.047310065770727
0.0407188663680462
0.0526047190537897
0.0308427886438437
0.0573926017020544
0.0477358255901042
0.0479270315320791
0.0470797107793219
0.0502714885222426
0.0540060492643139
0.050669795739973
0.0476509253348256
0.0560574153883148
0.0462294452325741
0.048962881993176
0.0519101525366129
0.104662967534996
0.0455450419919866
0.0643832503881089
0.0922897678298175
0.049466488399958
0.0487842491365925
0.051735971232158
0.0628486269304564
0.064265299403806
0.058971542929115
0.0652042148637693
0.0613874225379461
0.0698203669805989
0.0779046884873136
0.0697711064293507
0.0636020697522543
0.0909248808443645
0.085794222865088
0.0767875143933768
0.0546977761114018
0.0796437512134317
0.0638186353467005
0.122883575182304
0.0558498002706699
0.0911351923659177
0.0610124680833183
0.0882982097388011
0.0688796939212209
0.087608509082631
0.0855093005982653
0.0847381292282426
0.0848762183790715
0.0976181262565989
0.0866525269114178
0.0902219810866476
0.0937898852871798
0.101492124157436
0.11773623919934
0.113422150045772
0.0853308130075679
0.108881862487768
0.101371292464881
0.121512509088413
0.1265130931855
0.114061821766732
0.156604115468851
0.10981813422985
0.130997510691387
0.120793327532698
0.107185234226858
0.126303960509969
0.117074723949557
0.142970949882747
0.131383789220178
0.142225234251919
0.144350515551296
0.142302004640666
0.13583187707427
0.147580485689032
0.136243043629628
0.156702158433816
0.146904112252133
0.163435244813735
0.144063373836004
0.177691122782666
0.159994516576952
0.216488786482556
0.157148753581588
0.193250622025673
0.155986757152549
0.191318876567986
0.164745024353242
0.191813340575691
0.169921508989949
0.194534919262855
0.191973909631057
0.211710587010184
0.197529397552385
0.207299005141571
0.201918728068398
0.210001392299335
0.189599010602783
0.236240646990209
0.204916540093364
0.23309944839378
0.208941273874225
0.239178818645611
0.221338853931178
0.263445289671187
0.220151670395962
0.26366304057696
0.222576309326587
0.240865830814452
0.237125506295283
0.249634406645708
0.242124889842706
0.264565163555779
0.253333627879219
0.258453298990199
0.262744543824649
0.26712694768915
0.268442430906098
0.298187884156706
0.279856384293518
0.302364836688747
0.283553132774983
0.305735758468149
0.283815577596711
0.310655791115273
0.28041460840011
0.368261198511204
0.287627353246388
0.325841153366266
0.296325882256749
0.307201460014373
0.318316153947605
0.347620520803472
0.318568095235472
0.352528626656646
0.32692703051559
0.358045746706237
0.354371459521181
0.361220346136157
0.352771413108434
0.358501122953963
0.342184153489441
0.393040472249675
0.37048098810507
0.398689695785746
0.359683137399645
0.395625678460339
0.38505910162178
0.469018564201322
0.386533969765635
0.460577917165062
0.392630798896881
0.441812210161553
0.41816867675558
0.44955192173885
0.426609553524778
0.46504604800421
0.427500309001877
0.450946715346886
0.433391029438825
0.491362857835074
0.45693848609102
0.481671166967953
0.445477744346272
0.503958200711358
0.470875073699337
0.535477253319273
0.450448313274695
0.507925550444937
0.491545788360922
0.522925731737725
0.480627427718737
0.503472748825046
0.512743789637122
0.548005178948181
0.501616391440521
0.549219195156321
0.51349203229741
0.547840200781916
0.520688614591523
0.570562575595577
0.52866423300102
0.582377771216162
0.573452788602401
0.626486154483785
0.526187807610708
0.630143314606477
0.586909393369626
0.604076230290026
0.603199903906087
0.637829519643826
0.570727245368016
0.648734133276513
0.570554874447623
0.646292717014839
0.661382906823798
0.615011023793298
0.616324724203422
0.66756786616958
0.659902041427999
0.701780753548828
0.635701836293112
0.699261430004532
0.672165039066029
0.753187933929716
0.642082933404218
0.685838439650934
0.643852154953544
0.750974126543746
0.671344751478578
0.74264545036731
0.697077855001533
0.787158121934947
0.69118927154053
0.754261088776383
0.666351780319278
0.792749877740939
0.691467679703095
0.761642462120805
0.708057216821284
0.806609450208681
0.751075994050954
0.830792601799628
0.742182153204195
0.792236877072931
0.763095833131206
0.905307310628679
0.798614459792654
0.858950485741173
0.782947097329401
0.859884597275187
0.797143738619651
0.887943281027091
0.842384311273276
0.922973405872705
0.799841188627973
0.841293702596288
0.780994260342732
0.936432970023114
0.86244036483328
0.970402576343154
0.852217089373526
0.969898265277838
0.816281014905518
0.915683709060235
0.888545491162187
1.02169463365909
0.881681904369363
0.93533360993735
0.993065309674273
0.945595215752305
0.911011014452666
0.969600340502959
0.810680290404619
1.04535713097216
0.974439498942878
1.06440965885868
0.975503745381957
1.04543196655542
0.953560304519344
1.06817101501947
0.985467952284272
1.0645038710845
0.974404587068422
1.0501758357212
1.01906561780917
1.14713184298926
0.987102660056762
1.07681119283982
1.05914038202145
1.0939942876129
1.02407623951938
1.15253404976596
0.94204746309035
1.13202452723227
0.993385925846767
1.15453798581432
0.99564094532308
1.14413528015514
1.15392404186692
1.17707148268644
1.00182107578237
1.12296836576585
0.995620996255989
1.22353082197659
1.04300402678794
1.09355940207206
1.01506788457643
1.14022912334199
1.03659105926378
1.30206388234868
1.10603493085693
1.20569100320011
1.07335157253511
1.22485685729292
1.12909119789785
1.34483053469376
1.23996500176279
1.25099538510655
1.12634402432378
1.1088910196522
1.13560473023736
1.37111598000715
1.11951250542208
1.32091065005164
1.19077290308487
1.2354083062617
1.18458756843474
1.38021862089477
1.17222830729121
1.32975667603801
1.27998727138922
1.3867955059675
1.12805314047268
1.22880800070808
1.1231290615283
1.68404163646249
1.21559078874374
1.39064469552871
1.2115637048742
1.36146102153324
1.36844125190945
1.32113328947198
1.09441271159726
1.32156847377413
1.37648695231394
1.43538214129741
1.20028129006871
1.30524317612934
1.33075719735177
1.64560400480752
1.31640406197277
1.48636734859152
1.33377719445451
1.48714266467892
1.3866856987601
1.32557880362402
1.23780233842347
1.36291079419087
1.23206341582832
1.65531476708515
1.29215986595688
1.4017061891493
1.3006028261763
1.50499915884012
1.43969511912479
1.33663599031044
1.37733807855616
1.71932068088915
1.32298553144021
1.51365613218595
1.41161892917409
1.61212854276799
1.37075800146197
1.53066564624764
1.40388267412431
1.63922553512359
1.35074911427496
1.65865412663557
1.29077058945931
1.49642121518032
1.35207607724501
1.47101494027435
1.48682423899101
1.5854709725904
1.30757257474479
1.62448803911181
1.60459371957099
1.54740473372783
1.38953400728134
1.50923765353072
1.39312268614562
1.53245949260789
1.37942924627009
1.51863628841565
1.44434698349102
1.35698758045151
1.30068161012233
1.46505705265715
1.39175366749843
1.75363751530002
1.30359718421764
1.63155970339656
1.45988701825575
1.58865005691155
1.50821839942173
1.85064309397741
1.48286565465771
1.52889356745967
1.33044262732847
1.8069613142575
1.77805580903865
1.52273607597304
1.43508527309594
1.59967148007457
1.60962024062351
1.75530352905146
1.37580789012889
1.65467594042386
1.45277370728141
1.60472150615391
1.44841325218253
1.62676470337761
1.49325259492327
1.5890269068629
1.3727345502845
1.63374165539732
1.48963959450615
1.50407310025972
1.3903613994816
1.53242197281305
1.49371919305252
1.68393477012713
1.42875166375555
1.48570556943838
1.49681085623032
1.63332723275473
1.45551862236776
1.47555674769911
1.51612609861287
1.6480149007451
1.48727194685775
1.63752158489401
1.49909738088148
1.64888138325929
1.43031730736208
1.39237015735924
1.55745262282849
1.49235789999596
1.39057424021411
1.64306387318073
1.49809101578354
1.65160572229758
1.50166073708423
1.53943072847301
1.3699375310753
1.58528582168013
1.55984006995386
1.5434555915784
1.58252238922625
1.74421552646073
1.36644542711546
1.50786569161342
1.54531317230286
1.52279569063797
1.41190097338093
1.56814913141567
1.50008025356192
1.56889613265676
1.43549014000826
1.37872049876137
1.48203595958855
1.73995080088127
1.73748211234818
1.66321744332606
1.52863827879525
1.47444640644082
1.37968311020267
1.49832526505088
1.48201186231852
1.71792326536471
1.46293836129351
1.41159205704274
1.60623670343085
1.69878354979126
1.52597669165
1.49022721184285
1.52539622805803
1.50425321379907
1.44011614971404
1.61980199532828
1.48619191919269
1.6218408406814
1.58777440799589
1.58675678270625
1.47858746767637
1.45810066148008
1.52938552747046
1.57506164183036
1.4502839136701
1.53095022433528
1.60265473566351
1.50402096850731
1.43377905982904
1.54856951573637
1.3746816298851
1.50416393695701
1.33805322697119
1.42113707482863
1.42348092492672
1.41392231794588
1.54910260667116
1.56207760074063
1.45514412989918
1.49148770963811
1.43791617729415
1.33787817831004
1.28785395108237
1.51160732341661
1.38341261386972
1.39620672984693
1.49033668126999
1.47738987267196
1.54591021156497
1.53594939059107
1.45197653641234
1.40602253214715
1.46951116345342
1.45994555422806
1.37401246761892
1.48203985639632
1.42989902097096
1.5215840255331
1.35628353294369
1.41302039851646
1.39303035285411
1.40929861773832
1.41078148220324
1.461280120913
1.3536265841139
1.44773043524775
1.39172210001487
1.41484356139494
1.50041436322084
1.47093309884453
1.42691074877871
1.41033117031501
1.37632399328089
1.29842913122876
1.26598118954786
1.30774918753473
1.31630999298418
1.41158005125876
1.29422360967777
1.34734276416748
1.3831113201531
1.31306043891637
1.34256346799023
1.4064083522608
1.27819776000699
1.24654251328655
1.34197097168845
1.32484147339018
1.25775412491087
1.33324663797143
1.2929659951322
1.34150496332628
1.31884190145457
1.38605009750607
1.34054079623377
1.23685426114505
1.25810712647759
1.26190619195242
1.23268171530931
1.23011352798625
1.23848017978868
1.23836592624013
1.21738053406038
1.23036021647589
1.187906676554
1.23182157496531
1.24384946166449
1.20261626490704
1.16124438193504
1.1783725177478
1.21949835214941
1.23274969803086
1.20270627305469
1.21437987772426
1.20612771822947
1.14236568754285
1.18064189192732
1.22392437710341
1.19611180612162
1.17884594920882
1.11480278740738
1.13552271756969
1.15743021535388
1.20980813578013
1.14058591827705
1.09444935069285
1.17831920774748
1.09253563185239
1.03974974270809
1.10344893722652
1.12327489870114
1.08108557599405
1.06588260165926
1.08017096730478
1.06648622143542
1.06214150402751
1.09771269224574
1.13199464375081
1.0618129451178
1.05839451571049
1.08105296919674
1.06545679517423
1.06371600737845
1.05094719758828
1.02154530577049
1.0369722263315
1.0353906442446
1.02258400551285
1.01390355439698
0.998788192536298
0.975019401168532
0.96650208126424
0.986221390244634
1.0147187444467
0.962260892830011
0.964694904758644
0.983273044137082
0.973280929447498
0.986743542603889
0.951222021169794
0.937430113789511
0.958776606463106
0.948788836869341
0.928085314852877
0.897844330077394
0.907221181070431
0.923119985799591
0.928827266814362
0.927496872683289
0.890742267449536
0.900310006147919
0.895665013296973
0.90188928839272
0.906046328143066
0.853860586338798
0.88110095066491
0.866279154441969
0.869037145938552
0.905281136966287
0.879454396123466
0.858404632660742
0.831598953902534
0.852874697493247
0.857667671212389
0.845175598816771
0.819109225791426
0.825155656424393
0.867228572271823
0.862289666283887
0.804097486874486
0.801478722550453
0.800920193799963
0.812759992680616
0.819295264048603
0.809002449193825
0.808794709781562
0.811263456596376
0.783954085830049
0.785587391109163
0.786334739176058
0.789713660203571
0.776512375154337
0.767949835714292
0.746997754981493
0.751427002236678
0.75609937935655
0.746763095122823
0.762567306088289
0.755974331450163
0.745184191751196
0.748934646170893
0.744210625838293
0.728100042183281
0.713624507190836
0.73071047093921
0.726615571381582
0.71963209059762
0.697205828902079
0.701734307605677
0.708046448357755
0.708014072012511
0.697252992852228
0.695348052097033
0.684787532711344
0.698355620267173
0.709036555112756
0.684495788502453
0.674934272277077
0.673693587186181
0.6668790656348
0.674062173066007
0.682670792699925
0.673526316622471
0.652837616355546
0.671308419042367
0.673002449737191
0.651939814370117
0.640249503872174
0.652435059851134
0.647324692848005
0.639617190588779
0.616510281453237
0.637044452723611
0.612948531622483
0.611707592898369
0.607306588453396
0.621281693453057
0.630451508704148
0.624652597571987
0.617968202620858
0.609646319922276
0.593870501499877
0.602309215818743
0.602228615095581
0.601831496969146
0.587781017197743
0.590870103861731
0.58530353223064
0.563999711470767
0.574061530129762
0.577736529048642
0.570803901881907
0.563712337136421
0.55427962258125
0.572947555144541
0.570835242157783
0.5676264411826
0.554087548277557
0.556416954262692
0.555316405930455
0.549711021536424
0.531290190424343
0.53767549707665
0.554033011455724
0.548181102702025
0.530689253494973
0.522425651979136
0.523480007832417
0.533029100971015
0.526528917376321
0.524855366575611
0.517310966260821
0.524634508844327
0.521407003680895
0.516327351273419
0.517727031665199
0.513424713816461
0.513962596774302
0.516460026215272
0.506358914505487
0.502689025429907
0.491685484163246
0.497363586334176
0.497539895637622
0.499096534437429
0.483768555793657
0.497549922345965
0.486529559008036
0.484867165768691
0.48624851002157
0.497107339921682
0.476208494198514
0.48443615542632
0.481376635492991
0.490035947126298
0.469282327059428
0.484240919594097
0.478017546537426
0.474764596740284
0.473735097512743
0.486690772282087
0.474568268176732
0.479533542838854
0.466835264909725
0.48235103003433
0.478913830559525
0.47847313573973
0.473344450504044
0.48425216146194
0.473883696757988
0.483244247653281
0.482074866315404
0.487464485925997
0.479331918462907
0.488488103441512
0.483014731177664
0.482989956767147
0.49282750580382
0.497233026660609
0.481535402239457
0.487363614903173
0.494461635958617
0.507482771846704
0.506538506369721
0.514851399065876
0.502442939187968
0.511283877723359
0.516897201838146
0.514931313139356
0.514104202524392
0.530796758735902
0.528364116789098
0.535081754139739
0.53288167833927
0.534261933755763
0.520040929633748
0.534492745361803
0.540441513295183
0.554391621761453
0.544048286667136
0.55859660990633
0.544343153116049
0.563114440736305
0.555467847743227
0.547363509500189
0.554179043822081
0.559759910342439
0.566249403783106
0.574090085005875
0.562876609823665
0.585963134502318
0.577793829694808
0.599099327019628
0.587065251561616
0.599062845324978
0.58925506432199
0.60552121555261
0.598766087947543
0.62140601646722
0.613600671242529
0.615976802907944
0.622641478788877
0.62355825055082
0.61755480562773
0.62843875728623
0.626970347311533
0.652666762336712
0.637591046898342
0.65663126782985
0.632486750587919
0.655844260353536
0.659747704474213
0.646609086766248
0.631920652277495
0.634779837139759
0.641380922978
0.670360123563986
0.65832201401558
0.655219452059421
0.652882210903017
0.656856643814634
0.629402323130205
0.64622537995131
0.637098318593909
0.631529124455645
0.632098836135825
0.649869507072518
0.634681364445337
0.672280660370701
0.636651437431713
0.657088793131237
0.624700363635263
0.652765101228953
0.633804166887407
0.65008090204654
0.624608920939762
0.649015307257583
0.63418982990708
0.643525194432005
0.647629476662448
0.645579407094606
0.641438603942288
0.651125193834703
0.635436577839404
0.649864703512543
0.638696888586531
0.648635409612472
0.646901783803796
0.644927861203692
0.636336012319909
0.649908364433941
0.635549578734662
0.647675745132564
0.643150950322403
0.650566019713404
0.644779546783587
0.650876681057133
0.631731415183607
0.664451136786318
0.631143459129975
0.633332866695744
0.63888207090976
0.661370436021396
0.610919280010832
0.627486102591376
0.62587972595402
0.631437094115212
0.632157179998558
0.631768650631117
0.637295253851839
0.632828428840566
0.607148015860372
0.629991329101628
0.619245527946566
0.626946301890709
0.608649086866759
0.605357039756938
0.603302005831994
0.614411122254741
0.576409589832515
0.595488426985661
0.576733547772786
0.595019749839079
0.584298711142952
0.580145106523651
0.564010442433582
0.572424293082875
0.559696159282548
0.562953450934531
0.551807459774938
0.552743825896321
0.542676438652412
0.539706941303578
0.538210020429895
0.533509244961767
0.521875966343978
0.537571389910369
0.51876836788885
0.526425376008681
0.506343516712158
0.504133867387188
0.505733357879347
0.506144073988377
0.492876790511959
0.494675010699559
0.48617720357882
0.487495673708875
0.484336193537003
0.493335188531193
0.481617093274238
0.495314235393928
0.473783542310936
0.472926846233152
0.460885505455317
0.467599825307455
0.461597239246926
0.460142516086825
0.456846103516003
0.461154518004192
0.444334563943179
0.460671182533346
0.437481625138126
0.454047998895591
0.445854098579357
0.44655998240147
0.434164884295194
0.442704639579756
0.424003655870534
0.438489856027579
0.433683479400205
0.448406665581917
0.427693005131578
0.426544135772594
0.42491981000274
0.435525822941516
0.410493049426575
0.423833382412867
0.412740135363376
0.425344146695093
0.401026756713318
0.410045201852262
0.412764428865851
0.410845250155094
0.415825015413708
0.410780034479056
0.401691694586442
0.414259050436662
0.401106721955952
0.4075863641615
0.398273203663673
0.398682429801309
0.396861671755172
0.40080046168479
0.395678873810656
0.390725290563679
0.38561342643837
0.394887593633131
0.387452738732616
0.389509214187228
0.377832148826808
0.390120420537332
0.386755793708817
0.389649886247877
0.382220576541535
0.388487578047631
0.375412833598003
0.385232912062046
0.373305830203936
0.37793042221584
0.37029034069582
0.377981016633372
0.364685867888328
0.371778248754587
0.365330342167883
0.379156311498936
0.357112276796144
0.372374804541596
0.363524225643334
0.367554508515548
0.354986740944158
0.367220180713343
0.355747172443202
0.367501803459224
0.353058366402778
0.366277748096976
0.354233782225323
0.357721107906747
0.355369193559073
0.36274357729472
0.353070509751242
0.36230045175458
0.354267783235797
0.358114231012642
0.347906824387678
0.361428120570874
0.353121234057182
0.353916336754285
0.344168780258902
0.349152999607266
0.342891115882498
0.351922463905057
0.344933349014901
0.350331667924257
0.345528647410078
0.345335555455564
0.338475653812099
0.347536679300189
0.339645722742522
0.350066521173469
0.33755907929317
0.342936423371227
0.336255890439284
0.341532269590842
0.33340410484384
0.345101364616529
0.333779197406478
0.338296383207925
0.333069295906982
0.337295424463518
0.332825484916683
0.346184085727863
0.333448191317699
0.333403883709068
0.332430957797166
0.338025264205441
0.324921464415616
0.335672827094131
0.332932862401636
0.33698920004099
0.323093677963491
0.336882493726321
0.328965771326394
0.337036583304644
0.328045519179478
0.3289687589738
0.329002078288084
0.332081549277683
0.322346729866519
0.323432483897985
0.317714414118984
0.329709510878544
0.320332975882051
0.335499560606197
0.316590628874318
0.324009902514582
0.316307615658222
0.318047299776745
0.312698446206992
0.324953980644547
0.321161231571045
0.322388014719884
0.311280085288315
0.31599653677976
0.320691429252999
0.319824070304718
0.30593993520031
0.324443665833906
0.308789277382207
0.314078624518024
0.300918552481153
0.314079467474676
0.305680916568831
0.306559746059599
0.3049841643971
0.312303926165139
0.300946356170166
0.315854945282458
0.305267460057229
0.305143003245052
0.297583748403271
0.309927099898365
0.299969915947952
0.304538832246777
0.296043784631428
0.31299671040013
0.289117337947321
0.301411162053163
0.29751318760307
0.301534795109869
0.292681922699676
0.304027713386848
0.29396071448215
0.296323557921118
0.284189749627271
0.294433893061553
0.290927125654038
0.296764171080517
0.287771972598084
0.293330035448483
0.284031336609205
0.288998551666246
0.283783877182559
0.28939522072195
0.278882652575589
0.284653887744848
0.279684675809024
0.282967109562767
0.277876916620405
0.282853744146825
0.275801359441235
0.281655302695859
0.270716348202909
0.278467276659078
0.269433578238244
0.281670261115893
0.272786162832035
0.273380318716578
0.266421426688303
0.272884001397071
0.260623246928351
0.266050831506926
0.260688103178506
0.268469842963312
0.255690275891793
0.262818906500071
0.257826182192422
0.266528685160314
0.259346713306865
0.260771644299134
0.256043715439838
0.25391052946982
0.252465142142949
0.261764286677418
0.248420479464738
0.255546939104949
0.251851312972152
0.254055055497563
0.24811357415002
0.250265195192206
0.244173309220404
0.251786299191523
0.240159415636246
0.248625889960765
0.238126349388432
0.242133437655985
0.242792533209492
0.245175482082584
0.229967611517957
0.24260568198137
0.242664430517138
0.237871715343878
0.228344408763309
0.240366726762452
0.235134388708259
0.231012815029291
0.227407557880227
0.235027387107543
0.227036116776556
0.239180674251901
0.227464883249169
0.235340990459351
0.222293475422363
0.23029316770857
0.220417898492329
0.228491968424254
0.221262339452402
0.227535929106012
0.224143958072668
0.229495944881757
0.221166893858515
0.220037069888941
0.219231213334386
0.218648771398305
0.214806407054918
0.218555275313614
0.215760903490202
0.219092818035454
0.213686016810534
0.220985140752563
0.213797973807983
0.218748849485684
0.210443391318839
0.216465452035785
0.21181944860041
0.212462438470453
0.205512300938671
0.216091957120977
0.208739231763578
0.213740257559554
0.203833972025779
0.21381723177123
0.205341124299016
0.211468936674832
0.204293220252179
0.208811968757614
0.20020991064342
0.207577156877451
0.206252397287974
0.201568214116079
0.195047065925689
0.200935766254406
0.198820412135754
0.204173290026028
0.198663342738476
0.203032962769587
0.19680289426057
0.203103606942853
0.195746843712644
0.204328310680478
0.196011049224351
0.20215304260031
0.198371919080563
0.200394922411183
0.196675881412998
0.19745904470738
0.191927392071396
0.200749217283867
0.197115637858252
0.196162420294282
0.185691029448257
0.196447242354712
0.192039757365612
0.195658898932475
0.189689596622708
0.191374112201991
0.18965600859933
0.19847686889102
0.191173058308335
0.190251725948157
0.186992607729756
0.193009030651444
0.182469645639428
0.194427531866189
0.1822506571528
0.187833972088867
0.185778203667083
0.187320841040221
0.188928418795704
0.186170268795443
0.183754565016847
0.187585391667975
0.177514670886986
0.182910993199913
0.181369553565361
0.187079250110045
0.180513258072642
0.183120188707596
0.17736654229938
0.183297556893927
0.176604365203234
0.180917128569883
0.176505735218668
0.181253863666468
0.17908366309829
0.182055766804495
0.175222391588332
0.1819927716656
0.176218989026734
0.176833592169981
0.177662325095096
0.182621119068334
0.172359734114165
0.181551301676424
0.175734440817846
0.179034163014386
0.171613062855752
0.176578259668788
0.173559972939613
0.17709022876378
0.169784051193031
0.177128278048865
0.169966524227655
0.172611716072486
0.166261686787719
0.173458557145006
0.165637397508285
0.173934177318822
0.170029044592404
0.173965521207312
0.167019180092533
0.167552271091222
0.166717443665112
0.173590830168521
0.165661681435649
0.172336525075631
0.164305135896026
0.166930892758139
0.162309217894508
0.164882168149965
0.159117187971545
0.166573027272423
0.159019632571272
0.166142546777778
0.160800615166547
0.163397489823618
0.156721602326292
0.162110386804208
0.157091212009304
0.160124315753991
0.152804331193122
0.164214857332814
0.158763320802894
0.158125962254998
0.154526751499563
0.158497795230087
0.15281385084151
0.156763829047046
0.149690970553198
0.156254291599875
0.147111723516312
0.154142046172378
0.149895366812215
0.153122574619161
0.145441566245612
0.151431372776725
0.142310568734011
0.147836670308566
0.144744384403975
0.147607949037857
0.144101161341169
0.151408970588084
0.142673239263481
0.144783669237715
0.143631109334146
0.144978786590023
0.141254065308521
0.148403038693114
0.141744825731799
0.140862681472759
0.138903178024765
0.143557855073741
0.137599103525972
0.138683131459194
0.136410174892887
0.140945753458541
0.136683052926005
0.142427627845539
0.132798472159336
0.135675652361144
0.134750178436522
0.138171264064337
0.132115746426517
0.137362993176309
0.131196463031755
0.13622841866254
0.130030533692623
0.135675362849323
0.129724514977959
0.133084916227356
0.126481170048699
0.12955775396454
0.127045968114673
0.128665983305931
0.125501999841264
0.13049062763297
0.129041046196943
0.13132153308566
0.119435386636449
0.127056085347888
0.1236565643067
0.123847348852911
0.123059686424432
0.127640179140741
0.115411959381538
0.127331812255208
0.120093302908681
0.122125411902737
0.120086540799388
0.121159375040465
0.118440971623662
0.124638809488599
0.119270732028221
0.119478074534163
0.116151370979578
0.118586819138623
0.115992461371034
0.119662979617834
0.11524880903699
0.120984894790624
0.113597667813724
0.115915675603893
0.11405225126487
0.117300392867134
0.11330443000774
0.116525113118343
0.110708182187739
0.11437679632298
0.110708261631724
0.111992131720675
0.107420383327349
0.115114615689171
0.108210672159911
0.111959865763412
0.106962054360281
0.112412882207678
0.108607981988441
0.11072188834442
0.107276317156942
0.112256620415517
0.106846889747896
0.113046063742092
0.106454607925607
0.111412004679043
0.105642775450506
0.110953837069754
0.10315342139678
0.109057443996378
0.106055515641498
0.111089912763314
0.106690176773927
0.107752643869181
0.105716392142667
0.109833257935879
0.10314149139311
0.106814091861996
0.104189852085878
0.107392289981595
0.0951959145883455
0.0998760207113844
0.0950681533768727
0.107404589260057
0.103476564355736
0.114460129405848
0.104023475190306
0.108914631875129
0.0968768282107601
0.102743146178036
0.0959430393846464
0.103519700823739
0.0976204125663006
0.10626665817712
0.0981171973357268
0.10788773643189
0.0897481317823049
0.105737435272808
0.0965403758931182
0.102148177516973
0.0943620443837576
0.0936684601617919
0.0973830480259485
0.107951419473101
0.0953189293691819
0.101896747049607
0.0992021902606781
0.100853981857664
0.0970966714145897
0.10920849156879
0.0936181203074565
0.106717956726057
0.100525255463962
0.10066782314544
0.0994718545493968
0.0992821942503344
0.094828424466003
0.0980657184356285
0.0920855588484105
0.0903724247172428
0.0950935083370095
0.0926845662287204
0.107664915539033
0.098263127223494
0.102936092065718
0.0854783012057582
0.100975583169579
0.0826474715278732
0.113207286545916
0.0835101466573886
0.112564695249003
0.0652102180638283
0.118381720906915
0.0735026166848661
0.119176731967425
0.0562068685161975
0.123889488421454
0.0689832535176459
0.121867483684981
0.0667094538704435
0.114838006057378
0.077000053191605
0.101335647980077
0.0868321931854867
0.0999285901769
0.0930346088697758
0.087725185454072
0.10006472275466
0.088192923483561
0.0997543725155487
0.0901199963662697
0.0964258680991185
0.0896757032700243
0.0965627253133134
0.0908601274129816
0.0898925974308286
0.0920386006412976
0.0880141339281081
0.0925834733474321
0.0913295314695083
0.0958586998314305
0.0924600130647404
0.0916250187119626
0.0959316336250842
0.0899147678661486
0.0907904783926898
0.090409221460275
0.0897354701168576
0.0925433134114429
0.0909657028076415
0.0921070853686699
0.094506190274473
0.0900654391301747
0.0896352168207216
0.0908618019668815
0.092934189142056
0.088159280983602
0.0937121257196204
0.0930518866524844
0.0911187186547558
0.0936919603415183
0.090466897026972
0.0934905896563314
0.0903931225542577
0.0906644485318402
0.0912263892881892
0.0915672658426357
0.0929746187334373
0.0930844027507813
0.0898247385239187
0.0886997119380436
0.0925012772188638
0.0917427460980799
0.0933276181138023
0.091165104141441
0.0903392369629189
0.0891996550369192
0.0913445513189376
0.0915695787486459
0.092259073499988
0.0917161234367149
0.0919082619124204
0.0899218345013414
0.092421799777587
0.0919387351062766
0.0930206137737207
0.0885033960454853
0.0919021984112331
0.0936231370233395
0.0941436249807227
0.0883771411649287
0.0940131465308718
0.0906035597602429
0.0938537807485998
0.0920571444043904
0.0930130015574096
0.0874489540659477
0.0917025908109179
0.0929615881166491
0.0926197849397153
0.0905698509509249
0.0922350796579615
0.0900685340334055
0.0922896147102679
0.0903441832804486
0.0921092315017936
0.0909999655221988
0.0959446888310041
0.0911792704637076
0.0945900758286494
0.0934416335478406
0.0927329113548633
0.0924084733563649
0.0959938664870324
0.0934785273701359
0.0933431838911305
0.0935419473005794
0.093565450222922
0.0906001104314522
0.0954706832016214
0.0944288613639239
0.0957078670864648
0.091913491795011
0.0932500739608492
0.0932179020915033
0.0931721009793253
0.0925471708014966
0.0924779211777212
0.0930946614302017
0.0950547839686464
0.094240737732038
0.0949040036711335
0.0925155266229831
0.0954324554036155
0.0909762307984759
0.0951536791397824
0.0946821549323284
0.0934154471232856
0.0948154340685459
0.0985455755252451
0.0945258403417432
0.0953256954334853
0.0973825687942822
0.100344353860133
0.0929879556663696
0.0972421847984841
0.0956473150886492
0.0977891962060323
0.0980313617122721
0.0969850161972744
0.0982422600195814
0.100310171499756
0.098504638403482
0.100103539317669
0.0994716510159343
0.0977797709308669
0.0991779268691864
0.0999922484673974
0.0987245076427653
0.100918124821953
0.0969186112982911
0.0989091529674112
0.0977711776265446
0.0983427307926787
0.100934388160909
0.102221777892013
0.0973529191573571
0.10045704042311
0.0956788885443833
0.0993827254758906
0.102230480013608
0.101878502012566
0.0970526685095696
0.100586113733824
0.10143222315218
0.103768894820834
0.10117650567627
0.101557852580421
0.10069038192791
0.101595931614099
0.0993775092216652
0.102523622795892
0.10121378155015
0.103334728234893
0.101291704168264
0.104063667723976
0.102630429472494
0.104524234002455
0.102267263064698
0.103072397070075
0.101546967866902
0.10441387908012
0.100054952976598
0.102368012139867
0.104832269889118
0.103808159464345
0.10175190591203
0.103013710113239
0.103630783185945
0.106500925524305
0.102111926253082
0.105110211655723
0.105396436444449
0.105013358939904
0.103707248712678
0.104119459921959
0.101718476922552
0.105155412332754
0.102949216819232
0.103139727843716
0.101835350322495
0.102039471241335
0.0982329302913509
0.101356188672966
0.100126625343942
0.100166909858703
0.099066750924119
0.100239994271826
0.10301463766746
0.0975975265459202
0.100317873140036
0.0995237037066882
0.0977742364148466
0.104464559166989
0.0994822167160359
0.100851177286638
0.100230865924676
0.098952074097037
0.10039440649627
0.101048995898255
0.0972050809555862
0.0996945278240948
0.0975818415568315
0.0984009363231281
0.0992931597745553
0.0999257439496388
0.0983563173393506
0.0973182883893762
0.101313019356786
0.0986069297381837
0.0980995858994752
0.0979390496512328
0.102474474355419
0.100125331277447
0.0979558912671484
0.0969530323871106
0.0972894363416719
0.0946900983882492
0.0943435323824205
0.098035841320819
0.0981495297123178
0.0997322903833093
0.0963599328230716
0.0970120017212153
0.096694322412959
0.0979817126802217
0.0979358059988457
0.0956779282368647
0.0969774637275436
0.0963592292100687
0.0940221618239353
0.0947411749042402
0.096569685039991
0.0956543794465987
0.0977317953638823
0.0964159026975883
0.0946834556293796
0.0964269126600365
0.0961014338532044
0.099048033468558
0.0946846478948873
0.0965740758308975
0.0926987104546151
0.0970590852834977
0.0941892501886565
0.0942896765681855
0.0960683490697358
0.0954461065697904
0.0964709386197604
0.0954581587384351
0.0960807187914782
0.0962152862789973
0.0931853145660315
0.0962167633022161
0.0923817728193333
0.0926630576423446
0.0934990272274575
0.0962781127495279
0.0926044076005073
0.0965652783854201
0.0949409735159818
0.0962563651514213
0.0930396095486242
0.0960722783316192
0.0944987068349386
0.0941150767322476
0.0932428424719186
0.0932255363511815
0.0907381824563464
0.0926632958397335
0.093836351301426
0.0940675046407126
0.0943996537927027
0.091728430909255
0.0945664294862933
0.093679157495515
0.0926415230158898
0.0950520884081861
0.0903129250198694
0.0917092384673953
0.0921628400838897
0.0925627367089821
0.0901594729651401
0.0892825644326201
0.0910142860902758
0.0944381496734106
0.0904493414147901
0.0908569055336826
0.0917720761185056
0.09081107558416
0.0891504766516128
0.0913686671462745
0.092771155231228
0.0884719043153156
0.0893922039137415
0.0894063190753053
0.0877864893958791
0.086940325537849
0.0872282401777397
0.0884798185003321
0.0888615081217352
0.0878269751497622
0.0851694558292691
0.0879399689894606
0.0856532882918391
0.0851486593052795
0.0844396946483155
0.0850292706949055
0.0836432783221336
0.0897007683314195
0.084721627032367
0.0893582325337122
0.0856890961001478
0.0845350046767453
0.0826953380081799
0.084559886854174
0.0865067222342869
0.0835060105767393
0.0841744525099396
0.0850850344895527
0.0835187567152752
0.0828810282134275
0.0818268717972785
0.0814986213374004
0.0815072432435212
0.0814136195301513
0.0798778997123083
0.0792549953663437
0.0799697215958753
0.0788458405019736
0.0785885790948349
0.0788562222915933
0.0812335837585572
0.0802194548859185
0.0785877500841388
0.0792854831997834
0.0766411250314334
0.0789402358393965
0.0823394868413355
0.0706411884998912
0.0800576054131498
0.0776327638278412
0.0790960244890859
0.0770235487971872
0.0784507377067918
0.0759172557845683
0.0789024638916751
0.0755516095281173
0.0779385958221281
0.0791729717642088
0.0794807172216398
0.0767177663094575
0.0765829477702801
0.0747777180510971
0.0771784747113562
0.0770906988564371
0.0747331467799123
0.0783740695146359
0.0759417294486393
0.0752624855876135
0.0745774785935368
0.0744317732673064
0.0767816258702172
0.0726318768686651
0.0760176608447035
0.0753886585111331
0.0778461678987228
0.0779912773910414
0.0761560097086836
0.0777973799094467
0.0752719710881217
0.0753006751666715
0.0720853842556502
0.0749364044487799
0.0750036013679683
0.0742479419264316
0.0724109748584311
0.0723407547185363
0.0773092452940632
0.0742565650830744
0.0732430935679708
0.0707364886121712
0.0717510798617256
0.0755947071331435
0.0732100902520848
0.0698939304644816
0.0710057389446938
0.072808827953274
0.071271266975783
0.0738231456013903
0.0683151317019728
0.0814238594354753
0.0730757650220501
0.0744091473384939
0.0712064409390153
0.0709721361809005
0.0689754936636237
0.0687716427700889
0.0727511296570014
0.072993077105238
0.068595144263072
0.0721159999449211
0.0694091652773036
0.0695053092511318
0.0699631338147594
0.0738653621258828
0.0675550448715085
0.0704816818298809
0.0672368471333044
0.0735254445284419
0.0732016834158318
0.0680300810871833
0.0753190507870682
0.0724820202160018
0.0652511621713471
0.0772853858157506
0.0657136541783837
0.0785575757255235
0.07630224064592
0.0612842949806158
0.0785921693570537
0.0674083130956251
0.0743293883724509
0.0675508599170954
0.0781923804854575
0.0631904230293913
0.0774731513234869
0.0685732758951556
0.0749355564870369
0.0707837095817392
0.0727694835291813
0.0696773125254282
0.0693182050073422
0.0710733373653207
0.072032694108605
0.0693910879696151
0.0693000574179236
0.0690299689579593
0.0712748762599983
0.0697975633277529
0.0688015634968582
0.0651976983320163
0.073665777877835
0.065438384645874
0.0734409250529933
0.0691727378969688
0.0742809000981768
0.0642581140933139
0.0820003558022388
0.0681574252578964
0.0737119169429228
0.0685114375499722
0.0687062093345947
0.0700608526123922
0.0698535641127459
0.070811833963345
0.0707366855298198
0.0681654550306934
0.0706670506123192
0.0699431577980361
0.0718432368517782
0.069418388096835
0.0684180881700985
0.0719640317739183
0.0663789321876523
0.0667669729609586
0.0667823479978533
0.0693259167977688
0.0706446982847246
0.0657739729332438
0.0804857272883871
0.070171053902756
0.0776228341250005
0.0666652784793633
0.0747361903041755
0.0634388930859083
0.0714617461367274
0.0645571138828384
0.0715808715512696
0.0682381081287831
0.0722457419166846
0.0694290661564708
0.0719344167554545
0.0706529830161947
0.0731452274052243
0.0685288837249855
0.0748945482508267
0.0689126338831478
0.0722319475262951
0.0653335594381601
0.0731508892835771
0.0693396579125478
0.0697957364453368
0.0765699756298512
0.0713766421452089
0.0732775023500216
0.0691898099473849
0.104033510928674
0.0597243022462079
0.0764343568184407
0.0688289376217272
0.0721408991456976
0.0724273972444635
0.0729469156410787
0.0732147389934097
0.0727314619772219
0.0698379628216434
0.0783124135078829
0.068798990948219
0.0765673744744166
0.0720454326187637
0.0726283085543578
0.0806933830742614
0.0768510462264817
0.0687482319618107
0.0786120502889881
0.0684271545854917
0.0858885643365865
0.0732320103794931
0.0747084649970814
0.0829799567604202
0.0718246485327884
0.0759071860159698
0.0735120123461161
0.0764131306316516
0.0705026746977985
0.0810370782862629
0.0743963811702947
0.0770996360201091
0.073086503721513
0.0770413284637558
0.080244390528684
0.0748812976288253
0.0823148770982702
0.0778754501168729
0.0741769554776969
0.0811343863229233
0.0702927878381488
0.0805525346391748
0.0773464733522716
0.0803279790089822
0.0766452303948531
0.0826384173866587
0.0779086015634744
0.0841725680211163
0.0856099743515652
0.0779240437554775
0.0765534381027562
0.0872322126846159
0.080029764173475
0.090766204891583
0.0712236112816566
0.11170831481402
0.0757146184194445
0.0899182354701712
0.0827766244158664
0.0812269475758525
0.0868784687971475
0.0780458494540286
0.0864759912980791
0.0829263124886968
0.0908622919336633
0.0712017907146077
0.0975614375465826
0.0726065399191173
0.10548445961126
0.0824476814404514
0.0917899559802475
0.0841451645601451
0.0883794834432552
0.0845266596460404
0.100090576867383
0.0824435461184184
0.0967281586792087
0.104740004699842
0.0908651270283638
0.100574267313161
0.0826834945128684
0.0971974572283778
0.113832072394043
0.0806063072975323
0.103122240163387
0.0851008135981767
0.100077939552831
0.0876582357541515
0.105795980732198
0.104873689778092
0.0904145798061569
0.100999815541175
0.0979173678995258
0.094009017246079
0.113559038371608
0.0944442450915181
0.105180523576722
0.0964936314209902
0.108598017375651
0.0967077240219335
0.145933715992927
0.0889514679004455
0.133686553409073
0.107780758302714
0.123218356512909
0.115424558516792
0.118016385548441
0.11502389018921
0.124202344241333
0.120319356949161
0.11652645906657
0.111463257541794
0.144269417979186
0.122475902459371
0.119101146075352
0.132913937861207
0.118339650049871
0.136226470734533
0.149642591783216
0.134867734423663
0.136103075532401
0.133685667226729
0.135188601071328
0.148812134472824
0.1334625460841
0.146038329822025
0.135070216090626
0.144113020197159
0.14326316037264
0.145502776198551
0.154745843086886
0.142378346666111
0.15493365777972
0.145847944072346
0.159019256098108
0.160685243347994
0.183555834654956
0.164027836182501
0.15517478078805
0.196418840813046
0.162790472126889
0.17246118212198
0.161356976945377
0.17325023313211
0.175526046441122
0.173461107283395
0.178786885055635
0.177570588500363
0.207553153928798
0.183133797938454
0.194712531329124
0.193396201000776
0.193017402131701
0.217302865684152
0.191311351944455
0.309640534307452
0.184639047419838
0.241463173590788
0.21779433395494
0.267318085301752
0.252867048815206
0.242285318502917
0.251241720544391
0.263564208054679
0.264804932637946
0.28826384044898
0.280074099210329
0.29695607615831
0.299921183913023
0.307883428119542
0.313963260282611
0.353464823844001
0.344781681326519
0.35364344815137
0.348862120844407
0.360623182312794
0.379663472899878
0.389255711460278
0.384200307709043
0.409864484488588
0.400905478982154
0.435699933588788
0.453103831400701
0.429403378621575
0.459235406721185
0.455635070630294
0.501179241832017
0.454244950315928
0.535892173159525
0.48776215952587
0.51561275152296
0.518390555611845
0.532769480801516
0.546959350378118
0.547307438196359
0.585746422513189
0.563427459052391
0.571746221909164
0.583118570876223
0.594545832215424
0.60309817413413
0.612031640405364
0.606883301398337
0.620924903208077
0.673702043102148
0.654624786848494
0.775132272925329
0.625788672931808
0.631077794587637
0.646770098472676
0.645931762307484
0.68158883189995
0.654826959225422
0.666902692195343
0.65243814391991
0.641852613214091
0.647502038755693
0.651656405281528
0.666156519216946
0.6453627582534
0.669300420114682
0.644631447535243
0.701380975509341
0.64419692445995
0.702276918359263
0.720520086121421
0.656689313724556
0.663082421678713
0.647663237663461
0.656294273299725
0.658183623166964
0.657237304937751
0.647107044674776
0.674139446987499
0.625958246146591
0.653470614674343
0.633335942287926
0.663434981590837
0.641374640253085
0.617738108341962
0.59743620334729
0.59918886532322
0.599698705520149
0.585052326133943
0.584467591896183
0.627629570296089
0.573888631390438
0.589893248578758
0.573932518080497
0.579629577731529
0.559610339222436
0.564770575751281
0.566589576369723
0.564454565722324
0.546592734467403
0.570284365348873
0.537987064949013
0.550040277509651
0.54111791331239
0.552142247273574
0.537660467833607
0.544715921248187
0.541455623745381
0.541840912626417
0.526228353519876
0.543094307057406
0.534240965968382
0.531800294850898
0.533578293431145
0.549794871319676
0.524675293873921
0.531631198581545
0.522599306975424
0.530201918970832
0.52348502588084
0.524053054718906
0.521482683705339
0.528540972673796
0.525023382235636
0.532684889096242
0.519886283982658
0.517954462335536
0.521181210770984
0.524167675119436
0.528635651520763
0.512812104187252
0.522064358931632
0.507954123303721
0.554428661572243
0.527591666763021
0.504396927734932
0.519591137727922
0.495842165612011
0.514744110308021
0.495383130347641
0.538983466008699
0.501018082856316
0.49329721822047
0.491840539951148
0.484341112479265
0.47468727052197
0.498769217064432
0.469752930082541
0.498293736484977
0.461388790364663
0.516235341472741
0.511306612828292
0.466675812903661
0.500990219308913
0.463195121630875
0.467910085058745
0.466261803237087
0.494562529700879
0.448467015357204
0.469628742162012
0.449272473651292
0.472356456419207
0.466326567424941
0.454419439052203
0.461335725920667
0.445805774797476
0.459602195451559
0.470454334375996
0.450359120474322
0.450431439532562
0.468238294236411
0.434569598356362
0.480609274058901
0.452718511452398
0.444610333319908
0.422039096264129
0.43168645849598
0.428979167769567
0.425844926554041
0.443861254176916
0.409873829917502
0.413103173608048
0.401131920649322
0.399411740397623
0.404147594190652
0.392824298606692
0.412606594974751
0.373435316278766
0.422550958442488
0.371588982178318
0.400892739597412
0.387436510691343
0.403683041348987
0.38720817537765
0.372733676961555
0.370121513205237
0.390611819427723
0.391642733633013
0.359310337186885
0.36978301067863
0.355254193609877
0.355305927359482
0.372410156099684
0.339809446230189
0.355653421227025
0.351770716401878
0.344432075162763
0.368253654803303
0.357702182364676
0.350140067986412
0.321525150364466
0.319645815662745
0.332983018401021
0.316029594588859
0.328098108827368
0.324120315420686
0.331331922291908
0.332130311259924
0.317315032274644
0.3524743869138
0.320553209019884
0.325962411689616
0.326220853888793
0.326527746298053
0.335741540108034
0.351285506701279
0.349503845439675
0.351394590281604
0.338576011312865
0.350975713447133
0.344181828787375
0.361768868046317
0.347652501396397
0.364671272235508
0.367821505691976
0.382270687321714
0.381123417656692
0.385313872316478
0.391790217208089
0.406626235672156
0.396546981969882
0.44090215792005
0.40727398795304
0.454148836911349
0.437044774930902
0.46375942233672
0.460131950486934
0.456303030559273
0.470962345274362
0.477446903103674
0.483827002295345
0.495637022871873
0.492981535878645
0.523554191048794
0.502330419679975
0.523486171527672
0.521423329772078
0.528316126089958
0.531020992824514
0.553509829076551
0.556828389629934
0.571414161880869
0.581437052509464
0.545023040701149
0.564682393642494
0.549367075477598
0.574161162541657
0.572164384134139
0.57089675978174
0.583173711564934
0.56617495077522
0.586636580820942
0.584190410992092
0.586283348617863
0.59938604148446
0.587849332460993
0.594745342710742
0.597070492362597
0.606010425131329
0.611953077257514
0.607561339721569
0.622815409378487
0.622217801221364
0.662586788399638
0.631214604989484
0.629508868000075
0.652981159295524
0.641514437201341
0.654867210422366
0.642521351978526
0.651422354012344
0.661290793903473
0.657390722360631
0.67875066155337
0.679351242652393
0.692484296535582
0.675575439821622
0.698219639699779
0.692312619987814
0.68841905539103
0.702618833579048
0.695922198639953
0.76058299287581
0.70624560463975
0.728129280199546
0.715930096801229
0.726040480187664
0.712699751507346
0.727629344172791
0.719810520004005
0.730048813466361
0.731595793767498
0.727560364181622
0.733928732019958
0.731210538510257
0.73410665446294
0.730861970347638
0.737232012343758
0.737820715190597
0.729959206626864
0.742130992990959
0.7381045329423
0.732049567411346
0.735402663273735
0.74575538452748
0.72514181085236
0.743163555086072
0.73115992891396
0.748814267913391
0.744282783253093
0.73426463948905
0.737464272740747
0.740842043152559
0.73318654048339
0.754019678478332
0.725996410811386
0.751994440144369
0.739364650265849
0.747163387979432
0.743734675456926
0.750743961652631
0.752835114019887
0.758232173888036
0.754353584372695
0.770098965775249
0.758966429582609
0.762248501353533
0.767486641076934
0.766373203203541
0.768504423320407
0.765263400598213
0.775707975574326
0.779278350947321
0.763324083034098
0.761079178958268
0.757123672145216
0.764019474995383
0.748558878044441
0.751880744129978
0.743247301055169
0.724792527943995
0.713435520828141
0.756769840536233
0.717711629846943
0.708690244939241
0.714116337970531
0.694427823414179
0.704044824412648
0.695925821151561
0.695035909707754
0.69098259412944
0.692203154263654
0.673163640191635
0.675215974959731
0.674987512395115
0.664314088125288
0.669834198759976
0.673527598281978
0.667189180542998
0.663869207203697
0.668277825458303
0.665738265251062
0.662910894790418
0.658460680368282
0.665356408110068
0.664646424503486
0.657098803061801
0.666120764581434
0.659840692946932
0.663971473055777
0.657058219086403
0.664541023962458
0.651597578991836
0.657759651018761
0.656853897117248
0.658608082120931
0.656703408783634
0.659910168348772
0.662770521725501
0.65335110391677
0.649563348391534
0.650433696647955
0.650461945502546
0.64680898753995
0.649925709960508
0.658789348023905
0.650249116628255
0.64828485880172
0.656045485889185
0.646672636371223
0.659550359380173
0.657650709218652
0.652431655327956
0.64959003644425
0.661660249138386
0.663651435784382
0.656369820986352
0.644652901928437
0.65132284069462
0.65276955931295
0.646503226633339
0.649038117660344
0.652130877910553
0.652197180490869
0.650846335620014
0.646195704065711
0.643971940704275
0.641170344926247
0.643808911756152
0.628667852513484
0.628573711885672
0.619109928872109
0.621814570835882
0.622975394693451
0.614121256630292
0.606456761250689
0.604747139169734
0.598563079149057
0.590616024323039
0.585326645570886
0.591235706715374
0.587300922128272
0.577141758939048
0.57678020884953
0.580652999163372
0.579726059307186
0.576087097816966
0.572046846840388
0.578717303541645
0.57267075475257
0.569528863095999
0.572938218007167
0.571898170367613
0.568691441941096
0.571099178406501
0.569749532991743
0.56915488269957
0.570481243917117
0.577548174721781
0.579420381309654
0.583486698793427
0.58089009823565
0.580798838440471
0.583773965672007
0.586394123717492
0.589097148823141
0.59627841508303
0.595164378241635
0.60393434511384
0.603190198222852
0.595322065094479
0.603011679112438
0.608831995202414
0.609881917195326
0.603258513572459
0.603467218013023
0.609303501269463
0.612804510177576
0.608697558980336
0.60854757314108
0.604917734953444
0.600793227737138
0.598048478602858
0.604032710635913
0.59564982772679
0.590469734263768
0.597716255171397
0.596327846907197
0.595946215997402
0.592102475397539
0.589880840431375
0.589616245045222
0.581112387485518
0.579450903530026
0.583382572429762
0.576585273086473
0.577443907572236
0.577158064956257
0.572668565529643
0.56706941269786
0.567571245251857
0.563401193707511
0.568990906846198
0.572175694351294
0.568220509244142
0.56384416643086
0.560957605261257
0.558596080571907
0.559263048099649
0.558989901730037
0.558371410959593
0.554057957750403
0.553688878100892
0.552945095181703
0.545658209284872
0.541409991412153
0.53821222445512
0.536254210556545
0.535525005465691
0.533626739986415
0.528851756588268
0.524354929465361
0.523355480390354
0.517448449562894
0.514626852061756
0.508452203998779
0.506507129170098
0.501811167417449
0.4985548380156
0.492837663644997
0.495604380178116
0.490652789594906
0.493239074213479
0.49075701331086
0.489720273641929
0.488315900581975
0.485689657056962
0.486166775408759
0.483615257007809
0.477812087690757
0.476415366799392
0.473130069980391
0.472899607563875
0.466583790825451
0.462529683227913
0.456705683618876
0.451118917297449
0.442222802861432
0.436454399745084
0.435158232974052
0.432752536025118
0.428544531267992
0.427725654975797
0.42939357977929
0.430454258215919
0.436671258851275
0.44266148358116
0.453000098440397
0.462303133246454
0.471323101123706
0.487556011369176
0.49857713676466
0.515517587700934
0.532045915372902
0.552796712675398
0.5714913842553
0.589599033315869
0.610966257156809
0.634168186140227
0.646366957185605
0.671923694995086
0.689494491411653
0.713658173071855
0.729009070574935
0.746317422913132
0.768044040351767
0.775895652713312
0.799596638344695
0.813030449795009
0.820096465410336
0.842149104334898
0.851928982508975
0.859463229707367
0.872091460053035
0.877935541886272
0.893624088504415
0.905375984944039
0.9243058122729
0.92949759866083
0.92210040328387
0.941156648656542
0.935627099103375
0.930788929098281
0.927463724066561
0.93352046429613
0.93153897088912
0.942834593963381
0.945804448257792
0.954835905055361
0.944248746540728
0.940626250441225
0.954720051543922
0.951103298010104
0.955876247791185
0.959567982459627
0.957625456353125
0.983122553276467
0.999988217019047
0.990955659577279
1.00395676668761
1.00892566846783
1.01203730738007
1.02082743018366
1.03375560214005
1.0283573952302
1.05163255349119
1.06507975752591
1.09109177612399
1.10663461395645
1.11302147703644
1.11826336723904
1.13643213107155
1.1671205640916
1.17344239797994
1.18070639407771
1.20412183943149
1.19805734157946
1.18629638737348
1.21728025480181
1.19954535688597
1.19794927114729
1.20457858613847
1.20077049454768
1.18107513457038
1.19749682204499
1.18982206552641
1.18148756239189
1.19389882612834
1.18538193333868
1.20455484486663
1.21459311313213
1.19649481128651
1.21906723042751
1.22540040444471
1.25242991228322
1.25139433295602
1.27187094219154
1.29791829777981
1.33027787899862
1.34167182617589
1.3612430456684
1.36750909293049
1.4260786513379
1.39544852513245
1.47643503171191
1.45018079320811
1.42677433420248
1.51064524728548
1.55239795164778
1.52949246624569
1.57840880783618
1.52345124108378
1.64499297994947
1.5953963381289
1.69208106678101
1.63949584427443
1.67684596545934
1.77528736750498
1.81266509391132
1.8166914164296
1.98557201271739
1.76874947882228
1.79301823802701
1.8866663246082
2.05355006147861
1.87594491920109
1.9757394536943
1.97080609703177
1.93497827636045
1.99080013096078
1.95073524103326
1.98427503357626
2.0912038912269
1.97895635066189
2.01841163119639
2.12548199613219
1.89911657672809
2.02542407724249
2.01815000333382
1.8534905822351
1.9728247691604
1.96111398323477
2.18408352088333
2.013691607707
1.96624755444399
1.92980217128058
2.00409281287692
1.90498283039474
2.32884719086179
2.11146322073936
1.96762106351036
2.05827101342602
2.15646934064665
2.14026065322308
2.11455038029748
2.33355165182053
2.27241913267454
2.23450706802365
2.11369763038708
2.11197100522865
2.81439056135951
2.24120911789884
2.08054986440516
2.6588808233965
2.98755258547993
1.92249508512916
2.08012691792039
2.21095760457604
2.26196024325179
2.49509870172409
2.64482567287009
2.18212758003913
2.45953600284508
2.69238748229313
5
2.20774973575001
2.55709340338202
2.56568197609998
2.16257791895481
2.00673736655731
5
2.33766555810034
3.54014690629585
2.21373635535359
2.11635419882184
2.20852968598352
2.22371508059551
2.19173193603856
1.92301717167529
1.93509074495244
2.58906952532275
2.02322821552142
2.25418025201036
2.08780423747239
2.08692729144286
1.84085149832332
1.90255881088941
1.67436050387683
1.66834675601954
1.71221842228025
1.68502589838877
1.56992680046609
1.64140771021968
1.65016245909111
1.62325075388024
1.52556744293574
1.60422966351286
1.57386170963738
1.62787792206071
1.57190708281682
1.59883949028064
1.46822110128039
1.46288513179151
1.46106234565417
1.43922567583768
1.40777139922829
1.37179133225459
1.36220213940095
1.37190580987523
1.3023870628464
1.347895403754
1.27960017018447
1.23197946871794
1.19140885413568
1.14582702659704
1.1121194528346
1.05747655509101
1.01087088598225
0.977393226989305
0.919610233919974
0.892964150839337
0.838713607331345
0.805767247449108
0.781304771896449
0.750523776685147
0.723832743200804
0.704439401524621
0.672891856323621
0.665384386619623
0.629407886039654
0.615953508095413
0.590828160943118
0.58142248083083
0.576103570563142
0.564976610396713
0.551134619034479
0.553562798781426
0.539500730952896
0.541479447698187
0.543643725870439
0.541040510472895
0.528500721660113
0.540181164422444
0.540584147175747
0.533472096474957
0.536866281003617
0.556949022724183
0.540851768910603
0.543983153990308
0.544410113376656
0.540279838194766
0.54735317555716
0.545502610087286
0.534429401695328
0.535009976717956
0.524441538911564
0.520179865143254
0.517741507972489
0.518005509906828
0.501271761769176
0.508438788432376
0.499802900776996
0.501196088898869
0.494440509627554
0.495214001559353
0.493489371585061
0.505229117726213
0.488074359908064
0.499923681307658
0.496674120619208
0.514011268076858
0.508609060437886
0.521794490263637
0.516253225593025
0.522992395063265
0.535354750184183
0.534428924068763
0.537395819124463
0.538127339122785
0.548508762694045
0.559057224991589
0.565559460934753
0.568591662228988
0.558604066502386
0.561101285216987
0.544969146365149
0.561866287834589
0.562305065722696
0.571200473648544
0.560016875133449
0.574280237101832
0.566722898726323
0.58422193710915
0.577927652556169
0.601902824822605
0.607293530403694
0.617971006787153
0.624267229529089
0.653168989622661
0.649463425313037
0.694961595150011
0.674038550533982
0.715623717868744
0.735101007196896
0.741270418626226
0.754085969073065
0.738508707361274
0.776916556717048
0.755518061616734
0.756936196458858
0.764809040654702
0.736916356924838
0.73140174349279
0.712152051570647
0.7201351967003
0.691956812775014
0.696146002080419
0.67042178932935
0.693970623068226
0.665852531616033
0.668538410890418
0.668892598283801
0.695908373067256
0.667940180910538
0.691180938821208
0.68284435369299
0.693847090768672
0.655039307402495
0.670314944255411
0.66332187905843
0.650634687012114
0.650679006014988
0.658710634775801
0.633263823035645
0.625424472699759
0.622613911591424
0.628150370321585
0.612436496857466
0.599735869958459
0.60333766875732
0.612519960276164
0.597006123667136
0.594749832606607
0.592543424330599
0.603566157242956
0.567871633972749
0.605666854644983
0.579777004995549
0.57953853952984
0.563675162843287
0.574735026240709
0.545800262203228
0.547913401675107
0.552386988919682
0.557328621723421
0.561665194026197
0.553036701377724
0.551123070466649
0.575260504135399
0.553391782898908
0.534554621656565
0.545558856446998
0.535235928908612
0.532586157438915
0.546939646740042
0.528015956042929
0.51518041255104
0.536419617643654
0.53327886845363
0.510464406906299
0.532183471272816
0.510888310245461
0.514556109090892
0.525633593233858
0.527736454445826
0.490643817299451
0.526101992052618
0.519876194779537
0.516527949246452
0.531403426422828
0.516703396743934
0.520292144092118
0.543651766796546
0.513719433865247
0.544828104595364
0.542285517852365
0.528665144072978
0.536402876238794
0.540296807063378
0.535568074147007
0.575448470445614
0.546249809506551
0.548826505849343
0.551373290911806
0.559935438402274
0.556051960418966
0.561408409150788
0.552552355712154
0.58185784394577
0.570284943553348
0.584894472972882
0.584967162610461
0.596094688342406
0.609198940019365
0.653318934627536
0.613083497841765
0.626071940029765
0.61512783848787
0.670207912859481
0.622717429480827
0.730567773561721
0.690215160039076
0.730725390778781
0.698917154315435
0.771686343874066
0.788449930711789
0.806060471613157
0.825564932896716
0.862754248962756
0.794249866242524
0.917170678425496
0.87208996348679
0.916377216147261
0.912296426521739
0.867677910727475
0.890762274696813
0.916919575497109
0.904745256136975
0.90102421005516
0.868793983063191
0.924941703047034
0.889513521931914
0.887323764812418
0.867538327110929
0.969207107156444
0.850957564329324
0.87844734335136
0.876708021802603
0.944140756838781
0.877399719279413
0.968086455073942
0.862226174237272
0.88334541015078
0.861978587751669
0.868426242365663
0.818342001790866
0.854844010877365
0.835639192814694
0.851779751241545
0.841514136146767
0.771100034500366
0.80902215919706
0.855701303064019
0.80853332747903
0.808937116897061
0.804402076559153
0.873645583621122
0.828174130164975
0.743100602444686
0.720131003852681
0.773232018837247
0.784467983357316
0.965534542572689
0.725144314796817
0.828688334511116
0.779431723211309
0.780589071353327
0.757600954677583
0.838393292906741
0.79762201670514
0.817380014162778
0.768786143947726
0.825598697518618
0.764257612228474
0.902939720143721
0.786718662338056
0.835995626098632
0.845794590425474
0.884268811430459
0.868133173150076
0.84181595306417
0.818304114920894
0.932456184735678
0.806335967099476
0.880472642374393
0.785330497560557
0.918550193414349
0.871973701314076
1.06935811742369
0.892163938861833
0.956150183773234
0.916298196649997
0.864825910448636
0.829868196147062
1.27264615546193
0.971104402227643
1.11099946824756
0.908606776533852
0.946244603549684
0.844065984278809
1.08667818669448
0.995985561293332
0.939651409397554
0.994662197531577
1.14170339539181
1.0739397688005
1.48304411015232
1.24306673114405
1.27517465026221
1.01975199724121
1.38458631709013
1.17225469942659
1.36663770370934
0.957004983298655
1.15525668694992
1.31086465619882
5
1.03878130914325
1.06665297633359
0.849353975751616
1.36180797089914
0.95438986095567
1.31015862383854
0.939232921328299
1.1319620237207
0.965130977778363
1.40425341312562
0.789946334673909
1.66764105647793
1.02510811132541
1.19723380258835
0.903853845970976
0.946309906273403
2.95113045181434
5
1.21126052810227
1.45605469481029
1.23131956490483
1.03947472753156
0.99365008145279
1.03319678538525
0.940160995968798
1.43113835601983
2.24015320309124
1.15966343143595
0.898546433611271
0.834679770419476
1.2279076695478
0.86368896314598
0.878378177202345
1.06628196430029
0.822220065166653
1.20269634667031
1.85433633803073
0.728569034260995
0.817891022980352
0.994421900023615
1.9120415927362
5
1.73795380057315
0.439514866840008
1.94564030371111
5
0.790484321380456
5
0.887174239918704
5
0.951235250341331
