3596
4000.36533379555
650.420452594757
1
2
2
0.0405039313457051
0.0474677395793703
0.0396832412194862
0.048369127307504
0.0401919490406422
0.0410952041598252
0.0386103897113482
0.0359483181863162
0.0448563254983126
0.0474895790906915
0.0412560923626422
0.0365865657146829
0.0356477215956147
0.0330332496248976
0.0447632935725367
0.0449504661926496
0.0468967748447922
0.0397363096005993
0.038082010617829
0.0465906777864252
0.0425087482903046
0.0404025499365651
0.0435851833351144
0.0507379446982532
0.0448572640134728
0.0369763175529364
0.0384720080310991
0.0449123140930803
0.0454398067481796
0.0504904100651877
0.0450228043931798
0.052644162109381
0.0413992588536102
0.0379666912306256
0.0343456233726669
0.051830875932926
0.0525883561903246
0.0368926324751152
0.0361858667492277
0.0403588346750011
0.0380131756716859
0.0421857611770529
0.0435354824466251
0.0422481960161627
0.0347827054471801
0.0321447024819166
0.0344452135612926
0.0463773696321975
0.0348765576531713
0.0336860665986053
0.0355959899483465
0.0522119724021639
0.0464003253948458
0.0405561125239676
0.0463229773129418
0.0380170875471305
0.0372095277837395
0.0421281413335233
0.0422901537769811
0.0548412583818355
0.0544431336934819
0.0337057380849441
0.0404683016793672
0.0258975500533398
0.0432666453023691
0.0438087389907301
0.0424065618488223
0.0355942945108354
0.0490840249654685
0.0360436057920215
0.0406147975365005
0.044277261023308
0.0341789499189226
0.0441825487162342
0.0412705892551991
0.0396201795622783
0.0426203084566814
0.0278832352806215
0.048209262203583
0.0388409876877663
0.0387732257624282
0.0402615260158796
0.0352035807326692
0.0426223019251298
0.0579374204403171
0.0235107737637593
0.0435791210117711
0.0399520395991002
0.0329121305445566
0.0346420695419478
0.0371196185253735
0.0388824738655424
0.0404009776816168
0.0314627492839218
0.0430903690509346
0.0315427333661445
0.0399894771256903
0.0310225054916822
0.0285797016846232
0.04694704088704
0.0330144442990757
0.063991448172821
0.00927799496527853
0.0538804205679272
0.0508785544566948
0.03552491273422
0.0724466938097606
0.0221182142172834
0.0474486798480998
0.0342972974517765
0.0451840451500715
0.0303306586460962
0.0456021989846496
0.0316757408748376
0.049571678105622
0.0515959326342327
0.0357624882202155
0.0305924362364578
0.0323039294438171
0.0279708911667302
0.0367614636628819
0.058956528653134
0.0138080004267786
0.0509830620560709
0.0300598746656888
0.0333889385360297
0.0597082720166899
0.0246402942628264
0.0279184183845486
0.0433592609418028
0.0350928175719457
0.0418911091486966
0.027603364691159
0.0619825723089921
0.0202647366465602
0.0285303544208206
0.0345936376351526
0.0527091760711117
0.0726578764549169
0.021953656689778
0.0426770954805005
0.0281715379033363
0.0325445914765523
0.0414032410661639
0.0387981339960855
0.0323448218858198
0.0437763271357266
0.0368743132478393
0.027381152449397
0.0392103501375155
0.0331266609789595
0.0416098170621914
0.0365038430851358
0.0345221845202188
0.0556505229985012
0.0716472700098756
0.00255187784961313
0.0856394937892104
0.0223297061761432
0.0327758680230514
0.0306357157324776
0.0354973442455958
0.0295374190434035
0.0371002747170751
0.0382333075669302
0.0377408398761015
0.061736459438171
0.0201670368703736
0.0348680929260943
0.0426370069358115
0.0430086238594702
0.0172599343922676
0.0642179579903525
0.0181417854590344
0.0191295583888781
0.0485974811399992
0.0330019996334829
0.0312321516970683
0.0286814333517164
0.0582832542440434
0.0249276930727663
0.0349961823653112
0.0264926516395497
0.0330035541899649
0.0421861852753995
0.0345592375988408
0.0273203371597028
0.0417035529081529
0.0317390571679229
0.0544868678248296
0.0565822837127975
0.058298504798081
0.0247080926291944
0.0411577579690245
0.0202960956485206
0.0588137467933867
0.052631058240377
0.0192661444381554
0.0394118312799854
0.033174410721315
0.0335973393004666
0.0341648144226387
0.0268467160796754
0.0360440581258655
0.0312431723548432
0.0575615320019471
0.0412012523160545
0.0188095189515773
0.0390370650235765
0.0394424605721812
0.0388330821955818
0.0581305153834068
0.0495187623875334
0.0217111078245432
0.0418910768324406
0.0310234612085585
0.0418312291863127
0.028201230894492
0.0400694975024021
0.0285656620045896
0.0347723941742913
0.0353945541283507
0.0363656086996043
0.0300595854477969
0.040669769496777
0.0320961751305286
0.0402070818322145
0.0393362931273386
0.0347462234183867
0.0366272637355413
0.0395712476690549
0.0279685848680389
0.0422743641373965
0.0315279991224556
0.0369548231011746
0.0484805147776297
0.034064636740065
0.0311276537585596
0.0368423204139079
0.0340789404298404
0.034215579196285
0.0359240853512467
0.0308901190209474
0.0411428225402552
0.0251475045804239
0.0569359755867136
0.0448525189360986
0.0295674855873336
0.0396823763420929
0.0360193297130424
0.0594434031321395
0.0156408436065781
0.0462736454436822
0.0336819006244211
0.0498230628177326
0.0250278602706267
0.0612726380916873
0.0259278244665298
0.0351708551904371
0.0382088460705329
0.0586730228983266
0.0160431535545795
0.0485839076493564
0.0309708353233093
0.0731535925791311
0.0348729691173296
0.0298298427664243
0.0740314016951459
0.0466560183579451
0.020684892717741
0.0547575951069586
0.0251873112701384
0.0987004871136819
0.043580582679336
0.0275553837010992
0.0338729817525372
0.0513945339328907
0.0307502999961002
0.0393862663104899
0.0467936518277461
0.0382327701527726
0.0656200926998066
0.026588112283147
0.0665968415358354
0.0456434081302268
0.0347129147027934
0.0799339324380535
0.0102374447884995
0.0448825370254399
0.0284092398190527
0.0500657817569838
0.0373388734402781
0.060016352497191
0.0295685649068708
0.0595097187893801
0.0257168822870011
0.058304132257411
0.0367015778986951
0.0483747172196602
0.0314479631836082
0.05758223937716
0.0236301453217852
0.0486771328880274
0.0402265590736656
0.0599693579740427
0.0446412238442394
0.0481556823097711
0.0664727430463296
0.0585284399133075
0.0304815312335619
0.0684451723402005
0.0382030799319139
0.0426325948476824
0.0399686213188004
0.0501263735491345
0.0405147660332107
0.0489138868682479
0.0343843294282604
0.0648658549048025
0.0498241253423209
0.0445542036875222
0.0443260921876588
0.0465449271094714
0.0485687561943123
0.0542575982867919
0.0468871212863215
0.0578013350694542
0.0462094797741945
0.0532185751600538
0.0436644853434624
0.096931865645279
0.0442530276883659
0.0609807230567325
0.0815862210606796
0.0493183376947166
0.0399900352726508
0.0462183407874321
0.0551249640661251
0.0571072152607632
0.0515457354910668
0.0676877027943894
0.0595621819102401
0.0741249270368357
0.0637426247657053
0.0713485501595104
0.0708319239449769
0.0984044695393994
0.0977761828726961
0.068465144588455
0.0551387134483244
0.0728865012408848
0.0621629067221704
0.130134260325578
0.0490102637387844
0.0926430614074956
0.0518350427125813
0.0854369173732347
0.0664687502393952
0.0799319325516405
0.0764508808917946
0.0855677494022298
0.0736778785657335
0.0869091894443215
0.0871756684653216
0.0995314738986278
0.0936724610973913
0.0933886468535725
0.118700439379319
0.102108111594224
0.0835447688964411
0.108699795027814
0.0975334817834175
0.11394591837475
0.129990597993458
0.109929287669148
0.13964985723608
0.0952058527329317
0.13052884758256
0.1082652978293
0.102218875659278
0.12315852796716
0.10662093920609
0.136358216615655
0.114393666450618
0.132218209987248
0.136579200470433
0.130674605788379
0.13026102730943
0.131909461484272
0.13066403176294
0.139608256380376
0.136147974537169
0.148764667343615
0.138669008539524
0.157802426523198
0.14530476402449
0.212478302940697
0.152958127489888
0.160910288833951
0.134004313550397
0.173846530410876
0.145947170201725
0.184237797317346
0.147915113657307
0.185289296136144
0.177287739561609
0.203440083973408
0.181535044006437
0.203699099012439
0.190932055238604
0.192348132831359
0.169493916770315
0.202174483155775
0.178561493969788
0.233977661213272
0.179477493238777
0.224317893317241
0.20608282993482
0.256008521293396
0.202981923458371
0.257424046826438
0.210798747193796
0.225546120519491
0.221259861747725
0.228705779354376
0.227774464958088
0.252048275042387
0.238669445483645
0.247981620252305
0.237646042666251
0.261911319887005
0.233816545756912
0.269291523313891
0.257333814883036
0.278464206337294
0.263953327264339
0.28655675647558
0.249392855641036
0.298408385183145
0.254013155939757
0.321666866189416
0.26903195455955
0.326359570513923
0.273085141416606
0.296540562410837
0.27349781843732
0.31514408997071
0.286301533355172
0.323761459812239
0.304731510532177
0.329506575518938
0.321049793887886
0.340018181029014
0.323283953926737
0.342533029529707
0.333107802807033
0.353226419965783
0.32301784148587
0.377824679552292
0.32645060619073
0.372432819614626
0.358590535362871
0.433871985194592
0.351330953067265
0.423213137853281
0.377926149048328
0.380393492306892
0.35941630254077
0.423471128928353
0.373202459953542
0.407444806754536
0.406034705800552
0.418969616131852
0.389523973195943
0.43752629333877
0.405738701018499
0.440372856958575
0.422800825968613
0.426749275858463
0.446982603147942
0.465639550824056
0.441253758557392
0.465078717929939
0.468705413177482
0.489364802695047
0.430520296624011
0.473585497345338
0.451841917825405
0.501979156917913
0.463146605604229
0.484996698237513
0.45863435969305
0.519587242766401
0.484771281441796
0.521265083071681
0.483797326899895
0.550031917763486
0.52179460583069
0.582396888833844
0.494811375187634
0.549909569591413
0.506490062027689
0.591257843465472
0.576036713880524
0.596653071721455
0.530259970663604
0.602356942013276
0.535567703584644
0.618098104979898
0.552929359615722
0.602158334968777
0.565555783335338
0.603049447233367
0.57485980403797
0.641592489382417
0.583057068039499
0.670576922189158
0.641472925475575
0.656926210953722
0.628330865031465
0.637977937155082
0.610111068811255
0.664554630203993
0.641562625007226
0.685387499860481
0.622088323017857
0.713727563437538
0.657099855930907
0.709652064015261
0.611269105112692
0.706644415391301
0.647166242727105
0.712996074400031
0.713597209212486
0.744552726759944
0.650746496944064
0.757391490988488
0.680660083680364
0.786028323380196
0.698190632570252
0.779348328553906
0.727425431458478
0.814783438157447
0.740733341369654
0.813186381196408
0.741459588208844
0.802444126114487
0.753564453411629
0.783938284088784
0.72201054886127
0.885787959407011
0.746191721147559
0.820032729586579
0.801548981043739
0.876788600229229
0.782551628178693
0.839067219341341
0.809282108578042
0.898592991546382
0.815177196480888
0.915463219757249
0.832434591613149
0.912064732149923
0.877614359287779
0.886858379050957
0.804875662534796
0.918017265307318
0.846593070745978
0.889493334601501
0.894206659559762
0.926800843724384
0.916561406405666
0.986572949308192
0.838399783242713
0.979384945731477
0.84908048239489
0.945810732879624
0.884065372693341
1.03832888859359
0.89976795343851
0.979201592371508
0.953646263688993
0.942955336606075
0.914336590108186
1.09304068520505
0.901612495031833
1.01774147598972
0.953710768825507
0.970459758506604
0.942415602792002
1.00973719870885
0.897884116781486
1.0569262099293
0.97423206479507
1.15343084779519
0.980426406768464
1.14239147440035
1.03107772211303
1.06736019354364
0.996679297492946
1.01464314970233
1.02130197739529
1.11663806520651
1.0376399933895
1.16142787311578
0.969134255598997
1.17774421993389
1.02954086663827
1.19294615054462
1.03260111558088
1.25004682928794
1.00957555343601
1.1333034123086
1.03715072745644
1.13727425796393
1.15676830563247
1.23251072259379
1.03251348768845
1.24180022643682
1.11856580933784
1.29867452950599
1.06050489399666
1.20985621320934
1.02031631817038
1.13777897956371
1.08214703738883
1.21631842233405
1.0928336915822
1.2771564203953
1.04076792621808
1.23546918302147
1.09454039656577
1.25803563755896
1.08448526392079
1.20108474065822
1.12005092115739
1.23858878231529
1.09428380269758
1.19014981218785
1.12542317139008
1.33798492087416
1.13934732588409
1.33274611477767
1.08364383811981
1.37974459470959
1.34549634526004
1.45090470525405
1.26549582139705
1.54686774457154
1.17460024913654
1.27220977231872
1.06754446836696
1.21561239171668
1.18877422736014
1.3297669770175
1.287689798246
1.45600646222705
1.47336603991643
1.36508165543192
1.11267457159528
1.28974089340058
1.17491153670421
1.38303966000837
1.18462211345996
1.27572299972827
1.30643022004066
1.43880441932575
1.28026408316876
1.25335329330992
1.12244016899603
1.48441641484065
1.33087721777349
1.40324494988475
1.25735251239077
1.38667702598419
1.14996208931492
1.41642499629101
1.51865424607357
1.37255359895227
1.21088485550043
1.39244427948149
1.35146226568329
1.38729871426876
1.24117386872655
1.30495103697531
1.34152497147593
1.50586919748586
1.23555540080414
1.33960149812176
1.32719708881591
1.5660616643698
1.19111601322679
1.33818449337012
1.34390466327817
1.44264489324227
1.30221988505473
1.54757313888357
1.33225088389288
1.30990312032688
1.36556127492284
1.49744582589654
1.30431856486772
1.40912467439231
1.26683435039928
1.4123439086049
1.34324678459135
1.5149418047841
1.42381553458455
1.56982977891746
1.27576747340324
1.39562247969132
1.35634121937277
1.47289313700898
1.39278673010998
1.37053184111451
1.36013410565475
1.43618551946808
1.26317259335224
1.37326939437385
1.33607433461103
1.44982644175104
1.34601145484948
1.49602602736868
1.33819990648394
1.43958693838643
1.53000649173395
1.61292596672542
1.47883081975284
1.48578136119357
1.43746358140457
1.43928550992214
1.35444399695003
1.61438818004886
1.3837146374516
1.52805037923944
1.25348025172265
1.4064564425506
1.22765371573345
1.27532619871032
1.49698613046041
1.39888646122964
1.3377779838512
1.52491159378932
1.37276184270931
1.45749981063317
1.40509719809168
1.52473710205717
1.53353292791502
1.58252419967578
1.40058366850342
1.48034298889777
1.39326916564388
1.55167631652982
1.31995964246144
1.30958325471917
1.33337498094333
1.5236769724153
1.44733459695289
1.33026088816831
1.31178604670406
1.64313762639164
1.41334823304916
1.32731860746519
1.31484286804757
1.45037723766381
1.3799862123947
1.39267051570554
1.45999135053867
1.52260374301998
1.36463577576468
1.51582023195426
1.39665601710202
1.51687943215373
1.29501029715441
1.41493207224801
1.348645860029
1.37795672591811
1.39563225484154
1.39455642514078
1.25771870873753
1.44163730313971
1.36951186212455
1.39894773897479
1.3184755165822
1.63028187049705
1.45902687150964
1.38692278811052
1.39919291463015
1.37797693888916
1.32057914514811
1.34413362206375
1.27618846031181
1.35133981730533
1.33202491781457
1.37269924498059
1.34529259084159
1.40658278313525
1.22837378898653
1.32918987421679
1.45829522982521
1.36571800543754
1.32670735683349
1.39102681110507
1.36451239234227
1.28534631539216
1.25657497788962
1.39492644075414
1.30743705126876
1.38449026953628
1.35778769312737
1.31540016060505
1.35366371806802
1.37023392455142
1.31026244639575
1.32495030374386
1.30575727338955
1.36275560509808
1.31279889314589
1.26861950053152
1.29922484502935
1.33473878220478
1.25444642546161
1.47636143131315
1.40569397198795
1.26610887045237
1.18517981368821
1.32436336222563
1.31551175748752
1.28266918101829
1.34846998926928
1.30345666287162
1.2403723174586
1.40035381877808
1.31656055093452
1.28176781635703
1.25040933241799
1.30931612873769
1.26832214534563
1.19476182834313
1.2395145463589
1.34472870630594
1.24148953755002
1.22984549646552
1.17820424305994
1.20056313011418
1.17819438817815
1.20368804472695
1.21202133187588
1.27443818687918
1.21004220431455
1.19013580587889
1.19025958136396
1.26709730783492
1.26059884926364
1.19389433107789
1.11645813577586
1.17520368521223
1.19561597743213
1.16992639029077
1.20714713486523
1.21349823499886
1.14488900809521
1.16262264406995
1.13032514141979
1.14713024750126
1.20945549448618
1.17694955698975
1.13305579015443
1.15132717923552
1.12131941268206
1.13720775442176
1.18132435590156
1.16616191787824
1.07341508974483
1.12993745039472
1.12478590509635
1.10724697750665
1.06811434675186
1.1082629772445
1.11556686008978
1.10073252002284
1.10858388683849
1.08912186209893
1.06150680037761
1.05534683832524
1.07913242105096
1.08816279789035
1.07947386893064
1.04845853762578
1.06364360350284
1.01509886730514
1.01311820642949
1.06527313250091
1.01323876847223
1.02053367131104
1.06476505547233
1.0462203085078
1.02762690708304
1.02650880084392
0.998672659823702
1.00287966196756
0.981556413801285
1.00230594960217
0.976852911727106
0.999221866162035
1.0075713550663
0.99182650374682
0.998624439085275
0.973822735728374
0.940565622107135
0.975165926644538
0.978264726090827
0.954066954363271
0.914063811387306
0.923717150496728
0.959410626405887
0.961294639140452
0.991140029470811
0.922014819472563
0.871779227329442
0.890936487839984
0.895747627173877
0.900921677718598
0.90528922744193
0.906012908837917
0.890022896353077
0.875026628949972
0.869608884194265
0.855875337391542
0.863718836421335
0.89444222368121
0.855692025944578
0.819081999508998
0.845847486797281
0.865929986549727
0.858151216232304
0.843809020075432
0.847925335773045
0.86872526413368
0.853886896293754
0.817319376447417
0.818631829335748
0.820910313191654
0.812826714132197
0.813994706637512
0.804617010466154
0.805298714650347
0.775855965003799
0.77823785548302
0.800557368279087
0.783354948826139
0.788564983473107
0.754499951696569
0.759026970826566
0.77447487027694
0.752860880587565
0.755852851846072
0.746779267118406
0.747803543910312
0.76449318351966
0.758102168383071
0.745166965567833
0.744754968807404
0.744699786121271
0.749939495501965
0.746195874345357
0.733965134374687
0.719916238821956
0.711317341415425
0.726119758898743
0.716304873931151
0.713722400057106
0.705772456996409
0.713724705389883
0.700381646670483
0.677276672219544
0.679606839887119
0.684151202746302
0.682158379731505
0.686730586911094
0.67308298090995
0.67865387998566
0.687667687553449
0.674058474353137
0.659412637562161
0.651238512380139
0.637590126043181
0.648298976577281
0.631719886285545
0.64646080737417
0.655277801473592
0.660293027172037
0.642509770076551
0.633857365204976
0.638705686754157
0.642291234923991
0.621061717376772
0.606896259756257
0.596430759681688
0.611158679395814
0.607777028980379
0.606897549700944
0.607520740112037
0.6130218378781
0.595792814987412
0.598006166659168
0.588310962087311
0.610361793964798
0.598686565018797
0.588753915333759
0.577918707459879
0.57679567713055
0.575385083769555
0.558269092752921
0.57127345912184
0.576972399251259
0.557324152397829
0.554161336622741
0.562720543989945
0.563927916613215
0.550396934273355
0.552818460508576
0.547300390742357
0.55175772774002
0.541890413801186
0.526429425912238
0.528784915295478
0.529664703468369
0.535508160965556
0.538289540338562
0.535616374346163
0.528737601792034
0.5279067763252
0.532503782053939
0.517953606482384
0.514814231702584
0.515866542170566
0.509802781602799
0.500903626636825
0.518222310697283
0.503026188983963
0.496123008457508
0.501812800696477
0.49284623001339
0.492335721436386
0.497672051671478
0.489993201779693
0.475409390225448
0.48550828568039
0.494004484965888
0.481153823764088
0.479120053693209
0.477196095100763
0.470681832420068
0.466457949715162
0.470909269730725
0.472990929724313
0.470449046820492
0.474151226177936
0.463710168999785
0.465811390520647
0.462105731623069
0.459213179405864
0.464548374050838
0.455964151789603
0.461405334989422
0.450089644131897
0.454943683635524
0.451171526174337
0.445869715522469
0.444904047187578
0.451195163313365
0.44321588063206
0.456471007199631
0.441390390472039
0.444945069395037
0.44287697885631
0.454885572127556
0.432837761598461
0.450312696853877
0.436357235549475
0.44320849523377
0.445298931474423
0.441254890814121
0.438639255626121
0.449781732630297
0.442343131466776
0.451950566624309
0.442281150612533
0.445632507304804
0.44837907762857
0.459818251623529
0.454655911185102
0.450444327613856
0.445389053829422
0.455818329654138
0.456623771846012
0.459668412566221
0.470507491561632
0.471874961026051
0.464109901086216
0.460096070714843
0.462041080454018
0.47975846265484
0.467983797904553
0.465852853489392
0.471698963379961
0.479432480637105
0.463962080468712
0.484508656709716
0.479295168920109
0.485367332575677
0.48950035092319
0.507546527124905
0.490406940173226
0.493703338156973
0.484611244763343
0.500854195218414
0.487807922090546
0.513769686865676
0.51137121914681
0.507575045666928
0.506904261553087
0.51021589429024
0.51393808490259
0.526444601092014
0.516900430983495
0.541323326170487
0.536371686470144
0.53366944895755
0.534149614583007
0.548546473748812
0.553969245480563
0.559233066318821
0.545789244841757
0.570442465410581
0.536799697359926
0.562250029014112
0.565108408921155
0.583369724798641
0.570133660554888
0.598991131012184
0.577010825548801
0.57945227597136
0.583880419022695
0.598643327431531
0.596781603662957
0.597926519824289
0.584778300396232
0.597305219755709
0.583168755467796
0.610725850946505
0.595930754741085
0.596259468081844
0.57560345838572
0.612437884921366
0.593701795273655
0.600257025323461
0.588761419448601
0.59263972303448
0.576293883372518
0.610958032609732
0.581426484415202
0.593861296358021
0.592894804375124
0.594807755254218
0.586512478530026
0.596615156186202
0.582497762963405
0.609460455284466
0.587554605810157
0.593473271116323
0.575615634142606
0.602021503082171
0.598071758668376
0.600447994995903
0.586385117854233
0.593895948658679
0.595133424209689
0.590406395147541
0.584415180440104
0.598698166256826
0.587912901853909
0.594636074473474
0.583189675125186
0.618130791755046
0.579318451450526
0.602925671281912
0.581768029885425
0.602967286045006
0.578114016510106
0.604714401862859
0.595306329782313
0.601732888132674
0.601002001431311
0.602395852564084
0.586718602585728
0.604894932760203
0.578404624370243
0.60574724532497
0.583746655857631
0.583950414219869
0.574555349209461
0.5880484755929
0.583371048680675
0.577612801518932
0.57412653275457
0.595448132418647
0.568526948897893
0.572752426292614
0.569856378596463
0.58462454090609
0.565394937826766
0.574238257840168
0.544954143346339
0.564083059116155
0.54167424940945
0.553835555996795
0.549075376168795
0.552673970826712
0.540656259954315
0.535837791488532
0.526635331432039
0.531571037021994
0.521248974257437
0.52461207660282
0.513386678943998
0.523874910761579
0.507020963533487
0.522072892833313
0.503835572950181
0.515379331688509
0.48753898232561
0.492379453403556
0.494356858845022
0.498973462178743
0.480371190755267
0.478576829921159
0.471478952739901
0.472229369239975
0.46294626260978
0.477926765893412
0.464651405680099
0.466822898587656
0.454925573424022
0.469473649646467
0.451523094542906
0.453952116723017
0.44274257115874
0.446881103949182
0.438377003724786
0.440524762955272
0.432660476048638
0.440185903210688
0.420245681246596
0.442418771144426
0.419781486171967
0.42666148028041
0.421732651949285
0.426484166759914
0.41860633419435
0.419767061737936
0.417260504077673
0.413924576146086
0.404011007778978
0.422643359215605
0.403847202358623
0.415512920315734
0.396542945512812
0.417537905070291
0.401087865504772
0.397905210941832
0.390777886969137
0.404792315800793
0.388779892720142
0.394097555435022
0.387434721507067
0.400980228938447
0.399639846613966
0.391481208576487
0.38660410406518
0.384508442789527
0.378114359675694
0.389673847160208
0.378252117546508
0.386975798100672
0.376229931427924
0.378915389814555
0.370788459694016
0.378184306878802
0.374573502195914
0.373312043718393
0.366134840600027
0.372961249742718
0.361480895853766
0.372478403305085
0.360410742541775
0.369298930728653
0.36418304082736
0.364327611339212
0.355624446881569
0.365812156942754
0.362399509449839
0.361197146190634
0.350040134439649
0.362204326184425
0.359236130107355
0.363620142855064
0.35120358064269
0.355282960973871
0.344569470298151
0.36052028685394
0.3435049721561
0.360056186550459
0.342904009380356
0.349262427049892
0.34707899548868
0.343316376817996
0.342561202528661
0.348463027171186
0.337018422549176
0.344118241096508
0.328895396004756
0.344394708597119
0.336336220461784
0.344596714350476
0.33581919006241
0.341385489194625
0.339365036979335
0.339048604923654
0.335539743674768
0.339454295745103
0.325930602695774
0.340029638722735
0.332054511827917
0.33870244809646
0.332335859601216
0.328587508765759
0.327542839051805
0.334648066069311
0.329898822013903
0.331132445447103
0.320788242074357
0.327176368332331
0.324233157352156
0.32787342068653
0.325448543145025
0.329969609561761
0.321954770857746
0.323801157633268
0.323456868590797
0.33194210944918
0.317768062956217
0.331166372668605
0.322127441920341
0.319045432286024
0.31500832506568
0.333557678348614
0.311002005265238
0.325765258791652
0.313353643511826
0.320400962033542
0.311079291785386
0.323004154751723
0.318152572981301
0.318287396075045
0.311096303407388
0.32177787151779
0.315754985043421
0.318925834817439
0.315326136363653
0.318564986768404
0.30663671858919
0.319882115531384
0.311099204593636
0.314223320262924
0.302458311573713
0.315565485293175
0.307460772158255
0.313574778179161
0.306110213944358
0.308935330421034
0.301099030283691
0.312458013884257
0.300333505052839
0.307945595182762
0.302186499367182
0.306580259959261
0.306620975589524
0.312898867918253
0.299339221069112
0.309600727665133
0.298744015140405
0.304375265559706
0.295680199522337
0.3006655215972
0.299186195576623
0.304967296259841
0.290632268972991
0.297479237072277
0.289196144066234
0.304066988690369
0.291076836698686
0.29409605163369
0.291718599718193
0.294688514136996
0.292457545865271
0.29401538210556
0.280323368372477
0.297444552928517
0.291292666459241
0.293111084188595
0.288090676831077
0.294724271167574
0.278537441523478
0.283623851296717
0.286885483606544
0.292200172080015
0.284848935473463
0.287177802438602
0.27735849805542
0.288926945808161
0.276033949745429
0.283607188156114
0.272855754922575
0.285266839700106
0.278697634349881
0.282953671216506
0.270712971750637
0.281368298294705
0.272285096572405
0.275229386509684
0.267640920836809
0.278061196418923
0.270798771664765
0.274923843544901
0.271753458945248
0.266955137688046
0.265478611892856
0.272597260125561
0.263590903850969
0.269023267160768
0.255873601463526
0.267980688073808
0.261727852628557
0.263890287840761
0.256213181672129
0.265228672107244
0.25380169481095
0.263912260200219
0.249499482191346
0.263076433776604
0.245654835701765
0.257413084975394
0.252404483191559
0.257210419065044
0.251894071368057
0.255056410314008
0.244120205289927
0.254093991126919
0.248705500380578
0.25038022697532
0.242325864567515
0.25307973608456
0.239278137896646
0.248033557892319
0.241159721263618
0.245487836624552
0.235944249384438
0.247038575246964
0.238627336483712
0.245881530841893
0.235983149593511
0.236681566952832
0.233439494722328
0.240934652082242
0.230839468147612
0.244195596324275
0.231846284977708
0.232630950183152
0.228948836868293
0.237759260877894
0.225309258647964
0.23259983605493
0.224386160696849
0.229974377615
0.229062100608418
0.229145878062732
0.224480198762985
0.236559054637157
0.222252351045499
0.228877412428855
0.217675930212433
0.220955497646597
0.219489145390311
0.220479821356281
0.21999660310464
0.222616987320331
0.220918002384332
0.223202555724408
0.213940193583507
0.216747425797654
0.21651204178856
0.221951411414696
0.210346189915019
0.214929448748327
0.208561122281085
0.214956346037237
0.214338718904661
0.218554317877693
0.211208929308852
0.214517619454039
0.208053467579518
0.21687826898892
0.208586053132251
0.209985562172122
0.208287617561295
0.208850214908308
0.204545574390639
0.210227150675945
0.206170120259147
0.208078352917812
0.202668620433412
0.208021049544589
0.198139046741777
0.211840160873248
0.198568596928277
0.204994743074981
0.198767823807011
0.203981324293063
0.19949004713051
0.202467673746249
0.196720599681658
0.203761457225205
0.199195685055869
0.199950917403614
0.191602251120084
0.199799989146817
0.195317952649421
0.204084692535023
0.19597063280543
0.202746911402373
0.192908509327674
0.198221863847642
0.195261750075043
0.194602381348649
0.194217820244392
0.198957349672789
0.187605499310361
0.198003329814017
0.189917841734453
0.19808237965855
0.186915517868329
0.192603133825818
0.189812738487035
0.194261508340777
0.181752980583084
0.195509982768236
0.189093200183555
0.192116479668627
0.189702490608794
0.191223386368944
0.185234264294493
0.191940573153724
0.183777542038313
0.189132226786938
0.186846053025113
0.189229594388777
0.181026429057244
0.187709103233602
0.180903315220659
0.187722659254094
0.18046507946578
0.18706107506121
0.176981501577201
0.185853984141957
0.176425781809396
0.185002152469318
0.180275819706359
0.183986646976628
0.181894086193694
0.187218497979145
0.175439914813273
0.181443885345253
0.178741671050784
0.184057859673854
0.176751162310961
0.18265636306914
0.178643791838926
0.181326801354901
0.174526727157951
0.18005785776793
0.17367861165272
0.183388139660407
0.175477599868524
0.176174198711346
0.176453943690648
0.179787848392187
0.172333586009729
0.175340931612859
0.171122890332671
0.17471199438772
0.169649368013728
0.177678586291815
0.168642860430357
0.175774495625419
0.16947410888005
0.172407087857441
0.169749305713197
0.170920918646489
0.167509576081392
0.169173824246753
0.16744500013561
0.174811176978087
0.168133926199943
0.169803687531786
0.166389019097286
0.16942351429557
0.159937219970866
0.170570283316776
0.163707604201166
0.167600775399134
0.164960115600319
0.166684820150813
0.160841294410301
0.164808687892244
0.159597288624586
0.164533792629648
0.162639895127921
0.166309237188209
0.159808945691869
0.163469114644624
0.161656740016076
0.161179840584287
0.153125969842098
0.16004176720513
0.150743472081989
0.154625061079833
0.148639454549922
0.161433103041613
0.153732686970385
0.15500445247873
0.149922052811488
0.158573187465876
0.150151452892377
0.157115019743034
0.148066044276663
0.150963321140385
0.146399281566628
0.153398886418187
0.150025332623359
0.149899753187924
0.145462836851327
0.149061987833377
0.141694783917881
0.149780076070264
0.145437544093001
0.143329944543267
0.14306913121831
0.146065198219818
0.140130097492754
0.147276301832356
0.14391204681979
0.148852482070983
0.140607218787776
0.146453518974724
0.137193364822339
0.141617841316699
0.138264333807286
0.143009851916514
0.138228960349923
0.137978228879803
0.132886689718062
0.14191231096602
0.13726850750269
0.138185939058087
0.133142155720697
0.135989608261435
0.130766703061063
0.138642792616512
0.131088729576133
0.131979398855525
0.130151223898946
0.13563673495544
0.133140868832914
0.13462176697351
0.127109232453012
0.132327033919774
0.125789046868366
0.129868916440974
0.12800454412174
0.132509107226535
0.122922795734241
0.132911104039614
0.124661739520954
0.124180556260275
0.122383630722035
0.127359957789671
0.123632609640011
0.128548309622965
0.124198694354703
0.125107708558534
0.122209717725494
0.12367232934754
0.120444215504503
0.123426020793947
0.119441390400498
0.122254446455546
0.118414455758004
0.121741219823758
0.11549245932178
0.120650466047188
0.118311788775943
0.12173988353965
0.116759804655414
0.120611151351869
0.113329195793367
0.118892913581274
0.112887288614488
0.121804921911571
0.114451673841247
0.116960629032793
0.113272611713647
0.11736970253883
0.115658613786804
0.116924443029973
0.112166296467169
0.118994436176708
0.111135908254339
0.11547598253342
0.11026499307718
0.115838002561429
0.110655362235032
0.117767281838351
0.11037473025052
0.113492561922828
0.110171591671875
0.115613226403734
0.112324566214593
0.112448078280923
0.107218037454163
0.113256056669141
0.107344101208751
0.110802399580868
0.107169539903828
0.112992153264657
0.101122126761292
0.108359968866491
0.100016424278283
0.110415693266792
0.105051441366796
0.116943544103838
0.1085678578189
0.105481571537845
0.0982851699053779
0.107005377873475
0.100913128020484
0.105581468649537
0.104545384233341
0.114589905378198
0.0991800960214815
0.111014150823579
0.0951596505500894
0.106079945973455
0.100465732931212
0.111394191101046
0.10083961789258
0.103910332682864
0.103291228699133
0.107676887807436
0.0990340827282493
0.105449663441784
0.101242268222736
0.105153262677083
0.0996695557121524
0.113583152792313
0.101792934725838
0.111118086539338
0.103407833361048
0.104494322407747
0.105103566732731
0.104798652455395
0.0966215863794766
0.100005165662878
0.0996888533883818
0.0960878001336838
0.0980259268846069
0.0979332182108899
0.106577967216266
0.0984277494640238
0.109349841771788
0.0887747384227423
0.106181670134758
0.0848686850086779
0.115225562484751
0.086516429877426
0.117011784233363
0.0706309198931943
0.122079871356733
0.0773811445978677
0.120130109931465
0.059445871208221
0.13023246334582
0.0722991823085807
0.123392995635662
0.0687602522301896
0.11766589224755
0.0815602469572007
0.107948406499909
0.0895144415041709
0.0987567068416353
0.0970401800425734
0.0938028040033499
0.102199289237922
0.0876991176460894
0.101286563277483
0.0918018227837015
0.0998505174563415
0.0934514137750581
0.0985008874275309
0.0958025158729005
0.0920891507350553
0.0942697909777356
0.0922031338750704
0.0964368836234905
0.0932341991742378
0.0941592161013022
0.0946577600620051
0.0929006317798028
0.0968420296236431
0.0937619116489066
0.0961842002594513
0.0959332278536834
0.0926051043123609
0.094251926813603
0.0912802524994564
0.0954053958301082
0.0964555955212111
0.0912936220306167
0.0954135518126453
0.0917682384853364
0.0947983167025257
0.0920977442272274
0.0952610103302244
0.0968320150948006
0.0913504365075425
0.094453984984775
0.0933655037458313
0.0936329447949103
0.0929782899510249
0.0928747104237855
0.0914156609820586
0.0908217678001677
0.0937265468450286
0.093645676023384
0.0946548271270257
0.0929803818944319
0.0944028868137384
0.0961099115874489
0.0937991992504019
0.0932914119405688
0.0959162713831323
0.0907101322470391
0.0911119717147677
0.0932289853576183
0.0935001267013435
0.0924162857777232
0.09425879261462
0.0929619554708107
0.0940696473691828
0.0935290448727316
0.0956571662184583
0.0921345217878586
0.0924752060030963
0.0919381845778138
0.0957834655481332
0.09084611804571
0.096393514675966
0.0922219877834523
0.0921656128019517
0.0923735539962608
0.0959008043762692
0.0926653350289124
0.0942896793165992
0.0940448372501724
0.0953582953600047
0.090598224099965
0.0945528997176051
0.0925491402122238
0.0933279877659854
0.0935685191501465
0.0920522171969016
0.0922627639133142
0.0981721985842344
0.0938559365129668
0.0958171765464076
0.093652180863284
0.0950279744310117
0.0939843561219621
0.0955232558204042
0.0935124634751196
0.0964094945347323
0.0958312150751699
0.0960632905524023
0.0930595477689045
0.0954873856406084
0.0903856977546741
0.0946372888113179
0.093482178590578
0.0937883003710175
0.0958167030813772
0.0961211824495318
0.0945825263011361
0.0943677424929672
0.0929226669239994
0.0952344946569114
0.0945671238918116
0.0971204175747505
0.09420134978213
0.0967087289911196
0.0955734057690741
0.0969250479836156
0.0943252787149987
0.0954612231503848
0.0953728859123957
0.0974841589049911
0.0946831730320281
0.0971755987228684
0.0964981185540203
0.100584883335991
0.0948871543932028
0.0992315472016942
0.0978891032667993
0.0961572741580659
0.0975730209531761
0.0992741050758327
0.0967617288584199
0.0999067832452616
0.097892567437738
0.097530294362978
0.0992540583040348
0.0969822732415523
0.0970685771684294
0.0988083111381724
0.0970791321349408
0.0982825641068884
0.0962622694259478
0.0989719772766374
0.099855788834344
0.0979294440123706
0.0976522384400432
0.10065247129654
0.0966098775916352
0.0991507026355507
0.0973518511316045
0.100676710453555
0.101207711540176
0.101681969835478
0.0967501880929385
0.0994278932247417
0.100112960624535
0.101592718360746
0.101243925586194
0.101738968686444
0.0980732072616563
0.101753447401438
0.0993358473212087
0.103525738035083
0.100999493580536
0.100803216575795
0.100062727427179
0.102751868176528
0.100601711326063
0.103975276359445
0.100412975289583
0.101747874655845
0.103077508811608
0.101704535653383
0.0984660524504454
0.102711210320185
0.102482638452768
0.101952070987943
0.102212000223705
0.103372968020488
0.103440196017292
0.103810358861874
0.10023032534514
0.102642816147409
0.103387086139074
0.104656156944356
0.10275705845595
0.104817860402535
0.102496646459314
0.102551891835468
0.102484257146103
0.101310138050123
0.0999049732959467
0.099056267186778
0.0967773553826257
0.0991420112942635
0.0985096354896661
0.101162394248386
0.100718067101566
0.0991088766240194
0.102134963956196
0.0980449203338577
0.0976293249048264
0.0988695548593115
0.0964811703551282
0.100447373266291
0.0978688769923671
0.0983734624503076
0.0993648072618372
0.0995584195918863
0.0968820104438869
0.0962589562692772
0.0937571948706952
0.0973639913528647
0.0968458336259716
0.0984588859855864
0.0979559881263652
0.0970448714750641
0.0963352882472408
0.0960822767016672
0.0980323067370067
0.0956006922231099
0.0968173541395848
0.0969555556182954
0.0974849254446897
0.097571770788628
0.0971638665971054
0.096030522912916
0.0942384548857266
0.0967528202951716
0.0965212254481512
0.0957299555498826
0.0929681165194458
0.0965826813408359
0.0936783003554264
0.0934635100896375
0.0932263452552861
0.0956282943468467
0.0974636500778272
0.0946518352908613
0.0940767066076656
0.0947155304846249
0.0927190490270797
0.093077707015101
0.0944075377415644
0.0939364167604654
0.0979193180303497
0.0959640935920894
0.092388054989848
0.0955090004202527
0.0926273291319978
0.0952020515743503
0.0924040227728507
0.0931045379501843
0.0908799298501494
0.0929305480655755
0.0904153377225185
0.0918786736534366
0.0913370842636349
0.0929913993136018
0.093020277677581
0.0931551000820446
0.0923692081262035
0.0900502150967519
0.0915659985469444
0.0926780577903544
0.0897639053208178
0.0925579720096254
0.0906822086733761
0.0901772122686868
0.089825288004841
0.0941084787611022
0.0927487756148305
0.0946812826754378
0.089232617333599
0.0921797113505877
0.09254366966975
0.0903410317386481
0.0902976199900354
0.0924163468711916
0.0927253284571971
0.0912424993022789
0.0907986826078524
0.0896129026074116
0.0903706718856453
0.0899477185029219
0.0898763125969766
0.0896371295255105
0.0897553239934533
0.0912854293948296
0.0876465037047326
0.090854476952311
0.0888869476283062
0.0888505152325484
0.0888099940924713
0.087814170445829
0.0888118758203155
0.0921711565612438
0.0872527120282607
0.0891713125628469
0.0863104484244741
0.0886132530202921
0.0871330327747284
0.0897724221726968
0.088411968888291
0.0857507531805357
0.0868771496693006
0.087791277944042
0.0833080866855492
0.0849558078384504
0.0859237409123857
0.084683519261232
0.0836325762674744
0.0832419808753752
0.0800820472765025
0.0853932642093368
0.0827854741694392
0.0828378239266816
0.0830951322871875
0.0843477675717179
0.0807748771256372
0.0870134165710453
0.0795839694823437
0.0842115923852801
0.0835697405029015
0.0813481080074304
0.081438254383367
0.0806692260423663
0.0837689177226582
0.0804107948360677
0.0798314529373372
0.0807431338196048
0.0805414344750397
0.0777622175549671
0.0785669495323673
0.0804829298960998
0.0791919962720199
0.076895741446245
0.0755617466712828
0.0770134607735998
0.0771586241140251
0.0786595177249962
0.0764454042208653
0.0748984907726467
0.0779547827019134
0.0765936765423164
0.0769814475239006
0.0753785866803821
0.073055797701919
0.0762545814024312
0.0815002263189058
0.0714276078208083
0.0780641279555871
0.072923466705197
0.0767094014109599
0.0740577599385562
0.0765727374929604
0.0753756381025545
0.0730052088638954
0.0726563809157365
0.0741141981469515
0.0747612799224237
0.0743846166905519
0.0740836483092715
0.0735894908708751
0.0717164809271977
0.0728327143446482
0.0759747121253262
0.0755353292808116
0.073992745511034
0.072496598396683
0.0717517267969807
0.0711045965745856
0.069643169644281
0.0728795350885881
0.0696649458731343
0.0747713611631314
0.0718004392357432
0.0720914865129313
0.0732760869134819
0.0705098311022281
0.0733620977115818
0.0687713609796064
0.0697730511775405
0.0700313374655464
0.0702640188206783
0.0704661876152498
0.0714552541693673
0.0691143159636898
0.0710749037368821
0.0727669860860651
0.0683413202237429
0.0697188375305568
0.0701701238570649
0.0713891924850698
0.0699424392172424
0.0681369865384775
0.0687044012495365
0.0651709137447414
0.0690476798173644
0.0684745437716811
0.0715281555979845
0.0652267637992877
0.0800602509879012
0.066748668211514
0.0719739426334313
0.0685022994865619
0.0706483728826225
0.0673801930262997
0.0675590855699187
0.0679594985444046
0.0683248282289678
0.0660049481247606
0.0691921907530141
0.0673861998995679
0.0667524530127035
0.0692666027262551
0.0698454257424796
0.0642775828982162
0.0690676968136405
0.065333109787058
0.0695342910771212
0.0680870912635122
0.067518388272731
0.0727519046259386
0.0684581844472521
0.064800983681949
0.0751714686111672
0.0633240926843085
0.0707745600467552
0.0704509549492079
0.0616580096593935
0.0730803214511695
0.0631528986171079
0.0713485718997203
0.0653152873412341
0.0740339646690959
0.0610842358686453
0.0728136029775376
0.0642551354075053
0.0684500303952925
0.0695170716627431
0.068117810908872
0.0677008562532486
0.068847376256486
0.0673565860061986
0.068899254614801
0.064046053018628
0.0665380081656806
0.0656975990211279
0.0675881096618823
0.0649695431173841
0.0663712884203021
0.0626090375222847
0.0702685116301068
0.0628659797864177
0.0714325869390138
0.0652141394290092
0.0699248690762585
0.0589314551250401
0.0807785037999433
0.0663707033677221
0.0717844956859452
0.0653976372779068
0.0634408477585333
0.0665399996705607
0.0668509447514043
0.0635788537079036
0.0657510711607396
0.0678863668537947
0.0689433283171628
0.068355728707121
0.0644083763073779
0.0653512451669453
0.0638702896396446
0.0662305805943864
0.0651361361372131
0.0659044454636318
0.0647425122375214
0.0688965791220837
0.0655733261126572
0.06444552246778
0.0776644893551658
0.0676165216185439
0.0754483064947259
0.0622616250919572
0.0713433948380252
0.0624550785434009
0.0678758736373695
0.062590775947015
0.0703270738529507
0.0656800166942426
0.0694961823860301
0.0664734870510922
0.0706963149149688
0.0691757146851595
0.069969284417575
0.0669067687687185
0.069429983657239
0.0639522771158464
0.0665074863629744
0.0634393947683987
0.0680702400742891
0.066215511595985
0.0661375835513612
0.071690065269271
0.0650525036122211
0.0704491994834421
0.0668654455475852
0.103007076348688
0.0564572848362125
0.0743312295158718
0.0652510678299234
0.0702098815439247
0.068895370184801
0.0706647903281984
0.070564313252046
0.0688626147789466
0.0659870850709776
0.0735581127419981
0.0681511580740546
0.0717748960442116
0.0692660068745816
0.0686848044200641
0.0769132478324868
0.0746195625852758
0.0656253459940976
0.076069956723962
0.0651318402856333
0.0860963691013593
0.0694437178342802
0.0721899660849956
0.0818652156576312
0.0664100320164459
0.0735224580871974
0.0678217067328808
0.0741878820956044
0.0700094306340505
0.0755027219428713
0.067655054866992
0.0742181563641051
0.0715098981947906
0.0734825439124925
0.075570934357989
0.0736645214875196
0.0831434670336954
0.0745083408024707
0.0729574197896889
0.0783234273517015
0.0705752607014904
0.0777193359015908
0.0747264923818592
0.0777363233456504
0.071864824929699
0.0814886968531512
0.0788552644893212
0.080931853579191
0.0858847798533136
0.0734930573610729
0.0746002991352324
0.0819882202418465
0.0748766556184992
0.0887992770764411
0.0697041898730038
0.108412951894974
0.0717054097858
0.0874332615799232
0.0787842052904986
0.0758067321006549
0.0839872002216477
0.0774342727528749
0.0855518831140741
0.0798046366761434
0.0900644622938919
0.0701155034592854
0.0913231718940209
0.0708756163354878
0.10571139779901
0.0787016187779395
0.0892134029915153
0.080981018751061
0.0857337075642781
0.0841955023255517
0.0937278087980926
0.0787863868895033
0.0943733837705013
0.109161279952694
0.0844294956141769
0.10045200307748
0.0794915668948376
0.0971145655770796
0.105998184148453
0.0785211415317493
0.0991363692077873
0.0829690043386524
0.0976811419070317
0.0846553874266708
0.101936248988704
0.0971928926962858
0.0857497142103619
0.0973529619570756
0.0925166876899345
0.0907679088368397
0.112160970847785
0.0890897290002354
0.102862895978377
0.0916902930643664
0.105121829533608
0.0951632345404819
0.149650995690385
0.0803275329487311
0.130254812736567
0.104112652816108
0.117873099979187
0.10879074599085
0.110690267740718
0.109871629022162
0.119042897911273
0.112067976893344
0.109880876996217
0.106392585048968
0.137832576248056
0.115065721834514
0.113627983651434
0.126028202343469
0.115708730970749
0.128623654776584
0.148417856684888
0.135627467867913
0.130119941782003
0.121361573676855
0.131530564793757
0.142360818296022
0.12093144645863
0.135653743661465
0.12898843075963
0.135935190803094
0.133386318679845
0.137245275323046
0.149857235816172
0.133389680305616
0.146990144659551
0.140721571088015
0.151406252641483
0.153636040538058
0.177149043134535
0.150929747588882
0.146601613562156
0.191753395624338
0.150413360091298
0.167363592312878
0.148562031169775
0.164035867809198
0.167163440346136
0.163213079043192
0.164580282393146
0.165213584078832
0.194577372608922
0.164552455885957
0.181832399075216
0.185127947531625
0.177584742687215
0.201344415527735
0.193185872347881
0.334118401181234
0.167722667123611
0.222979936351995
0.194739941072907
0.25065121062822
0.22822586311871
0.215091763820174
0.225727294973903
0.234167649526173
0.239060954370735
0.251584105840708
0.254821124427392
0.263846710665492
0.271282226839748
0.272430502314304
0.278804253466024
0.336070405592825
0.319569827347012
0.319341392148013
0.300376682766858
0.315251405876267
0.331763213230727
0.343675217926343
0.334165697971954
0.355271975894601
0.347553251946526
0.387902078683343
0.393504041887112
0.372771575049913
0.394783148283815
0.392080486020776
0.432006321730749
0.395625151051648
0.481802879319274
0.429278975578021
0.444686512323205
0.448604736505151
0.459414488280695
0.47171199993473
0.462858495519265
0.523839148733723
0.484234686707801
0.503974086972743
0.507056089164708
0.512069678814561
0.522885820928816
0.523750269853299
0.531544661522817
0.53737604347787
0.587054177771674
0.595751810210184
0.662488721563546
0.548774661204901
0.54092729315604
0.558771207061385
0.537526464644389
0.597269763896249
0.550115353314571
0.59804195805069
0.564805183809619
0.5600390886944
0.564097953690649
0.558773298106131
0.571071777719294
0.561832089109268
0.580873338867073
0.549945668961501
0.612032591864578
0.573538609238373
0.624072288267221
0.62141239192067
0.56010077314702
0.573905802815395
0.556402220865331
0.568664600830625
0.567031410588202
0.573894853116035
0.566176159039115
0.5901560609961
0.555081535552181
0.574427885397851
0.542449074740715
0.588915662336128
0.571483255098841
0.548189418586569
0.534942339459403
0.528593662251467
0.531720155844506
0.529077513314017
0.550304850362732
0.580509401847193
0.505211591919921
0.529119940858428
0.507803281661824
0.514407444943549
0.501688657997542
0.510357755112628
0.505771765198871
0.506936901176556
0.489810538031
0.50193071474812
0.491293923379755
0.498029852401665
0.477152125768278
0.50573816494766
0.485807098407819
0.491767746567574
0.482433263224411
0.485545030446024
0.491344573332381
0.491032849713589
0.487352294346015
0.494853290637657
0.486865025136459
0.484393664734632
0.472340228816008
0.49064816115516
0.480728538708864
0.485548643854389
0.484866338560199
0.476534049791453
0.478578007039252
0.485231912656935
0.474951958857879
0.473246937372739
0.475796549796703
0.4801657734727
0.473282488706958
0.471642525185098
0.478107223862222
0.46802163304974
0.466651124392074
0.464660223854769
0.51270298471777
0.470297819153009
0.448686546579004
0.466701155278841
0.444330882631824
0.459226486987615
0.43759558740151
0.487783288910775
0.454273042848428
0.43597597681257
0.437006762607131
0.437051077250024
0.44026760826163
0.43864775829933
0.41332524027812
0.437047301370368
0.407921187297354
0.490243613704431
0.457009702107603
0.4395345434668
0.431732645227579
0.408284292992367
0.408810872114132
0.405016815552889
0.438069628538567
0.393116744874884
0.410098113821744
0.391387819612302
0.421147342617573
0.397352620364166
0.383953390718806
0.39425760513698
0.388077787415639
0.400189046793312
0.396862980198747
0.38768074271336
0.400397110289204
0.408767045190307
0.380398111809464
0.418599939758507
0.384530321661775
0.376791820969089
0.356938374288406
0.370103975859311
0.37080724508145
0.36796290689456
0.398001844449541
0.350891588154531
0.355922155432803
0.346839000872882
0.333637654964002
0.348914513490432
0.34552324620853
0.354136321446925
0.320514171895142
0.367763075375299
0.321403888255602
0.354803642150758
0.337255569930077
0.366075139417594
0.33719842952987
0.323441227029382
0.32431849240745
0.34066635552196
0.348986047201481
0.315431507297396
0.323000073046377
0.309946598019868
0.304353887683672
0.320979374160688
0.296940732116716
0.31444341477139
0.31127476017094
0.308788908135519
0.332688271756975
0.315581302644061
0.312503010453025
0.291861160144701
0.282984718568108
0.296703328650942
0.2866869827502
0.295617822552709
0.284725313320134
0.293481923545718
0.299523519178155
0.282951583401741
0.320094540340963
0.288817441464888
0.292843113300847
0.294957527970361
0.295530285318125
0.308191362201332
0.330215135214026
0.32106409995707
0.314574005105144
0.307946550542815
0.329212227471881
0.305581967378128
0.327018269684732
0.318612880445693
0.33670355337633
0.333501448886733
0.344931912914097
0.340889532315191
0.351459809278692
0.353611064134878
0.370355187034772
0.366238909648993
0.400363945098311
0.36503682596187
0.41928437869025
0.398157658282101
0.423649110996431
0.415529688739452
0.41348481902818
0.426225703418171
0.430312706456424
0.436807605510914
0.446153054997954
0.448651579208686
0.475917851998019
0.450348370108697
0.474304645302891
0.467185845442532
0.478656489947863
0.476960767235404
0.500398898823539
0.508531381211102
0.523209672923707
0.525686874181811
0.490615074848497
0.51306041913247
0.495937563445511
0.522005692061928
0.516869290236465
0.512909952075002
0.515857411968187
0.514562093678191
0.547493281834614
0.52424592038708
0.524180042606379
0.535760278523397
0.536674512822953
0.544731078123754
0.54076814795922
0.540608243356631
0.551106588444466
0.551516215379286
0.561926238088772
0.55598546742675
0.595786867737817
0.568771869542865
0.569423166845939
0.589546530780043
0.580830553132716
0.59207286997761
0.584750669863807
0.598201858562429
0.608623861709227
0.602695499415512
0.604195789568944
0.601984309790965
0.618974364004137
0.623620004863142
0.634931223744367
0.621408572025881
0.628798982652601
0.633997961962677
0.637956718854747
0.678399100562485
0.633643909836023
0.673350496371921
0.645262973328023
0.660058156674292
0.647822533817649
0.659595242782472
0.659068156960874
0.664893897439338
0.65908409788894
0.664807928249855
0.669993860317989
0.673513428570526
0.677696786473327
0.665774164704615
0.66969679024759
0.659649253952283
0.659548065530383
0.671117024791327
0.662256328849603
0.66639599386483
0.671343619884551
0.680156519724917
0.657860122937573
0.666468009149509
0.649197597416415
0.683652233892354
0.672782442791422
0.659137995813047
0.663184007458942
0.670588148677054
0.663178255429448
0.670400562878367
0.655696458002265
0.690692271212342
0.667836628847218
0.675927057484049
0.676632569465585
0.685708397780925
0.686533769361384
0.692417140554793
0.683377835558113
0.686337245218761
0.689356035429441
0.700956661442635
0.701977381366595
0.701598588224883
0.705213557140712
0.704989244542098
0.70269909159783
0.70171315434639
0.697033295221461
0.697813798571332
0.692499245283916
0.702970312197073
0.681197101691731
0.678017842604202
0.669153709259127
0.676601108791892
0.667643000405066
0.692651455504249
0.669174361299569
0.651605796321949
0.65720627160395
0.638750714833616
0.637642803716896
0.635401158390249
0.637389242415655
0.630068930318424
0.62933083859295
0.617326060151182
0.616888499685307
0.615347944366257
0.616108201383529
0.617975645952558
0.614834188959932
0.613415806490348
0.608879948093759
0.611742461015586
0.610173037374099
0.603265065644598
0.601498578508398
0.604825214628532
0.603815301275349
0.604873231490518
0.609501947598844
0.603092475452467
0.611415617355317
0.604385962610024
0.607961960011159
0.593358644625016
0.603904640458936
0.601259723924324
0.598554191826187
0.596225822794625
0.600381980587609
0.602477257272301
0.604601576800691
0.604786975364202
0.595550291499533
0.591212188797654
0.592362475528671
0.598366610188405
0.597796750715654
0.592543331339473
0.597592145707977
0.600153313217361
0.59600788503295
0.60657605275751
0.600093111629698
0.60050363066645
0.596139997254132
0.600948561454034
0.59572415078372
0.597463097111032
0.598423556128489
0.600085284923237
0.596280671601225
0.593789161237774
0.602420539123507
0.59594234797105
0.598297775912828
0.607588165734018
0.59397220240032
0.593001763590521
0.591564895951209
0.586681958088316
0.581652720621493
0.579276746501611
0.574327001409573
0.573123032510169
0.572534769450984
0.561528810172842
0.554521014416247
0.554754327540542
0.551020039385095
0.543588517293533
0.539723884503317
0.536306498084954
0.536457004973233
0.535119737188983
0.526392071817056
0.531412891588797
0.527699913759222
0.52864368222038
0.526213518030417
0.522654544722395
0.522844665079609
0.521052731319998
0.523670255021412
0.525560861282328
0.523494218503979
0.52562330073617
0.5241775046408
0.52893636173071
0.523777416212911
0.527305274817904
0.526148229604487
0.529421262520715
0.531435599373721
0.532963037441864
0.540213166881643
0.539739639827489
0.540494469030258
0.545136762328792
0.548109733947614
0.547010794431641
0.548652847365131
0.554003519892024
0.553503066910031
0.55621601932659
0.56291123246186
0.5519293740715
0.555292001840943
0.557745445910855
0.555921026516269
0.552561466394808
0.551441187141086
0.553417854231751
0.547528055040363
0.551430532838134
0.551296819781718
0.547428675807953
0.549619806066015
0.541888429795329
0.545071927646085
0.545471216678869
0.537816483378489
0.539275396571993
0.535045334378994
0.534094166641885
0.530079786362507
0.536814155895049
0.532797278330937
0.526026330769083
0.527161391796917
0.528976786790061
0.52633554901536
0.522771857738726
0.518972237374474
0.518989292238887
0.518677899745788
0.516891149014535
0.515588447047099
0.51297884012527
0.513097940623354
0.511135337038391
0.510360410736705
0.507989150570117
0.507362445405462
0.505335525317532
0.502921634854666
0.500248452890573
0.498717527633231
0.493797149958715
0.496422705143307
0.496624066115953
0.492868773574431
0.48443657369241
0.480091286864777
0.479345773822383
0.476992017760634
0.472288823933166
0.46726617812044
0.462152701817956
0.463376610169089
0.459095403132475
0.457225632806079
0.45413295218231
0.452009273017772
0.451835991302521
0.449863323596967
0.449224430017067
0.451520237069607
0.450640495272852
0.443112039457223
0.443819314036361
0.441728568516527
0.437150758372692
0.436023942552894
0.433729317361938
0.426206196859577
0.423361727282356
0.417504633029901
0.414678918305284
0.407164816888851
0.401834973559359
0.402253771198308
0.396153321465354
0.393365280931414
0.396657521489309
0.397407594912453
0.394615152302553
0.398844834883805
0.406922588854572
0.415296766155926
0.421349735356957
0.433112374570278
0.443794965198067
0.452916291656558
0.46883371234641
0.483302961266319
0.501238014276162
0.524037097122399
0.539503962692932
0.558336766688618
0.574333433109974
0.593350197276902
0.608428211352842
0.625220795596198
0.64321617313307
0.653100986385988
0.681185475093484
0.690487559499681
0.695986832330576
0.714808538342153
0.735681341441328
0.747077984795872
0.752830816380423
0.766200429650435
0.783654912161578
0.788070818357262
0.796399635533338
0.801564806064108
0.815753839072004
0.829265290898338
0.829008176222912
0.831887170682533
0.828378312227943
0.836939234859573
0.850448363341402
0.846397854377485
0.848583194962414
0.841395377819315
0.850302393173471
0.855458628640625
0.848165387852411
0.862716602310435
0.846055799973613
0.855218657095501
0.858998562567397
0.865153285058002
0.86817428934608
0.867503029246981
0.885139704146949
0.883676034077761
0.887514641939336
0.892715068261582
0.907481511211938
0.915910700202804
0.913744293163548
0.921820615696021
0.933555600242215
0.942593775911929
0.960123572377004
0.969364179677364
0.983665126192129
0.994632315256283
1.00230461173367
1.02288867609443
1.04050676806087
1.04427671476825
1.04438618149617
1.06504028266961
1.05696205146082
1.07353938166711
1.07643360474948
1.06517903307677
1.08599106616173
1.07988386986014
1.09141879263849
1.0881124240463
1.05356799865647
1.0596962626169
1.05394840281283
1.07443346939364
1.05099516929407
1.06952636404899
1.06251841122886
1.06965533276089
1.08754764258833
1.10497640101566
1.13110526439712
1.13633902750734
1.15801364639398
1.16782430475679
1.16124174263138
1.17132092725519
1.22233981642295
1.21728563485775
1.24554381178465
1.27570117244587
1.33551619902244
1.29507564660946
1.31614240640417
1.3357202367789
1.34194820997827
1.32665592356256
1.42495309692548
1.38919777341696
1.38371246546709
1.42909821100837
1.4999382074523
1.45359669411607
1.53222387011545
1.52089626767208
1.56794563109723
1.58800800964739
1.60135072072659
1.55732596173704
1.60330634138169
1.68338171948469
1.73883273028061
1.73011434680568
1.71419200404412
1.72857277423949
1.81710782156297
1.73952813046959
1.70493259353898
1.88198673893273
1.75354842012235
1.7799134401999
1.83328321398026
1.75376767747307
1.73209933636832
1.80992891525045
1.7447154065353
1.63474710032748
1.70768759583432
1.81984021859601
1.8469215830002
1.77449340634366
1.88876740095682
1.72957412960577
1.76841590847223
1.72948178231643
1.76329266246728
1.86554152729998
1.94232250399218
1.8034609843251
1.76818277583457
1.82375741756444
2.07911464101963
1.78129588200956
1.99550089149225
1.92852514653655
2.10321919415185
2.06664107658615
2.27512058560679
1.98956170596643
2.07431129632308
2.14571938661484
2.09628483102497
2.01635763003359
2.12134486412941
1.96458481513127
5
1.98194476775829
1.98344960438689
1.9474119206625
2.38869303676685
1.92692637327318
2.09970177109813
2.0967526375588
2.12460776428019
1.97994381612374
2.07649872689251
1.98862160894267
2.1123759940937
2.14563706289732
2.13885433718033
2.08011343698474
2.82883927556374
2.15496277911388
2.1123887655428
2.09758769847187
2.00412946380633
2.01634745044357
2.05382572063845
1.88860619749217
1.93971510425314
1.77535245140288
1.93870573872135
1.8027083111344
1.61634831911572
1.7757723239655
1.75020521837207
1.51307423481921
1.6658085022572
1.51146597935664
1.51513117170335
1.59129810670844
1.60258124484969
1.61719461066678
1.53798410071806
1.46381088181437
1.4779944369279
1.46279480854791
1.50376840983247
1.45345866029131
1.52811418352922
1.45887567654456
1.45365696961778
1.45439594420283
1.4214221213705
1.35974022180035
1.31544803784388
1.27799162907167
1.27803938347238
1.2754524143805
1.28033862288021
1.18418852936139
1.13409325286795
1.13805601916913
1.10614151613545
1.02565352183192
1.0094426339423
0.953952542188076
0.942721319744316
0.889364727808602
0.854558997565389
0.813077554596761
0.794366265386288
0.755004414919765
0.733063133139885
0.706505040361157
0.688696287688313
0.666312513225118
0.631474209986132
0.61139564874405
0.611756481592724
0.592456845643253
0.589476253380313
0.574516451511129
0.588274032224301
0.561225137927075
0.569268194549557
0.556232813852219
0.557518632583063
0.556839663231178
0.563997592700043
0.557938567250399
0.559387408604797
0.556604901078187
0.557361047492636
0.559871672514518
0.560442076444745
0.551264276067136
0.55784566925446
0.5473523972518
0.552424381356582
0.543788836913336
0.542944449975548
0.536855055824518
0.530419940497918
0.524373306418506
0.522122050294749
0.508558568985167
0.502349296377474
0.502084417685727
0.503352602897222
0.511634368831929
0.503850088304586
0.501625570675803
0.507406458114018
0.499237355527594
0.508672690850124
0.514629821440203
0.523232576054592
0.50951881700974
0.517137807888915
0.513065490867069
0.527362903612301
0.533186897558274
0.53823730315898
0.536312519189868
0.547810962717082
0.549050062164863
0.549221088974258
0.555424379350209
0.557674299511001
0.562083012060545
0.555209963753359
0.545393560515437
0.560044519664586
0.561319821679966
0.570557738471156
0.560620405585577
0.571448774305243
0.565103346002487
0.582802837217706
0.573659430449549
0.591780508458475
0.592650697292114
0.613754419024724
0.609877535325521
0.63660418691833
0.634070775561632
0.67705287691326
0.67176723186781
0.718642888636479
0.704346272037332
0.734501989167899
0.755036677669165
0.750234984603171
0.736391428621519
0.76505744363936
0.713339189820534
0.737653408974998
0.71413924282017
0.71517007334809
0.699102809025347
0.705638028799878
0.684899724016777
0.693709896280176
0.661182172429852
0.687400212107009
0.665201691115799
0.666702946470335
0.658476204354384
0.675414875530333
0.662752017216753
0.686489059579121
0.658481166296877
0.679432879566353
0.663597966400314
0.668288688873355
0.663963250175667
0.654799150940088
0.636749377793624
0.654580130945394
0.610457433968473
0.632342281608589
0.609738142561446
0.625838569532849
0.618581075121611
0.600503540558823
0.59969766353135
0.587432460454319
0.579839130645644
0.603120648509941
0.570890960980413
0.579379916302417
0.569382079689567
0.582820121598469
0.581936491138711
0.577039073746713
0.557321071952825
0.571615531206312
0.555653570301055
0.574723883236429
0.550203582941454
0.571042034939321
0.540406060441414
0.570894848466315
0.548033548612112
0.55063936843823
0.544141094362324
0.535909311810917
0.536931058400128
0.540884533274232
0.522065344281022
0.527243430687412
0.517744360295065
0.541603915670792
0.532940883222188
0.521592092076018
0.527696440343365
0.539513087384698
0.496460562667127
0.509564729590133
0.515768783588605
0.511865288006732
0.518781437462047
0.510588356676098
0.500231434865061
0.52347235382132
0.509899188685792
0.516608086098434
0.503732023983571
0.513504244434681
0.513032793902939
0.521643728886782
0.517921482513398
0.514691685543139
0.519734716944832
0.532324015128052
0.503949933277129
0.529224180420539
0.530089997938452
0.530744951657675
0.520188924785743
0.53095592301388
0.547930629202277
0.54609491493685
0.552498682966663
0.564450108664719
0.559046419891509
0.566415317783633
0.57412943827231
0.591582791360482
0.583519174706435
0.609380691410266
0.61334641869319
0.623410515037728
0.603379256905168
0.625661170119176
0.641378760914146
0.658967267160622
0.660324878260634
0.718090292824565
0.717091935146006
0.71806701988469
0.729899451293959
0.755953134257362
0.737589327894175
0.815491904410953
0.856388918562702
0.840523921358805
0.857105583306623
0.873385349361167
0.894047796845051
0.88612278932253
0.822677010148525
0.876099193700331
0.854732689529152
0.8565859691815
0.876422673749288
0.885402081373333
0.829784983559249
0.89435505088478
0.852317491163675
0.928861073779027
0.852122337501635
0.891547224178091
0.824940803764544
0.852393570880677
0.844209926205624
0.896501221260052
0.854461544381346
0.872218908164184
0.801097490143036
0.893181168536881
0.789333530691656
0.821416323227513
0.770288549427987
0.885343710681553
0.739840224777621
0.80536816747035
0.7673712674402
0.737495788388377
0.77132028262251
0.844401882975063
0.730265759743065
0.800536490015638
0.730687894595793
0.791828188105501
0.727502864848965
0.837599748064704
0.747689828495712
0.828529077027667
0.79095248099284
0.755038867456946
0.747109650064186
0.79224792810246
0.81998143795162
0.767802255735938
0.681805843044933
0.835534121726879
0.860783050234782
0.809373645439632
0.783969102630549
0.81504056873414
0.694695339512252
0.801791204928886
0.773274409671086
0.896675026096615
0.770302653984127
1.05249579588955
0.77192224055419
0.864454665943036
0.775627906084352
0.899749809953145
0.82309766901928
0.841635117545838
0.85841650777009
0.835131799741574
0.828513321120207
0.870642250294959
0.793314419189979
0.96562012504127
0.924959367671501
1.03741923459406
0.885712110232201
0.91920705054068
0.841890028135864
1.01616548069302
0.876307158410802
1.06697316101126
0.815008922483931
1.00493717835593
0.935377922562359
1.23517850196837
0.877018692442243
1.1030787699502
0.875082066471003
1.05131604098177
0.955198214970467
0.99871378911881
1.03206631606276
1.22384897568521
0.789051159017378
1.1072733822419
0.999861289446035
0.990657010430364
0.827669097335146
1.26727813754359
0.864271112919403
1.04639437424266
0.996570446540402
0.983620182852745
1.05572084116533
1.58077995070401
0.87308520780416
1.20577600100007
0.959096276815546
0.962593635053035
0.846475083146362
1.58204171299599
0.846381193601385
1.14836055900866
0.726931407142561
1.32425242220728
0.732188808557882
0.882057725326432
1.06569540240427
1.78164074164998
1.36019475641833
1.16238718963794
0.842773461191888
1.46931835576231
0.833904857950928
1.14591325527924
5
0.930265447417357
0.828012746154526
1.34907396438831
0.862799123785344
1.35771603373693
1.18582485678194
5
1.13345374359583
5
0.865593103463014
1.01096339563904
5
5
1.12148823691282
3.07608506051419
1.34126784121574
0.703573242355515
0.422675416240414
1.24319283845198
0.580822479334688
0.674764445403409
5
