3596
4000.36533379555
650.420452594757
1
2
2
0.0434221222284185
0.0481817624935602
0.047205243671551
0.0455270268224475
0.0394523920865824
0.0454622763201178
0.0447192650036466
0.0460556867655098
0.0464995199460003
0.0524853567257779
0.0521730388032596
0.0513618172656773
0.0447137441206507
0.0387584727837867
0.0429045283764025
0.0465093647865647
0.0489758615143787
0.0483223468735731
0.051434592084445
0.0536413766598327
0.0474169465960436
0.0518786917087746
0.0494405427311534
0.0505086960009963
0.0436831365060302
0.0430608628400239
0.0419603189232212
0.0477047993422572
0.0451441239430855
0.053375352932612
0.0473379109099565
0.0505068558647272
0.0485557915298479
0.0560885003140428
0.049098323005307
0.0520269476109658
0.0502175032601443
0.0483228004777172
0.0387459970082906
0.0434244038306553
0.0403671090163843
0.0430018160841139
0.0469586182109991
0.0532491144058335
0.0406857941036395
0.0411449931618038
0.0483568567041762
0.0522705369160989
0.0433374786810982
0.0474437808885554
0.0386638410848611
0.051566739754597
0.0541150405929233
0.04427726880636
0.0420408021494285
0.0400318301537997
0.0423974733082828
0.0498305246817125
0.0451568040578151
0.0604692625580874
0.0552029139465551
0.0411439580544222
0.0490205815611664
0.0433951016052384
0.0500849384003983
0.0436830785877108
0.049949098393556
0.0406689411229979
0.0514133141805151
0.0451634733203063
0.0474264066091269
0.0517153888557009
0.0386063770944184
0.0543113514417767
0.0450416424131287
0.0421261157898019
0.0478370638544097
0.043635762775244
0.051488585874988
0.0469510026385664
0.04898180112825
0.0469287086009006
0.0438473849953592
0.0487272846854771
0.0605245083640818
0.037586834715788
0.0464226000543162
0.0406507676887263
0.0412045284488742
0.0430648958861823
0.0393824571610407
0.0461315149531231
0.0492087224249966
0.0436021686367555
0.0564378936584875
0.0458483044915395
0.0496428509603617
0.0340228209477117
0.0352990154497901
0.0479908720839185
0.0365526268910474
0.0665806633748376
0.0157551609667394
0.0698514039259538
0.0435627142124518
0.0354428638420385
0.0649747181583861
0.0306239091839377
0.0526544434425643
0.0349461146411336
0.0443501680375316
0.0377285726315745
0.0447204993712464
0.0349101523250224
0.0602052866166344
0.0480992058151793
0.0278426577957594
0.0355247882075913
0.0368454691149939
0.0389478464387442
0.0472068473706277
0.065691987273929
0.0365039499338628
0.0536710690397879
0.0373476026505511
0.0380356271624284
0.0448008284517174
0.0409075396516054
0.0353039909647653
0.0451912440367068
0.0399818941539051
0.0488484546093796
0.0350957614987656
0.0661447095774022
0.0302758624860794
0.0407991407431447
0.0296675402564916
0.0508877974251725
0.0815052768467217
0.0306066392761708
0.0486727081776857
0.0346204889938254
0.0444687040584924
0.0490643244805555
0.0284827422756863
0.0376106981200279
0.0484645686233699
0.0367509907274567
0.0309506519330856
0.0451436606807586
0.031727327770366
0.0439701526444396
0.0449830386935285
0.0437410863682168
0.0602539548256642
0.0775091221490842
0.00393500193759381
0.0833035528256348
0.0124031523059207
0.0356347021202665
0.0379685622592695
0.0306820654528402
0.0391990071251533
0.0434867252882321
0.0389569706337024
0.0345933767162601
0.0480690215938626
0.0253015405208679
0.0420048011297924
0.0559083462640952
0.04574845090045
0.0334542837659509
0.0598798715897925
0.0226836783781996
0.024972806154798
0.0509125215009916
0.032513463260532
0.0369784066372088
0.0328131463791618
0.0518746874139962
0.0313171420661387
0.0510532023281246
0.0369386899410078
0.0427384827133333
0.0493646739914272
0.0417896062163565
0.0378627035502596
0.0476988220789587
0.0311849559296907
0.0606407938672478
0.0658690258196106
0.0529110762841542
0.0257890318554041
0.044203907202003
0.0292586873186917
0.0478024389202379
0.0526086553959036
0.028617215147316
0.0427517873233296
0.0364826439902282
0.043181610978733
0.0411306599080169
0.0352753420507549
0.0399531492284432
0.03546736481237
0.0546904327849777
0.0404361513404813
0.0290409981912169
0.0409241256624298
0.0433587795025858
0.0474768673810723
0.0536727587400174
0.0621911026992868
0.0226307206072223
0.046136942251112
0.0299775238054823
0.0457531187760819
0.0297248919993435
0.038126404104284
0.0329488913570393
0.0315351068319173
0.0307060852480317
0.0461145492342873
0.0341281326470213
0.0383251224082337
0.0332639679669034
0.0366953317161994
0.0417871890838377
0.0428393472896216
0.0425438705125375
0.0503060772490462
0.0296247101547727
0.0413829655149305
0.0304387023307303
0.0356176989428471
0.0563419863520492
0.0342803473948934
0.0306426976891021
0.0366231110862814
0.0403129575316324
0.0358357359918405
0.0389458305051527
0.0293725342450437
0.0396754353613854
0.0325239433646747
0.0558566472062516
0.0369743782772066
0.035174999705207
0.038126169386847
0.0345378477742629
0.0615823472257436
0.0241892619801302
0.0471342287792088
0.0309288548131807
0.0516781723849534
0.0315898589329819
0.0654964506562497
0.0343149088164422
0.0417712320716746
0.0361819499295162
0.0541077195861136
0.0269180991184221
0.0579212551454469
0.0313430463714938
0.0675084112007628
0.0234977525323078
0.0339972917302132
0.0671133875509938
0.0433339190809288
0.0184591186333574
0.0633377796392358
0.0289469399875821
0.0919119675959728
0.0613868052943352
0.0303612467750544
0.0244843081704538
0.0506257122454006
0.0331049624218726
0.0423981892384237
0.0468017214586741
0.0439579526305171
0.0639546127683369
0.0384730329410027
0.0602737257324417
0.0433448532739645
0.0430821605139114
0.0714630709453705
0.0208407289704474
0.0517265624447604
0.0320768430880288
0.0506158033281587
0.0374669771171068
0.059309343226581
0.0323255810150392
0.061633604575949
0.0215838076723725
0.0639440402065499
0.0327254826170495
0.0521434537758555
0.0294966148828578
0.0519668796470064
0.0281672799346794
0.0558010053229894
0.0410872713734413
0.0514066371897277
0.0426312490470012
0.0501309885586916
0.0602625920569054
0.0691474515037231
0.0190799245464842
0.0679273037067268
0.0380521934848527
0.0521468618564772
0.0467217795957497
0.051060397576757
0.0383770423023853
0.0504971494760646
0.0328333324454182
0.0532297902786817
0.0561299046692803
0.0521619698259865
0.0458710209126965
0.0446682230872223
0.0489078222558075
0.0494616329586041
0.0455501306385303
0.0517771425675957
0.0493768852668501
0.0515561802893749
0.0449112691036142
0.0898782873066519
0.049127778664609
0.0658776432317034
0.0875035118319642
0.0444296714161202
0.0504154516932369
0.0478754207113915
0.0577218283979596
0.0615081581254642
0.0536073372679794
0.067545225002762
0.0613396928122888
0.0640826937914467
0.0607082709289073
0.0680493546198214
0.0610892456419291
0.0843972710790946
0.0913864021930367
0.0710085087275367
0.0541195434096158
0.071847428858225
0.0572728916473635
0.11120437990133
0.0493024626201303
0.100443092836576
0.0580043092701372
0.0830355372764442
0.0658562904921308
0.079055726923152
0.0738255781795427
0.082961631041238
0.0764116240104411
0.0858141625511195
0.0890344423936607
0.0887183572518871
0.0874840286112898
0.082032059555448
0.116600092046488
0.105366561124758
0.0777337123955353
0.109242947981419
0.0898924476900807
0.115943147930359
0.121626746295016
0.113952241809638
0.141946319181818
0.110339821290817
0.120552408593317
0.103267277543312
0.0935289190906266
0.119153811686766
0.108167492004934
0.122644665945748
0.124636188732409
0.123903767222938
0.122961767235381
0.134022815063259
0.126309948883582
0.128604290439659
0.126489538009123
0.146281893694789
0.130438341524068
0.152593001202287
0.144083930096136
0.161225622587379
0.146700352426368
0.201926098908751
0.151627149590361
0.176061568068997
0.132481819246504
0.184743478896767
0.142487692917013
0.181107750360978
0.150622991186405
0.172809875116818
0.174029398197329
0.194702604894069
0.183556105297549
0.18637710882999
0.184016379743172
0.189746817596075
0.177073259069122
0.223417929607081
0.167910167619255
0.225486163694122
0.191604013024504
0.204714171059261
0.19999227551371
0.263201600345461
0.202256048691949
0.238801668308748
0.196948420760653
0.216934538239781
0.210238186423377
0.234726795755165
0.220184008820632
0.228158943631571
0.244082752117678
0.242164535478353
0.246610392418454
0.243979071579531
0.246196729042753
0.26981739035609
0.266884832450302
0.284751592996078
0.251491450758133
0.284807455532306
0.252144236315687
0.288865721777541
0.259924314621965
0.336446074721393
0.273991650438142
0.322934155756682
0.266074727859557
0.296949609842023
0.281529940599146
0.312425448251596
0.27834736592503
0.312979630337092
0.311625826230052
0.319288150554694
0.316221951211988
0.341161772165984
0.316187370643609
0.355226675064159
0.310453693981622
0.357755404587815
0.330716434843674
0.365420745724992
0.326463461247676
0.384045246753591
0.363997042261578
0.425461280495522
0.351142465030496
0.424484467204727
0.359430791628977
0.374725764171349
0.365258631767765
0.395217624639512
0.368957627111281
0.400792589256571
0.384170036459072
0.419195350997454
0.387335518309918
0.445053859377749
0.406954076362811
0.43340236142414
0.391910213064632
0.460831994072074
0.419029311614021
0.477230669385173
0.425000135170637
0.461341799428261
0.446678610242002
0.475018294081998
0.435262298043461
0.486572705223165
0.456912563023588
0.490049735654059
0.461840881770878
0.490838833204178
0.45413982246601
0.519684566080527
0.467150882837464
0.499720127355613
0.479620591083069
0.539903542373187
0.485336576627412
0.534697430301872
0.481467393403966
0.563235618459195
0.508074327070937
0.565679599998266
0.528405526883461
0.555329938742768
0.532899011570473
0.571979997822022
0.554351257631391
0.601589200169287
0.525236596000161
0.599965327976313
0.594186671847843
0.612665292714519
0.56689039491579
0.632521839435212
0.564249420300366
0.615126432807599
0.53931015509132
0.647538042698942
0.558900685819372
0.650473297124871
0.589639893864134
0.689891600607363
0.63083333719592
0.668324263978422
0.634276310569644
0.660271972397104
0.60335472928715
0.718671929338179
0.623606841977429
0.688234796523588
0.625064014630105
0.743665974320658
0.65441317658722
0.725822254141486
0.730986511797663
0.715356451473034
0.671436483439754
0.748296586212687
0.679186464166006
0.833788902426783
0.703333842066147
0.746439874084416
0.717850777035317
0.770593812758501
0.680829110204631
0.844191634179778
0.722552020369861
0.837996891393594
0.745879108514785
0.85065298448224
0.772758752122525
0.847559954699664
0.740106966017611
0.842298398938951
0.758914315529971
0.861237518704019
0.731974894061069
0.856877155562856
0.821206557009451
0.838603585940022
0.861051641190998
0.855315915878588
0.788644706598009
0.907878326134233
0.80252476050348
0.917879314768107
0.83776259709209
0.884478241178551
0.843965691722165
0.91240048146999
0.826876514051773
0.995402588176087
0.866752521390136
0.949851593582945
0.864573309203638
0.919157141846096
0.818030445318853
0.920181203273766
0.849822003664526
1.00073400677043
0.908826977133061
1.0255703441594
0.904951586632331
1.09519442047835
0.918394081144181
1.01564523572186
0.928618878374145
1.02631878508964
0.932228894753238
1.05523125827119
0.938972400956664
1.11883420694421
0.896599982095102
1.05563495957684
0.969706113002499
1.04646873795901
0.903362268236999
1.03662598011586
1.0165265373652
1.03612240752659
0.965238880257909
1.06232057034281
0.918827357857484
1.1731678693503
1.00327262759873
1.10658247585749
0.993971679186786
1.13342087369575
1.10077456720824
1.135175793691
1.0449581533437
1.16072589618397
0.983777007566054
1.24339599490583
1.10891548989354
1.26463648043068
1.1354982284164
1.1571296755397
1.07845749412419
1.25180489976878
1.08230391989047
1.23788526421094
1.05113034791261
1.27482150307886
1.06081908898649
1.25277105625773
1.05461172413196
1.30410276395195
1.20461888892642
1.20348944813221
1.15420150361855
1.13151261168248
1.0598236317835
1.20524442579945
1.09823071428845
1.21791226507273
1.17694754977686
1.26275656284064
1.0742843990171
1.24264275232343
1.0365874877158
1.26325094189652
1.16953671781067
1.41743334876621
1.17479135560127
1.28067089072206
1.13156074434116
1.25290556247461
1.22788786934689
1.3628992065162
1.17434126797295
1.23979078204841
1.19418101972411
1.32226212388462
1.24156034742938
1.46670892631387
1.34048736551773
1.38507608586893
1.1848469408022
1.39978420991249
1.2191714625681
1.18552383407294
1.16788135842002
1.30376579776266
1.42164051985299
1.37383654416522
1.19072502385228
1.33385171500334
1.17491587157199
1.33286874425662
1.21003031779721
1.28258128644621
1.20846082325961
1.36701817293981
1.16360475405937
1.35187083360339
1.29045231142254
1.50598608620649
1.20606192517188
1.42615441958323
1.25415635625833
1.47633860223099
1.41650423583836
1.28695629307006
1.26476240526114
1.22400239215648
1.32894653260159
1.4337391182307
1.31827639579848
1.38867053921759
1.29278917124129
1.52946411411428
1.27564760654787
1.51286795891773
1.32432481866396
1.32290242053782
1.33385671873355
1.52340522537822
1.39633516738464
1.45973217394866
1.26231420110025
1.34311074561562
1.28648737903067
1.26475195227565
1.25470098703921
1.49395106772209
1.31043329101165
1.35717948497245
1.38128035174596
1.68261723313406
1.41389523924687
1.39293571424864
1.3929007290379
1.62182899986511
1.35629745923573
1.50223129763852
1.33760890751683
1.43449169339884
1.44377480718964
1.47495289208934
1.56827501527549
1.48995918018259
1.36189647974253
1.48847387231045
1.38928934597198
1.4256546641614
1.29352449261201
1.63106300843802
1.31100673515287
1.44887458114155
1.36821482594256
1.52949312650396
1.37147488214572
1.35898378487598
1.3106234570608
1.5770762460835
1.31064466748441
1.45274097823112
1.34137673249146
1.43321903432759
1.44720139686426
1.36861358147583
1.31922791048417
1.53733319973214
1.47775144196705
1.42634963115332
1.28763574764061
1.60383316150721
1.33703932191652
1.39638133031734
1.45595183227177
1.64328512530537
1.32609242975023
1.4953644632748
1.32830465567045
1.48476169709835
1.39987590079207
1.47781137536543
1.4592036958626
1.52299858427395
1.42833913670495
1.61769216028422
1.49082385228616
1.40540452100607
1.35300193759592
1.36794240275756
1.41279254864233
1.552583875945
1.39785418215389
1.47320452273171
1.49376569603075
1.45790750111019
1.45434173539023
1.68698516958131
1.37738293898736
1.44529098852895
1.40597366435447
1.38368516568644
1.28078430214966
1.52130089947206
1.4386171674111
1.49633173999384
1.27317345710066
1.23358569519609
1.3122719922887
1.31545909212101
1.42221666485916
1.37858969895321
1.27942280210689
1.33483912419509
1.40968848929598
1.43283850171601
1.53733644846549
1.48993967152688
1.35415775782765
1.43154180082241
1.26367319208253
1.42454527159348
1.37298895823099
1.55517637940565
1.4587898265171
1.34010507749219
1.310914112646
1.36692898699202
1.28553848206875
1.4294465094959
1.48192278636382
1.32764995990851
1.26394746829117
1.35678866652515
1.35222389699373
1.30704504475882
1.34869677818316
1.33112992590993
1.28139463070863
1.36658041004268
1.31451479307132
1.32931672559779
1.29170080104577
1.35658050844496
1.32175671367121
1.37885625764724
1.2923984704057
1.29892748975643
1.25148709444186
1.36299692880668
1.25530052466423
1.41561375225636
1.39963497790063
1.33730671720045
1.34202718734492
1.3817663756256
1.33667934863775
1.29200929904145
1.26474232037613
1.36313686788124
1.33108406970453
1.33034887033835
1.30521517930767
1.35073371887698
1.23681700854405
1.3307487651217
1.25434862528696
1.17592884053695
1.19575668313299
1.23552032080357
1.2381440815039
1.34674496770337
1.19784542161232
1.24159745029349
1.23789579773652
1.27206335173715
1.20455659878832
1.2025185029574
1.26273015111577
1.22273790153188
1.24981013650402
1.23895600644506
1.16412106719036
1.2783915123461
1.35331140288125
1.299009482689
1.20515404487307
1.13273637295737
1.16900906833082
1.1630521280592
1.1099576247756
1.17593680181746
1.12221384361476
1.18405989784174
1.18440382909898
1.15266690784186
1.12834218252693
1.10735953875351
1.14038590402137
1.148683717898
1.11426420770728
1.10243922287963
1.0828402314907
1.13043638728143
1.13196029598601
1.15363122135798
1.080517886913
1.11007524822084
1.12075708371306
1.08859411664351
1.08713011474359
1.09685873227527
1.09297483992078
1.12635684236947
1.10313312787025
1.08501983628532
1.06023725254724
1.07211625256104
1.09454863183921
1.0797845855456
1.03446024314649
1.04518019962091
1.03434648799567
1.00096277009964
1.01938534481194
1.04390095344571
1.01764750307398
0.998777009404586
1.01229961086313
1.04300450214666
1.0260254385806
1.01988578456121
0.942825801831015
0.995440660493274
0.988582669524898
0.996809397281772
0.983257900383159
0.92505593383153
0.993081223053113
0.978535065497381
0.930459405680326
0.943063535908169
0.916142238675659
0.936953251376648
0.931760862032718
0.944398571768359
0.954916622657596
0.907955814982329
0.883818038059165
0.905187220344612
0.898749754037605
0.89684229264956
0.884192179486734
0.914541582688426
0.914532834067679
0.868659710381626
0.901042176830431
0.904784363863616
0.856415915980429
0.861407397482917
0.861926378276352
0.879565451549331
0.894706319756134
0.849477881524675
0.836763630392858
0.835948229019884
0.830910571530324
0.848898392384404
0.863603910900373
0.820115815776528
0.784594754442276
0.829162599808926
0.815010213909878
0.820242175075416
0.821486635689397
0.790897059765304
0.815457098197352
0.807553203889021
0.793233465700457
0.77939189160168
0.776987508224842
0.761035223673546
0.755467743551333
0.78885335529893
0.761606931396426
0.756830320007323
0.779378056454897
0.765419322387665
0.756112132071465
0.774078699118235
0.749034481887857
0.735500654554963
0.726066035533095
0.735847839085664
0.740817517754753
0.717411019911143
0.707484278199677
0.706800278178581
0.706505549792525
0.718386471157837
0.704001376774965
0.699479087314557
0.701973159599133
0.672060916931814
0.69351671408104
0.704715752721626
0.671004996244887
0.686509030133349
0.698954631268489
0.654739089123323
0.673008749714656
0.677014055626598
0.657500718838973
0.658270205699348
0.674076977396276
0.653824532625529
0.6393800309687
0.662658659232875
0.651892836620267
0.640783490244668
0.624736758329213
0.632872635984047
0.636264421421238
0.625203600437228
0.622325128207776
0.630516243727136
0.643132808145087
0.620662891402916
0.616413032841677
0.607570690874641
0.61370113485953
0.606014098132099
0.600544525326043
0.599076602358662
0.599278337030371
0.591206867708115
0.584001930605245
0.590189341253731
0.585468064511976
0.570608983603785
0.581049706693409
0.569298406394025
0.565098962645635
0.566072273580664
0.578288330684429
0.558019342264221
0.553399127006026
0.564205284648223
0.560729628368278
0.553558080116864
0.53754926675171
0.539663228230674
0.54885083705257
0.549412557322876
0.54905401423732
0.540020101753358
0.534929666337285
0.537641138160321
0.523887305020316
0.523733621396764
0.531453903323286
0.514015965919757
0.510845084524194
0.519481757113461
0.513526929442234
0.509876942316991
0.515768308745706
0.513598791553441
0.502811893605697
0.503113941836578
0.504052432228395
0.500929936270781
0.502711966039556
0.490158012994091
0.496230921068956
0.491204048560161
0.496070342015645
0.481363344043343
0.479257403610524
0.485140620434447
0.473857863740629
0.482958365029287
0.492191001178392
0.467536444693048
0.460322896395253
0.469500095218003
0.475541368400486
0.463449014192012
0.465250607654894
0.462409366591428
0.459472394076664
0.451852741875718
0.468267431170462
0.470363553845591
0.465180294235665
0.451476174713191
0.466957360007668
0.451196970788086
0.446586101494345
0.445673382119218
0.464325356444322
0.446305210088746
0.450940337497351
0.442115812861103
0.45934441862699
0.453227924487874
0.45382905202426
0.452313381719094
0.451391257435526
0.442394492860376
0.45207914999251
0.461003313716095
0.455978417037567
0.449478712792976
0.457895840766028
0.462780988557901
0.466845852266497
0.456644337864824
0.45965344825377
0.469826884401696
0.4616329962874
0.463856034383211
0.474921629616888
0.473390184482857
0.477399658968031
0.478950546918387
0.478822472459513
0.474002951329296
0.484867870476944
0.474139489902032
0.48606329993596
0.47989416448886
0.489556020690868
0.484866458937607
0.49030519354933
0.489346283742189
0.496041059945444
0.501234588230401
0.522015560495742
0.507632172348032
0.514062428426826
0.503782623248323
0.525236131019158
0.522043735344583
0.518141240891906
0.50823444599697
0.527691342496485
0.533121970580105
0.519578847855997
0.527147331243548
0.549436657145513
0.54049231821608
0.54047398201719
0.533635570050804
0.558043390186066
0.549227328298033
0.555325047823912
0.550881932782429
0.564387306733262
0.556604777571033
0.578138267486976
0.576751286932814
0.58027427964086
0.57964714118288
0.605568300600351
0.58578079293489
0.605007161379229
0.587533308227182
0.617503580540816
0.59249555511179
0.610328547958209
0.60518722340342
0.619891343393867
0.596586931210768
0.614395812332666
0.60337741187054
0.614173459864966
0.615978034899961
0.610537760365318
0.601294590110478
0.621503329356541
0.611236446049369
0.622954503611287
0.582818156030251
0.595264264382598
0.60910171951167
0.617947315470971
0.596694065314841
0.600825902917532
0.592808625801309
0.63635937761497
0.61028915998376
0.62037220111033
0.589956672127244
0.611727646049568
0.600132448240201
0.609696902012407
0.607669063489817
0.624299002864819
0.6074045659851
0.614587908600306
0.618683818731488
0.602932169168355
0.611652641278507
0.633900719185682
0.606756958070648
0.609729468568031
0.617638878202636
0.605346313716495
0.595121959745666
0.616549600360936
0.621185378914765
0.620350598544216
0.615855688854698
0.605102041084868
0.597184073307001
0.615550718374345
0.603857129567073
0.610067103476126
0.597636489224549
0.617302217083054
0.602274107503452
0.629439225985731
0.601465381479608
0.610329034650668
0.601701364875476
0.634029433535217
0.614742449386138
0.610487705467312
0.590262107624953
0.588434861860218
0.58806858982904
0.613269447604913
0.575859749955431
0.582665665558861
0.569815543426715
0.584542446276714
0.5688232034718
0.593156069891275
0.578713076325227
0.589080851609989
0.562604601924644
0.573178984119057
0.550285265455694
0.569120588654428
0.546167253221181
0.560182903395622
0.548837312647061
0.544047854718835
0.531904306215538
0.53150019006398
0.524900732589096
0.531154679913545
0.516264455671837
0.5147528891755
0.512032777759784
0.515533635235411
0.507950886066915
0.50940668986913
0.493200070159936
0.51733468838818
0.491945278827453
0.490884977382704
0.493996462689645
0.490535516421806
0.479419344303313
0.475967416229278
0.467919047558552
0.473103684706922
0.454260762321484
0.461847495514436
0.445493182131523
0.459828200150212
0.457637648881061
0.462433867253753
0.457843770369683
0.452570687288796
0.440802141176035
0.445121650356792
0.441047118084182
0.438116475364177
0.419199474469149
0.443879625447602
0.429263537148206
0.434633358072385
0.424409519038811
0.429349318276631
0.41930480441326
0.425075671946493
0.415264510789904
0.42827103704769
0.417897305438577
0.430318634159735
0.414481255581444
0.416537330329987
0.406700556376306
0.410161247933977
0.409935317473681
0.415793346144856
0.409630593537139
0.39619835523832
0.401788557116331
0.405290825471749
0.395129505488643
0.400122870622644
0.400234633412816
0.401214780052886
0.390126372838853
0.399302393108273
0.385700473133503
0.394618070350012
0.386095467704953
0.385489802385819
0.383966571615629
0.389972422810254
0.38168603966996
0.382662779558615
0.368207354861638
0.384621322738197
0.37994074633185
0.378352608389375
0.371944736672275
0.382373843771818
0.366638709010427
0.378364847544589
0.372702173007686
0.372703246197882
0.366701591181595
0.369318252881991
0.368825895669293
0.364357892014003
0.366148170290958
0.371397138891277
0.359519904516308
0.364476151569884
0.354090446445505
0.363235307290148
0.35982691726991
0.361568158993049
0.356575458723081
0.35722262500639
0.346650754962619
0.35212006765738
0.351952737003334
0.353349925469602
0.347537496353745
0.355299140871974
0.354866614289638
0.349038318369362
0.349234666189548
0.349586276124844
0.338357590318529
0.346711921485281
0.345343076189524
0.349288991476606
0.337210657548827
0.352000860511048
0.348665608663189
0.351193693053401
0.338602140645269
0.337133955978178
0.332375025908298
0.337719162476739
0.338538576322049
0.339241544495918
0.330881728456713
0.343503126101411
0.338958428454036
0.338523094682208
0.330782744566903
0.342550495105105
0.334718760641376
0.339328615682818
0.329633636341558
0.341634925117433
0.331321122077209
0.342064842427576
0.323953150131645
0.331264215500752
0.327768423847479
0.332699046024127
0.325146988362825
0.336831175014878
0.32186860654135
0.332301494797387
0.322305449789401
0.339425642878737
0.321292544914384
0.327474262971809
0.32327399159628
0.329163374962679
0.31884848568731
0.333777423033925
0.318092871497565
0.32489852922171
0.316516976661897
0.32641219427202
0.320032781649375
0.325548481103442
0.32155987645693
0.326580602482016
0.315374099727275
0.32168667193718
0.317538542483417
0.323752624903929
0.309176229230773
0.318756401356481
0.308509766123862
0.31964808214869
0.318067772564218
0.313546393090842
0.313102211463802
0.315768395838284
0.303509168076024
0.318319899933704
0.309509898870204
0.323910738541484
0.303424122922747
0.313623649849763
0.305870718780082
0.311020156299699
0.305421324967719
0.309820458657916
0.307671662869602
0.30873529308302
0.299991622808495
0.305314016516116
0.301468549963657
0.31784841884524
0.29960113948939
0.304702604136348
0.291100132318778
0.306500782792204
0.295798421365449
0.302432198355812
0.295119086062146
0.303093332177625
0.294192409686022
0.296547815570776
0.29270262151358
0.295773897273242
0.292695910300665
0.287460116047135
0.29243621743261
0.294993654520144
0.29022018632445
0.290757719045032
0.284246238996957
0.299665884298909
0.28481405169102
0.287778190544778
0.278493608541849
0.289831046583055
0.278874308976851
0.285033355336403
0.277351939528928
0.28739469772744
0.274566661573459
0.289787763819186
0.277100566256135
0.281896922177865
0.270783357408522
0.278041060782523
0.271364969515364
0.277322623869163
0.270900441407226
0.277663867708632
0.264746048799059
0.277257430192381
0.2670805815628
0.272200540867052
0.263817818800646
0.268510890408786
0.25832140847927
0.269349525044159
0.259060729298101
0.269666578996228
0.258058537060731
0.266877676726585
0.257113045523491
0.262247265516129
0.24842660942301
0.26100091153761
0.251537911707545
0.259002821979951
0.25209389983722
0.261440581724617
0.250706529261148
0.25818698644754
0.244022533480937
0.252764348688825
0.248740832232048
0.249688064764628
0.242917783385156
0.253491706875695
0.244469467997818
0.245157682923311
0.239116815519249
0.246436530181216
0.235869869492224
0.241995976697331
0.236442169594693
0.240753230473701
0.242564894707023
0.241461834330571
0.234901831581254
0.238011708148063
0.229287543424727
0.23894706901997
0.230967084302858
0.232816345281905
0.226224388861956
0.235301236259661
0.22871659818427
0.237732001818685
0.224139474402534
0.228451311090118
0.2243636763856
0.229555275271938
0.222687587506855
0.23044276209508
0.225385040854082
0.226403927115624
0.221368660603077
0.225721317465792
0.219170934352148
0.225943767183468
0.218151780046223
0.218539259101206
0.217109073676901
0.224227034842218
0.213998567052808
0.221092326331819
0.214225950904267
0.219753624373365
0.211557390586329
0.223353116802226
0.211139158128542
0.214014276813031
0.213441032063123
0.217208832419114
0.209134555209421
0.213814663636356
0.208211918844136
0.215548797322906
0.206278768150271
0.209297489627774
0.208208441215321
0.208352411425737
0.20121986809998
0.209299319364481
0.20066836727431
0.208216983214943
0.20535411605542
0.20936074870387
0.200771895085325
0.206154040349721
0.200965518369076
0.208806722522978
0.199869027350439
0.20206605778843
0.199623668168803
0.208496658946302
0.198584717715309
0.202809553562428
0.199036356546321
0.201814942552887
0.196926985844
0.202009543796746
0.204047217200975
0.200682697578781
0.194841829141578
0.200575433726278
0.192149206579796
0.198287511285649
0.193175657963732
0.200118071939362
0.193004978547921
0.200783221691876
0.18726447144172
0.198257045780975
0.193641566829255
0.200001535585556
0.189583520215592
0.19621429540574
0.18912721662749
0.196070367663809
0.186374912944157
0.192696707653402
0.190642791616168
0.189905341969419
0.18802965558157
0.191454471344203
0.183113459655358
0.189093189374581
0.186461612752384
0.196406958411923
0.184974638572862
0.189092845559264
0.183488591603518
0.186403791705592
0.185457480869696
0.191063485378597
0.184416208194251
0.190766483143042
0.183767635554339
0.185210441635327
0.181676759201339
0.188311027240612
0.183112655984401
0.188412760533042
0.182424099689102
0.189087034902677
0.176159843706031
0.1812692155796
0.177036302201552
0.184771904281229
0.177173752369336
0.179198239841171
0.180072251390674
0.183038824732554
0.176230604323299
0.185113190304463
0.179444847095105
0.179884158255301
0.171999457872277
0.176770807634602
0.176360130630737
0.181522769415189
0.175094866995795
0.177013164731419
0.169896532479796
0.173908521939422
0.171822305782663
0.174754988306546
0.170782357288298
0.177353888514146
0.1695174008084
0.171435481979118
0.166230663843552
0.169933106074902
0.163453920100398
0.171987686699182
0.167550547904745
0.172882113497035
0.166195859023737
0.172284999019488
0.168804721483827
0.173502259249821
0.162149779991374
0.167576752940878
0.161656688922648
0.165902245789906
0.16278381303231
0.16498284048093
0.16115515368651
0.162255455673275
0.156512024239705
0.160414622687899
0.15688734298806
0.163061199890397
0.15419180899759
0.164463718071225
0.154937623378844
0.156115942846614
0.156555709032231
0.160108226252672
0.154271922973768
0.156987260798418
0.149679613025312
0.152393888021336
0.146634705332964
0.153292923544868
0.149828166955174
0.151687393300465
0.147932752430693
0.153604701294682
0.147236619219769
0.152190370189314
0.146258820803588
0.149150199770564
0.144380536685232
0.149846551244102
0.141970291224098
0.145654393021195
0.145400380734635
0.149926384252675
0.140657397382154
0.14786615704557
0.139918085026549
0.146250877502719
0.141391663620254
0.143219311813447
0.139191772439998
0.138877369178891
0.137070982554226
0.141952661409348
0.135698100509706
0.141090356493931
0.135168753982491
0.137266953643707
0.131403722819321
0.13642034564459
0.132338033886892
0.134654139834612
0.13206811458571
0.131870948592805
0.131616032398844
0.136167627847635
0.128518745377937
0.134397511079126
0.128378358510314
0.128550429199718
0.128195495216153
0.135525748167609
0.122824793485554
0.131486202981656
0.127041124109332
0.125637859898697
0.122400560761586
0.132622963610052
0.124094010198062
0.128359652357113
0.125606907690165
0.125765983453041
0.122884766350874
0.124850461830192
0.121718542382552
0.123924012412811
0.120523547239063
0.124202191020035
0.117405875083823
0.123733327338837
0.118483513513109
0.122945753353811
0.118667469767805
0.122473518278286
0.116957193390634
0.121618097831923
0.117149614101964
0.120306282405613
0.113693484102378
0.121158015965263
0.113578681356758
0.117730450077921
0.116112902142336
0.118381104143344
0.111421093737659
0.116562333942082
0.112234219292778
0.117632610792262
0.110356051796459
0.118140564128666
0.111086090756087
0.114475193257823
0.114120956106328
0.114857782242722
0.107963248348936
0.116109549636412
0.111915369325586
0.11556073695583
0.110692382352152
0.114611608670002
0.110844366786747
0.114679534136124
0.108997452156673
0.112029010411034
0.108093318459182
0.111324475792579
0.10020724132683
0.10760462803229
0.0996354941844561
0.113232766405932
0.108530799914592
0.115539326907815
0.109027987828677
0.112122606283122
0.0996579716106595
0.108331704818319
0.099291271563814
0.10720277393104
0.104786358552168
0.114760830507906
0.0965248610633085
0.111601243013659
0.0953091711585937
0.109810816730056
0.102919775277474
0.107904906179503
0.0999208147433094
0.103220516448526
0.10262803355379
0.114025085820488
0.0988917903143355
0.106928708777348
0.104445662044082
0.106724515062239
0.100957160606629
0.111471536042407
0.0977972625678031
0.107041461593314
0.102464885262531
0.108063612679039
0.101915473043406
0.101055447341877
0.0971589541118342
0.104276187050482
0.0975024927509055
0.0971410301359563
0.100796662164363
0.10129543531682
0.107012006862817
0.101593119820413
0.107666565625351
0.0884114396108874
0.103754214669808
0.0869704668548539
0.116004727262887
0.0916703788781024
0.119661943529947
0.0682549096166717
0.119018615990799
0.0764077371892195
0.12353963183428
0.0594760800280736
0.130624489803228
0.0776112506449902
0.126994234977703
0.0659370282075462
0.117114467990293
0.0768907371336703
0.110240142865947
0.0893618743655496
0.102912668354625
0.0960098301450634
0.0955034920870757
0.103294714364913
0.0911256742477647
0.102808444005746
0.0909842980384151
0.101388868947362
0.0940830271657389
0.0999996179948421
0.0958067755291125
0.0936543466964525
0.0976824994869236
0.0929743939484391
0.0979946075952012
0.0930288852501013
0.0960571911299026
0.0964155630889308
0.0975683328046128
0.0983611285496161
0.094149569217897
0.0964048952796495
0.0938320697636392
0.0917188082237913
0.0928650970432723
0.0922931043567286
0.0943976359482177
0.0950326169890548
0.0918785395204898
0.0948175902666029
0.0950442589822844
0.0950450758237745
0.0939742793900264
0.0956062269455409
0.0958167747175177
0.0956679535678879
0.0984389433684869
0.0951707970816263
0.0958469282437264
0.0949316877351563
0.093903341446403
0.0914463251580244
0.0932124353711343
0.0939382436921502
0.0944234188249588
0.0965803925068083
0.0930591488446725
0.0961854249076109
0.095070355136232
0.0943054288351896
0.0969801515844052
0.0961604232527991
0.0905414269308743
0.0931342564878321
0.0950635397667316
0.093582510140099
0.0916200437600874
0.0939872522694658
0.0937935666674129
0.0963924276358266
0.0967338505471527
0.0949192895869029
0.0919589257797948
0.0964626126694797
0.094330759992882
0.0938953884782865
0.0904196375118255
0.0965506875554324
0.0918880145126286
0.0950388220866068
0.0939927478683545
0.0962462497420706
0.0924403291235169
0.0963789176458229
0.096881085807623
0.0975723695387739
0.0936120713776179
0.0949093169492555
0.0932242507962839
0.0968889114177316
0.0947203247911941
0.0942037589988816
0.0950903303654129
0.0995086592513788
0.0943382253508625
0.0960982467085612
0.0947221208166661
0.0965000822518773
0.0943209322583898
0.0953120686516969
0.0967007192889582
0.0986116207068163
0.0954680036587054
0.0957971172575721
0.0945307482038053
0.0977967642975295
0.0953449655411803
0.0980606501106658
0.0988371848806712
0.0984873169540269
0.0975420980582784
0.0973007054531562
0.0960061158206631
0.0968615025456448
0.0948752281249363
0.0989683476732831
0.09501298065369
0.0964436188417656
0.0957167029112043
0.0960183506785457
0.0942992143285533
0.100537711724568
0.0989344115221883
0.0965252812345286
0.0980106428586992
0.101209508986014
0.0960945042474626
0.09745223952035
0.0965724482598814
0.101868948693269
0.0960178517396022
0.0989226613311822
0.0996360002680503
0.100473867679171
0.100084758720496
0.0986208248727136
0.100777674952053
0.102250018059708
0.0993696993854582
0.10336429575932
0.101138831788975
0.0999763433629512
0.102167035138359
0.100931265445866
0.0986153909087308
0.102630254632134
0.10065924470691
0.102273155049845
0.101597428632584
0.0989692983979477
0.10035357481893
0.10377407286697
0.0984928615791191
0.101402706579713
0.0973869906813026
0.0999215620029045
0.101635450518252
0.102191899796524
0.100764134169967
0.102928709400008
0.10122423345508
0.1063885514827
0.104708835550153
0.101230855873684
0.100705574741869
0.103631547565032
0.101642168490906
0.104756038735833
0.103553319254916
0.103795244268858
0.100960438413774
0.105314495875813
0.105078248240776
0.106808559719765
0.104342067593163
0.106891923526242
0.106177218168417
0.106952261151605
0.101934502689327
0.103944928250106
0.104630334637672
0.103937253642578
0.104328428227002
0.1060439758169
0.108086430184928
0.107337657640057
0.10502303571073
0.108339774413946
0.107075554806025
0.105469133058731
0.106594173320341
0.10643057297841
0.10243413691054
0.108069475585656
0.106124507786681
0.104346995992281
0.104138191732221
0.103644380549631
0.102419947537085
0.102574824955249
0.100350136232254
0.103404770805907
0.104744687329845
0.103358232030421
0.104816156629782
0.100735013664089
0.100002754714641
0.100386654818399
0.100483559577273
0.102713521190858
0.100979996094964
0.101523747288061
0.103174878469309
0.101516171827792
0.101145174303558
0.100539132524729
0.0988301120206301
0.105563147086487
0.0996995942123598
0.100335794203951
0.100567062686978
0.100499800657313
0.101999946213341
0.101390861120781
0.101201972072871
0.0994689119263478
0.101615016484219
0.101274248389395
0.104106974073779
0.0993471152160879
0.0984184048767918
0.0977553858417204
0.0986229937653985
0.0999221167773671
0.0952487171035316
0.0991762752657363
0.0995563931701162
0.0991257723062167
0.0976042493763445
0.0961306972714157
0.0959618268698134
0.100299855890643
0.0975425569180593
0.0971692399835634
0.0982287811495604
0.0958965010445782
0.098937025513736
0.0960723596861299
0.0970273644845303
0.0975194095516164
0.0986071101359766
0.0950767567135231
0.0963836145062995
0.0984503135179324
0.0967328109293588
0.0980881226216026
0.0945138692071748
0.0968129351705717
0.0951197489114847
0.0997617039302145
0.0958937226701174
0.097188836369725
0.0956504741218885
0.0943412602584292
0.0975529511404193
0.0974590551269661
0.0956554705889535
0.0976653774227231
0.0959140955627388
0.0957005570456791
0.0975053561157811
0.0963137378398548
0.0927364317977525
0.0976536142616585
0.0950917147362935
0.0964441004636801
0.0963372113579327
0.0994482166828529
0.0944937791348633
0.0946855324566872
0.0936171524213367
0.0942450163604066
0.0928742352921351
0.0938363296552827
0.0956382664106825
0.0944313207317374
0.0932076127661267
0.0973824472338016
0.0957109275627376
0.0966435406463581
0.0936858226889146
0.0934709294525782
0.094768531032459
0.0947991254271697
0.0933345932116253
0.0934652667145524
0.0941462535816989
0.0941734439166901
0.0914539327053535
0.0936066028382292
0.0935066150642529
0.0953761584567047
0.0927020875918822
0.0926823449163686
0.092196915192147
0.0912640045529504
0.0934761386892823
0.0924345471498299
0.0915908559965304
0.0919405188799085
0.0925118243548739
0.0908360432811959
0.0897879143411229
0.089502815647094
0.0889910826782647
0.0910546622282465
0.0884091903950201
0.0865662299592351
0.0859572017356085
0.0905027319370761
0.0881882511900045
0.0886269662445616
0.0855078058911765
0.0867266494295162
0.0856311634597549
0.0892824895005655
0.083227013313031
0.0903272258934786
0.0868651793645793
0.0879090901555542
0.0852985732515609
0.0853270562360524
0.0873212889992012
0.0865779883610369
0.0860685568543804
0.0844080994598491
0.0844005749880623
0.083456378471885
0.0823936933357175
0.0860980043040351
0.0841752487445847
0.0823244644696465
0.0810678958347681
0.0814372375380525
0.0788366467723677
0.0796204936775271
0.0798946743440018
0.0821217787370538
0.0830503168409352
0.0828697103125077
0.0808904678132938
0.0782475288260435
0.0795106925172663
0.0807679613521908
0.0852059630243636
0.0744607851810746
0.0802684549024674
0.0786357909894246
0.0825495979990302
0.0782900614354174
0.0807529041539048
0.0797145051585089
0.0821814594436286
0.0778615875674584
0.0802102123886736
0.0792031244931894
0.077591684203109
0.0773869299332172
0.0808141044712506
0.077056078225853
0.0778840097204927
0.0782021694441269
0.0783780067787057
0.0779285056799502
0.076372265965776
0.0772554223694504
0.0776719315911085
0.074890078966578
0.0787170303648929
0.0765462963899427
0.0788074914037415
0.0798105072690886
0.0780878551395691
0.0766257897372825
0.0768416068739583
0.0777443248356144
0.0760664044029761
0.0772548773862877
0.0769045076682712
0.0750649588288708
0.0770537443363545
0.0765093487172724
0.0734483379973266
0.0756017360115849
0.0774223519760678
0.0752666277784708
0.0778739176056005
0.0735658335758745
0.0745194921172982
0.0749674972335263
0.0744995703128779
0.0749297760593938
0.072686931503076
0.0741819593543615
0.0741436119007576
0.0750841092031816
0.0698039895717078
0.0824034065447807
0.074923506660951
0.0775992120014376
0.0720415742629975
0.0748057021366169
0.0713719289336078
0.0712206535961201
0.0748712646913299
0.0771365069057957
0.0730790041013382
0.0747882299202624
0.0741898601301168
0.0737171499639554
0.0718733483368807
0.0736850322678682
0.0718354995890914
0.0731967863360704
0.0745702167308058
0.0735654422964
0.0723161149849751
0.0699447328660102
0.0788916989820641
0.0764301412974088
0.0702370098964132
0.0798905893120574
0.0679094626984183
0.078130363623323
0.076943182600406
0.0658425895512363
0.0790246189496656
0.0701647326928112
0.0767669368272068
0.0715779044704955
0.079581550299811
0.0671188208755553
0.0791922299003258
0.0690491903577555
0.0759391344126318
0.0742464899480483
0.0735225789226997
0.0725248667696597
0.0723387502391502
0.0738974051095345
0.0729323971641715
0.0733245387170432
0.0732465947514085
0.0710742043447255
0.0736321941070752
0.0725987271854042
0.0746061721147022
0.0689993296827831
0.0753557982239636
0.070809159241531
0.0768936079252292
0.0694860052545091
0.0753733364919304
0.0663698255169676
0.0836717712210042
0.0696067690495455
0.0753101432307052
0.0728618785914099
0.0712873003571455
0.0736219852573991
0.0718341438808387
0.0720887784842209
0.0751440184962007
0.0717104901661947
0.0758794466134687
0.0735029118981125
0.0732872726851269
0.0708562099862926
0.0705398825557756
0.0724936770028431
0.0711233912424643
0.0700723773914927
0.0707524914819107
0.074560629565021
0.0711911361996114
0.0726682484372218
0.0861511978155482
0.071313348879657
0.0797406211049619
0.0705000526289448
0.0777785349568126
0.0683286018083286
0.0763141028641932
0.0686295954827563
0.0778969062315002
0.0709210216386456
0.0753953826215765
0.0727938260000208
0.0751808478485992
0.07249974625953
0.0761462811013677
0.0733377156723679
0.0764752612008387
0.0712772774127936
0.075139301127983
0.070360471702058
0.0731951916428024
0.0698509730116185
0.0734439519025047
0.0790684298389442
0.0727608831351023
0.0750071444963913
0.0725059305858881
0.105076424385461
0.0594017505157912
0.0792564862318018
0.0733907887392936
0.0775741826583568
0.0750112735999355
0.0758890593759194
0.0762176736300067
0.0776459274261912
0.0761254469583422
0.080932352911635
0.0738111877776877
0.0777139481826106
0.0752909440329262
0.0764240107282324
0.0816101570127067
0.079730615890797
0.0736720734979999
0.0858433417318515
0.0729808526110633
0.0888931004565689
0.0752393261124282
0.0783368092285115
0.0858347198366659
0.074107300518257
0.0798496904344285
0.0776429279425969
0.0793354565482923
0.0741411189194873
0.0855435657658278
0.0756220280185362
0.0831694185032545
0.0761949675780724
0.0812310370404927
0.0839649003231835
0.0797354146293342
0.0873676146295933
0.0792846226592573
0.0801784656012132
0.0859154683738063
0.0773081111664285
0.0826119598132705
0.0797693102804897
0.0836811931874202
0.0789171890332567
0.087298371004571
0.0828023827189506
0.0852994251936889
0.0920188025645784
0.0828766429074241
0.0827731594596955
0.0895510018612195
0.0838044245355227
0.093660121928329
0.0754165379732434
0.116496621735479
0.0764781319237224
0.0946093353441606
0.0881616666032051
0.0823801383294393
0.0873529731291407
0.0864450767967131
0.0927985071217805
0.0841803139135981
0.0991479934214663
0.0773326024665949
0.101017562986312
0.0756490069703321
0.110173739770421
0.0857469337044725
0.0966792571781124
0.0877410083876593
0.0934433877198222
0.0867134898550945
0.104193188157411
0.084444454586357
0.0990654051686941
0.112266264752736
0.094518503550803
0.106780638795939
0.0855166043984713
0.101039287731054
0.111029217167145
0.0878232002609451
0.105761190590024
0.0883480450675143
0.105929680791734
0.0912566780520348
0.112858847709837
0.104728275792091
0.0957019880839857
0.101992848674697
0.101840738689931
0.098110327746724
0.11525773832482
0.0942094232184093
0.104451729488914
0.10061993287999
0.110630467915682
0.0963835557826377
0.149290453388156
0.0871557921709371
0.137390572867287
0.104664429991415
0.121252583218434
0.110837209981146
0.117725447527519
0.113165160284348
0.127217239035229
0.11902222438502
0.121486482514906
0.111051801813064
0.146620545347772
0.121321398149121
0.118657567525468
0.130906244538537
0.119926219807478
0.136500754211066
0.14657648380244
0.13736151249568
0.133851788817531
0.130051172566969
0.137123719415003
0.148463979882893
0.129464821737416
0.141022880291893
0.131290265480796
0.143630053567103
0.141780703067723
0.146819250194556
0.154149246148154
0.140828753577394
0.149570602219903
0.147772756140597
0.158627796661631
0.159776157025637
0.182748067728429
0.161317428249887
0.157264724883421
0.198235248624757
0.152326295238485
0.170001590723077
0.159212467682298
0.172377358910463
0.169979747757101
0.167746001650328
0.17087811011306
0.168603342459948
0.196018761073808
0.176087284083952
0.190903178202459
0.190806477074836
0.183668323575104
0.202155122740982
0.185558853011633
0.306662182104903
0.171746574132842
0.231032869907007
0.199914510606301
0.250642467057877
0.231622454266837
0.223912350267932
0.23186399714274
0.236478749546884
0.237296278255469
0.258228116103603
0.25321003403069
0.266704839135685
0.267550022139541
0.273065726760354
0.275233052965834
0.324072198954856
0.29659578797673
0.314216427831086
0.304772430248259
0.312780584170714
0.325115992736512
0.34037090452321
0.330215961054678
0.352983953717074
0.345348799203374
0.385385897827832
0.390688854084671
0.367985339259738
0.393547524872887
0.391836527380554
0.435637431789728
0.390654317346941
0.466706108265196
0.418827588315513
0.443381001943117
0.441345817464681
0.449832322323534
0.463360705802597
0.460912447926246
0.500879893049799
0.484360569566664
0.490598100626087
0.490337434530815
0.514494018456888
0.518569569619502
0.516267238505438
0.531914408402915
0.529909268667307
0.566446791133683
0.526425324922802
0.626437851195663
0.541384698966567
0.562136280907469
0.561778337801698
0.535788490984767
0.590515414951841
0.535454032630918
0.581458744766893
0.566632783599972
0.55503621906315
0.557320086839731
0.560381813809614
0.580877717389158
0.568166915133329
0.57333439973109
0.554604798934874
0.602377446164972
0.558741700522825
0.574889149244
0.622755563867499
0.56359827150229
0.581861217500859
0.561278284958815
0.564299911165534
0.567707459301018
0.577533906383281
0.562244682899669
0.588135328843715
0.550459556936284
0.571630376560169
0.545308569291213
0.578820431841825
0.565012706382653
0.547208921689812
0.547492261521877
0.536542991492411
0.545159987596982
0.529840575783748
0.535836111725399
0.58320307915512
0.5210104824587
0.524381790222076
0.502768273724652
0.520045442503208
0.519138230178294
0.518870234231894
0.507701650712259
0.524361568512833
0.50150251951491
0.514826658566585
0.501022486004333
0.507067245941882
0.49878492775012
0.518925461969074
0.494541539094672
0.502871151972307
0.499420113666152
0.498062092658093
0.49406251383542
0.496842739707975
0.490635189693801
0.504330685243362
0.487751572629561
0.497427559883361
0.487178159089842
0.493096883808824
0.484894956939746
0.492832234073123
0.490353243693128
0.490838102674202
0.48924597884754
0.495104919054914
0.486778404089225
0.490339825890131
0.491286586305716
0.488815957473077
0.48531448594986
0.479595921158694
0.481096515168242
0.477790264045028
0.482890620129717
0.472922452589115
0.493096777343986
0.484896540987938
0.465731382494168
0.474349548026907
0.456550972239042
0.473442812731235
0.448210410061034
0.491296115683071
0.456555314278336
0.452977671953006
0.447331878326477
0.440429091704941
0.430182782313115
0.446884403082605
0.421097153933489
0.445213997221796
0.411428812948949
0.4715608861809
0.454703894035458
0.433487803236437
0.457999772295223
0.408041209978454
0.409747789411811
0.406979752158211
0.431747103851611
0.390356781096497
0.409501382016557
0.388373518928574
0.412789650976367
0.393813712746796
0.383765787841954
0.397927676513724
0.386029698706472
0.394372251760131
0.390412342587568
0.379886990321238
0.377890577180996
0.401240797556446
0.373580784257983
0.410077934388269
0.383358834627454
0.377202763658837
0.353813776588869
0.366429172564666
0.357514844721223
0.357081673223984
0.387853579869508
0.343735287589495
0.349437620109032
0.344261336223343
0.336180921085235
0.347860435142553
0.341680658597799
0.35045398504074
0.314566044299083
0.370611313183897
0.318350255334226
0.35004795884209
0.336420029515334
0.341406932654067
0.328580812298612
0.322222678315556
0.31828005830881
0.331266058674062
0.332314597804771
0.309186459341454
0.322281058439392
0.308572029252473
0.309676112170392
0.318084632881487
0.298325333044533
0.314663997913028
0.302436073704702
0.310434325331329
0.337494701387151
0.320015868548325
0.320159998292728
0.297887689715975
0.285413227627291
0.298687833556478
0.291539901394155
0.301510959375231
0.287505243307674
0.293872062160274
0.304755024198662
0.291278941232617
0.328102940879777
0.297224155771448
0.303210455502469
0.304861718189719
0.302650253808517
0.317260814129445
0.324145529025246
0.327002670909415
0.325105543776755
0.313039318980497
0.333989741970208
0.319610875609252
0.34131294669432
0.330746561938902
0.345948305938075
0.343920122463248
0.363125900529401
0.35559770698169
0.365338529050932
0.371431032852503
0.385697347886655
0.370409726780913
0.420393457639881
0.383248495036344
0.424044927844045
0.410625917658805
0.44141572263401
0.43852401360209
0.433846460725788
0.447150460450714
0.4436502438035
0.457291063025722
0.472334452815188
0.459196960629333
0.493965196247543
0.476005742764047
0.499088784200278
0.491428056616776
0.508072774909573
0.497393743837496
0.516966705952787
0.525471539076418
0.519593581344263
0.536038527555073
0.511192457052518
0.540380169887432
0.522654167004625
0.539731361570986
0.539074117255154
0.534240480369804
0.549325696466927
0.549384102680229
0.560361071366245
0.548880167687834
0.548571122725684
0.555233340513431
0.554978701562061
0.558752851028245
0.562598357019073
0.566818009322183
0.574200793925828
0.572169791925358
0.586460447484525
0.576518460151569
0.628961143883742
0.600929310497984
0.59425552799164
0.614521563578039
0.603052617839518
0.620969824440729
0.619494466214753
0.627403143865129
0.631082912946244
0.634482340228379
0.63987119407529
0.637804140822883
0.656452114311781
0.658964482410633
0.671396702502629
0.653162683191665
0.661412786964256
0.669413171308904
0.642516202419834
0.72483000568993
0.666536951651609
0.701881271159111
0.682626091689519
0.68746005258187
0.679870023908554
0.699818381361876
0.694338946654696
0.698155784404783
0.699845126091153
0.707870115374684
0.698410195211812
0.692669073536626
0.700365058060969
0.699778650993168
0.708838459434599
0.706258635912161
0.689626294707119
0.701467652741957
0.695542487778306
0.68625617531507
0.707315720810711
0.714848839683716
0.691051403563906
0.708609493412548
0.691264459590516
0.717143416815007
0.699785276142313
0.69578336465775
0.708060355815308
0.708675238181795
0.698144886529851
0.714405086017247
0.69116887547291
0.72860720508903
0.714824163374596
0.723050041497912
0.713481523567571
0.714024528751283
0.717630970681759
0.727106528312935
0.730516514145242
0.734686541833906
0.735515755218642
0.750562317287701
0.73391313084958
0.743546027835211
0.749434971313231
0.730204679419714
0.743542073265695
0.750969015877462
0.741486841752636
0.743174167665291
0.736336942864988
0.74719277326318
0.732418170916322
0.724360861538228
0.714419823141865
0.719543283950834
0.701033694225011
0.722125133797527
0.709969270410345
0.69818041510389
0.699449979276994
0.687629520167976
0.686607511640004
0.671977865773858
0.670343494319011
0.672444693621098
0.675107772538874
0.662316393170204
0.662652367448728
0.658968715706972
0.6569958089323
0.658630890650239
0.662700359333282
0.656600986621048
0.646430725707014
0.651404501184257
0.649720995995589
0.647912959046543
0.643571262990791
0.649774842750037
0.649913908027798
0.644624192961249
0.653779702187602
0.646154296082267
0.650138223964789
0.646320347763606
0.649203192422542
0.640913434704666
0.647102865272511
0.644448907904277
0.64422490479591
0.635706784067798
0.641129728056208
0.646234018471874
0.640818771577965
0.634281870873701
0.632364070559788
0.640519717645992
0.635418209728328
0.635597550593202
0.637832476696775
0.641567071423327
0.644130163882448
0.644810158801694
0.638320723596265
0.64205530903501
0.635859880038533
0.637848855582812
0.643168396808252
0.642508618563788
0.637839843473324
0.644210820122435
0.638315798573451
0.633898314847119
0.637912166628824
0.63792086560737
0.636842505298359
0.640416503614876
0.631331861966263
0.63596255067543
0.639072969726031
0.634222030376737
0.636230881192185
0.628400801294321
0.622106943996534
0.625061657897615
0.614007412463057
0.609044421436559
0.608915200147581
0.602319368033494
0.595795642188783
0.589419782549859
0.582790493430986
0.575850539080516
0.573986950238331
0.575397195543632
0.573793619694686
0.568420766682119
0.56460721384779
0.565027522924915
0.559340628479914
0.563539082917604
0.555278631497612
0.557713480669992
0.558397660080312
0.552845411620095
0.549939214761033
0.558688677600258
0.56057472129491
0.558757948218816
0.556898105470053
0.56065351025769
0.563306380462762
0.562002492574193
0.56348362398805
0.574643023899566
0.566272166666441
0.5669451226942
0.571834313867478
0.569320400391431
0.57582817727296
0.581470992845813
0.583809994581063
0.584819119314361
0.584604105387678
0.583779884334821
0.588851836481281
0.591513898393706
0.594714559857545
0.593399185605023
0.593861333336349
0.58965515829397
0.590589484579783
0.593004392363063
0.595226384312179
0.587810817521299
0.587296728575833
0.584281255986726
0.582599722448693
0.589460008400474
0.583929018103775
0.582477138422149
0.581178616285242
0.577895389537735
0.572759043368257
0.574496983062444
0.576968383187274
0.56453192496968
0.568682542767696
0.568434073622267
0.560715151555718
0.564365164801388
0.561490949351936
0.563545821449354
0.55993909638903
0.558353530359082
0.554527446483516
0.551640249710209
0.547832439278939
0.555339154842828
0.549693940045984
0.546370763847768
0.548825337756756
0.542524818910421
0.545517918406651
0.549124988681252
0.545774167686488
0.538313348811921
0.539240367426774
0.538995468409146
0.530940099197646
0.530047762957123
0.527281755770485
0.523951064739771
0.525614117769696
0.517401371325183
0.516064544465654
0.517922001489347
0.510544911031552
0.503479420425564
0.498777595351725
0.496922565271043
0.49046514936164
0.492167175929136
0.488589139015718
0.483230444269258
0.482545572650231
0.482733134142161
0.482048715131082
0.479334710603316
0.478374538030903
0.477664639745296
0.474676881114082
0.476226351247903
0.470163384556111
0.464546047760878
0.465390988691663
0.462072075930383
0.451991134676524
0.450428891721261
0.447926187933474
0.442940238422365
0.43360504487873
0.42755181749163
0.426367776324757
0.422880046840939
0.418867610280031
0.415762811433719
0.416661825473644
0.418859631187882
0.423721633928867
0.429660120096771
0.434188441128583
0.446948379961117
0.455502302512695
0.466918845966934
0.480616782520861
0.498732636744693
0.513742879316014
0.527229067996286
0.548809881973383
0.565347695131173
0.586705192651043
0.604543515953946
0.624949761460586
0.647440637790492
0.663501431159728
0.677911831077238
0.690077781438152
0.717643333416484
0.729845993890335
0.748313624028658
0.761487213654219
0.783404706351407
0.792699414722574
0.80414675006139
0.823290656890449
0.830561012146317
0.828297727996174
0.843610314889427
0.854044816894922
0.872774037892235
0.868716153615508
0.8686504438444
0.885699817321232
0.892066789130194
0.90248241905411
0.896863314024821
0.897947319767422
0.899798178179622
0.901019432174352
0.906627805783577
0.906550931454857
0.904693338274605
0.922362461975072
0.915506139430428
0.917351232278695
0.917854780231289
0.923652994126351
0.919469684326607
0.923149365085403
0.935166120947412
0.935896207821999
0.957165122813572
0.956254834528261
0.977245436162294
0.972874084303242
0.969876809559577
0.98267188039965
1.00832082892318
1.00774995816105
1.0131604494467
1.02489435249686
1.03111135814143
1.04890406484959
1.08224575401158
1.08964229149511
1.10061101532976
1.11390208981266
1.1283539454031
1.13128140530053
1.13517795835991
1.14005889021392
1.14780075989741
1.13742273670765
1.15708715988334
1.1660233406461
1.15010275912176
1.16116184497064
1.1353013871906
1.13024286982788
1.15154170907535
1.12967061067016
1.12383540560333
1.12566242266617
1.16026287654881
1.16163468354883
1.15107822387325
1.15249405667266
1.16787396036423
1.18196642888925
1.22753926704899
1.24156958016556
1.27637650016369
1.28183491661273
1.2782312050095
1.28285386652041
1.29359865743917
1.31962985285704
1.34822629592798
1.34497139404712
1.39506569534531
1.38323129578274
1.41193382125309
1.44084843842109
1.46140508446371
1.45529220970969
1.51056031663691
1.56015989398885
1.67014508989771
1.62962118012773
1.65687537368782
1.62214752544107
1.60699208206983
1.66790871610311
1.74865576420912
1.72324915716028
1.6328958988068
1.73662739596936
1.88398153173399
1.69874105661398
1.99596542701193
1.87088225011679
1.94036666841186
1.93695312641173
1.91113831591632
1.7772871314994
1.9293096512056
1.88353881153126
1.95462661744961
1.94424931927794
2.00130189264046
1.8869420048816
1.84990528115101
1.99168043669797
2.0248525365484
1.91122788042089
2.09678046792829
2.01745570810309
2.01732640918265
1.9112050807281
1.97963243606909
2.0584942342924
1.94160468255052
1.90834961044376
1.93555744231119
1.91935703007584
2.18090357387984
1.88202417547679
1.94812516291697
2.12660827633898
2.23348039935131
2.4690213710505
1.95033930501457
2.25708478736408
2.14068382912405
2.42320927260316
2.15549021178975
2.52754408205004
2.40278425807826
2.2827873357147
2.45829171653123
2.19724078445074
2.40045764651154
2.14253918713932
2.16316722423394
2.59659149410428
2.36904707219628
1.96783887202844
2.09360279054887
2.54096080657523
2.92077806135674
3.08850044754215
2.20615711088196
2.41774234013774
2.32227949117279
2.12396478286036
2.65936758409102
2.42048188671461
2.33029469262735
2.11093734931604
5
2.173398571438
2.84311134334585
1.97412228207001
2.15232533722187
2.36878852097568
2.32195892707088
1.91253975596809
2.02458800221602
2.30781332747656
1.93331645043582
1.77049576934806
1.94888032760062
1.7271339957236
1.98850393539957
1.75588205049861
1.83140988476246
1.63250517138861
1.7347867081833
1.68999134919083
1.70776210710812
1.58646245864559
1.80924452807215
1.66838333738881
1.68709141349216
1.53159063601165
1.61530569081411
1.60690319869994
1.56460595512196
1.55449863961532
1.68485358706541
1.46570673547545
1.55580605449777
1.46846638031027
1.48418822524181
1.38365595121218
1.35605098639115
1.3211473752145
1.28582646462404
1.24285212937177
1.20204168453252
1.16091228433647
1.08377680519681
1.03995314826114
1.01846226105147
0.953869123470664
0.932720766453336
0.890301783303811
0.854386435679737
0.815162656380526
0.785980089570535
0.767369713670702
0.736679468175469
0.712344185236349
0.698155269275705
0.680817631391603
0.653650799635615
0.645051383074566
0.627652317550793
0.633820675202231
0.618075427133994
0.616082456604064
0.608892763922335
0.594356494013945
0.59666287601204
0.596261966797696
0.612655095340732
0.591519029745864
0.604905881379476
0.59922374900086
0.609945450833509
0.599736224337789
0.594588542282712
0.602446989196682
0.601822893871859
0.599326348894008
0.597200228888887
0.580061027399733
0.58812297610416
0.583625546690235
0.592871133048341
0.565213836746244
0.576038300556243
0.557044899815317
0.562535882725772
0.541552896057669
0.545513971168689
0.543783602333647
0.546843359448291
0.539459001429388
0.559344328306877
0.54916490823666
0.556643250347769
0.558452674519072
0.555022053095339
0.559834968098908
0.56584565418034
0.575455201377299
0.568675822751173
0.574052640866702
0.581839016087291
0.575424415084381
0.588719228259138
0.601572316209633
0.60847275376676
0.601379432887188
0.598629761430583
0.59768924453739
0.604815136137813
0.608802117960931
0.610297165115635
0.61481780812659
0.623141584236021
0.60482300604242
0.624504278221714
0.61613337642072
0.645659286691376
0.625496505859348
0.643297824469185
0.655077473960834
0.664097122887932
0.669554721305971
0.689461038849243
0.696495485451904
0.745376738314751
0.745303644092851
0.77064147195968
0.750206019386439
0.787019632176329
0.778489026824633
0.835679637519559
0.83290264850173
0.816721221008183
0.801628573489159
0.81723475829294
0.782981720688591
0.786970775098457
0.767135506025543
0.778510683804001
0.7660368207601
0.756787129988714
0.737340585168867
0.74424539112191
0.727061241646671
0.739941105016222
0.724230189028428
0.738725488600367
0.726163845679558
0.717659840149149
0.725186541449428
0.741529269008472
0.702206428193352
0.731641419346466
0.698332041702647
0.707497305195081
0.710955663885022
0.718144741083523
0.685721932784855
0.682385921762737
0.670218789170042
0.68533727950841
0.662204546318513
0.662479085740512
0.637772241443622
0.660301132213267
0.653811747960104
0.62181256420182
0.633596792410943
0.643817518434542
0.637052081881131
0.643152167639959
0.622589373773678
0.614321483262825
0.619807499305283
0.617625936999945
0.588103901143793
0.598237764882982
0.589498126862741
0.600026409591365
0.595092841334652
0.608142026324529
0.581542640072407
0.60979292974328
0.577541759036044
0.596472848410721
0.561687951694348
0.57031891963931
0.551295263071977
0.569519407920819
0.570409337213167
0.583371734616001
0.548475153187903
0.558894381680355
0.549390237754007
0.566596781292741
0.543604043375042
0.542930282345368
0.550073949356787
0.573169335032647
0.542782504780477
0.56229778421899
0.551989794832758
0.564808148034024
0.539013481435242
0.573423494502038
0.543595155413343
0.56003051125516
0.556371734155163
0.584446413931133
0.554278574079384
0.560507810353547
0.548945222914903
0.577601073058635
0.561351761917007
0.576093727415663
0.553593094114866
0.574736721768168
0.567739676347647
0.578372423793165
0.569006060086347
0.595493626763941
0.595289554567174
0.614383631828529
0.604555641230386
0.636904777867272
0.612403743322369
0.637176489567715
0.609009832103611
0.63897944327906
0.650337570096073
0.677257364827862
0.631620696943199
0.68467831561169
0.686765967066064
0.719044576344161
0.738425293926199
0.767221454368358
0.750543279205864
0.794198835325619
0.824474974270777
0.898966135954891
0.838430659075245
0.969895625745928
0.873089425353262
0.947491549515707
0.935752782575787
0.978277006166639
0.893998224415563
1.08928434689321
0.940914062942317
1.01671951697
0.901026106060511
0.998545752727321
0.894874971561627
1.01403598202504
0.939130341611384
0.984094714983713
0.950520178870288
0.925122667714008
0.871802547608395
1.02944897296579
0.909694245153109
1.00559289193305
0.871174701830292
0.905954159758774
0.963202067295795
0.983701579244834
0.850911591130207
0.939363012085787
0.924537282246588
0.897537097328734
0.952405442643027
0.870254759785153
0.838246684020077
0.924829773605916
0.776792705218789
0.812491515123422
0.839367206689087
0.91203959109718
0.822843263960827
0.891654086204483
0.818262366518292
0.862744325693354
0.779857142465485
0.759528478056399
0.827835595173449
0.926930884468649
0.780034675385709
0.828302255257012
0.824187832985871
0.925516888678923
0.885894285107338
0.862862869073451
0.954528442230509
0.852465179257063
0.807622331319457
0.879806864256748
0.853620606157429
0.84369550778786
0.756631810135873
0.857274061659522
0.80281646328283
0.858826869550745
0.824714295879914
0.887793648736739
0.768919678285961
0.935994912677143
0.887148683098702
0.992279729206527
0.860047329592187
1.02314977074472
0.888276341464172
1.05528310304457
1.01412000483108
1.00147068929162
0.816371482864222
0.914274226029983
0.872243111434747
1.25879119571157
1.01475311075691
0.93996132627775
0.864185464382506
1.13125216076375
1.00352422487339
0.987593534171372
0.910390726568541
1.28714236426792
1.01098688608302
1.15642685664434
1.02568505181106
1.15074634393025
1.11510553993182
1.04716775375162
1.08594752210644
1.5199797409844
1.05332268593272
1.62685181950808
1.025869767996
1.49801308714558
1.16952792902065
1.3205549797452
0.890165877677804
1.82536814965342
1.14632222938289
1.20978610394594
1.08996941310669
1.46647032198666
1.08560371920796
1.38541507023666
0.881087704934027
1.07902312412203
0.796816047774482
1.86546721339269
0.962762727845632
2.44718397753955
1.31077457759821
5
1.08877841204579
1.21292648845265
0.90976568786263
1.16103400330806
0.971856784550468
0.749306767075229
0.773586355826841
5
1.09451327882144
5
0.99702564591229
1.46269137447376
1.42002557853293
1.51434981882152
1.61125611738511
1.05587854204535
0.683191897832437
5
5
1.39729343189885
5
5
1.1196019683604
1.38146993159918
0.813744332402077
1.63665660147956
1.00179912434931
1.34040825141035
0.890442629519074
0.96577702265095
0.802801130080914
1.26312690656482
5
1.65246479604656
1.12482974470973
