3596
4000.36533379555
650.420452594757
1
2
2
0.0471466611563329
0.0601085624328361
0.0539966164037709
0.0543393988527636
0.0467389911055022
0.0434904452568715
0.0424909109213971
0.0494257676097148
0.0415111095085515
0.049493002381056
0.0544776644594076
0.0494501705678581
0.0442754894954285
0.0484899230317677
0.0485867329763722
0.0472973720988114
0.0537845343247743
0.041979601585487
0.0518437299656593
0.0566929607819848
0.0544277708032351
0.0544706210864015
0.0494368054681473
0.0524719818135661
0.0448002973890383
0.0405879898284308
0.0501021505970354
0.0635927154546492
0.045615999310808
0.0496078579147419
0.0457820584722795
0.0470533906431285
0.0422749911471246
0.0533143507899655
0.0415151173430548
0.0519217861563185
0.0545335678601417
0.0456007053434802
0.0351887503036977
0.0513799910594975
0.0468222568734026
0.0489296812023786
0.0511746490564362
0.0486449662124468
0.0386134714870311
0.0467208523434526
0.0446392978953309
0.0520394196534468
0.0448093602475177
0.0510969343311707
0.0399025325061282
0.0511572302805592
0.0569850242306744
0.0505142851937671
0.0486296404099236
0.0405062600723044
0.0387412498165818
0.0459358150233788
0.0489638375249261
0.0627112797379928
0.0606453153880173
0.0410091256886572
0.0454157106913135
0.0427880268397405
0.0540628615055092
0.0462091309388235
0.0489776200811501
0.0466215205446181
0.053089314743738
0.0423468028130837
0.0512478902192758
0.0571896150873744
0.0461567538684131
0.0476926177368756
0.0483285489000613
0.0472093680830536
0.0438907772293887
0.0457750906379478
0.053583915869142
0.047615503215648
0.0506083712735774
0.0426944232065276
0.0416067700296155
0.0472452652215026
0.055262736223663
0.0250035871968403
0.04323662885559
0.0377027511091462
0.0344534376026609
0.0454756624054383
0.0425307270908978
0.0398286729099664
0.052888508441538
0.0487091173246028
0.049304245938019
0.0415474505459469
0.0470132651340523
0.0389738779524132
0.0407334835584301
0.0585681327425723
0.0323449214954334
0.0536251937551212
0.0224120834070025
0.0767163346912141
0.0554570530801792
0.0442798878382778
0.0684571296538702
0.0363316334171663
0.0508553551392612
0.0430799176364372
0.0483088528291161
0.0379172765139813
0.0496338270830468
0.03468803771773
0.053164272301423
0.0445733644648698
0.0440708566324102
0.0345251524977563
0.0358369581026334
0.0364333798311801
0.0447889152247712
0.0472516202795294
0.0212139819698166
0.0535341100404012
0.0433182397512349
0.0391538497152828
0.0492935136785787
0.047739634977558
0.0392402211053737
0.0426252328707553
0.0333736861703338
0.0422899559665568
0.0364372382361776
0.0661653417702992
0.0232703402069986
0.0401086246187365
0.0359958268937245
0.0471793095812873
0.0719223746645057
0.0324625700499407
0.0518165842490423
0.0397990536423769
0.0527214052139717
0.0451210172741869
0.026518811188803
0.04067290566031
0.0509237455116549
0.0401492575529612
0.0379055499622835
0.0500484978708369
0.0382549104653929
0.0480642465864799
0.0474785574902323
0.0426011167533056
0.055201172314641
0.0708747753298923
0.00397881067165728
0.0894364728239919
0.0178797378665462
0.0514828876966748
0.0281177230131702
0.0326283556300486
0.0351261086488147
0.0471894312792055
0.0419755756484579
0.0381363320583938
0.0556255590769764
0.0225354209441653
0.0331108637437524
0.0500924909293771
0.0481596667108715
0.0342295533952313
0.0695999466141777
0.025276976362124
0.0283234436665257
0.0631380021344702
0.0316040664922076
0.0442300170420566
0.0448186409763097
0.0547548055053783
0.0336171560623328
0.0455836090878583
0.035616118795525
0.0403494034778495
0.0460719209675667
0.0445257648477843
0.036419711162056
0.051799906439781
0.0423135407631875
0.0572925356081035
0.0614316403919688
0.0510744569132525
0.0257160066540275
0.0469710170973208
0.0250456212171529
0.0591486791768782
0.0605411869888434
0.0295354651357998
0.0445073741952632
0.0276263944735908
0.0409237160550969
0.0442308154837733
0.0378834902210741
0.0408484354559151
0.0312549736883737
0.0549803813685268
0.0425917178139282
0.0304602317407029
0.0352145501403735
0.0444894535586825
0.0523951793679594
0.0673426299895436
0.0689009472146579
0.0225235375487464
0.0486573576686584
0.0364234499100685
0.05221957219124
0.0357038074404476
0.04270824891638
0.037911082804746
0.0427148678158063
0.0404849027478032
0.0401701638806954
0.0431095212474949
0.0451712799709477
0.0338561186485442
0.0414119982363342
0.0412223725625441
0.0426754285488981
0.0514948367073662
0.055610793211999
0.0369947823001166
0.041190721388465
0.0428787073219351
0.0474642956723646
0.0656005161272596
0.0347233112050169
0.0374149744352599
0.0389143917495211
0.0378539459627506
0.0315135953055496
0.0432844470633683
0.040134224202788
0.0459397170029691
0.0402610818579734
0.0593552823957562
0.0411044105198029
0.0431344262554497
0.0443718696008599
0.0467731236885115
0.0762026492517202
0.0275112225035852
0.0438044519043457
0.0379327149086091
0.0600877210880617
0.0328514257344894
0.0668270796722033
0.0384796754042102
0.0479262995880188
0.042573968946498
0.0619680425037147
0.0360556567654181
0.0625930535432776
0.040143096635168
0.0655721855122088
0.0321169469185395
0.0259153143638876
0.0651536149516658
0.0477458348640728
0.0370776635752827
0.0658247760425387
0.0408716074753679
0.0967826200408394
0.078501828690099
0.0353274216067574
0.0300634302037906
0.06011053597929
0.0404598149801708
0.0524447619081914
0.0555643667956974
0.0429284880769385
0.0687617535752879
0.0391119447051534
0.0846294846106147
0.0486153359338495
0.0514062106247793
0.0860209371616157
0.0276099489921991
0.0606238523975799
0.0365391339269043
0.0588024484076094
0.0465944125403155
0.0681007946745659
0.0413227327651019
0.0771790789240392
0.0394398021520859
0.0707145763111346
0.0543428040310996
0.057833735958545
0.0434825448145888
0.0662044814860432
0.0358400179567131
0.0568295513086076
0.0503011584293855
0.0637317671216839
0.0550859761174807
0.0638064879597795
0.0712727430768113
0.0695021681315985
0.0389177966528283
0.0752031511311989
0.0339856002780238
0.0588807264604637
0.0504201353398039
0.0610003438218363
0.0551580225343235
0.0639384781625895
0.0417684926140075
0.0694941531531857
0.0636623465680398
0.0596989879623338
0.0503298450368257
0.0596591990085619
0.0578772564803496
0.0652439087550205
0.0542052953103225
0.0618931474420107
0.0540953250681859
0.0622492663178315
0.0594495519052454
0.0955969039790093
0.0530255445342482
0.0734387875044815
0.0904080333957123
0.0540845415130391
0.0555948257618718
0.0602932025826586
0.0703511900203363
0.0759567426507901
0.0694729726018841
0.084337692529297
0.0723193777389159
0.0799264909584971
0.0798365021575824
0.0802896408836619
0.0759984466310971
0.0999082059305786
0.101795814820959
0.0842006739922393
0.0696850282942496
0.089600026412544
0.0742782165077537
0.13105941520268
0.0616901081191269
0.119166333705021
0.0696104157607431
0.0984065601560133
0.0876428224985154
0.088057040435196
0.0871989651738894
0.0965379258434762
0.0969896256859686
0.107587622777176
0.107967954567798
0.103500134855611
0.102795865536343
0.106260716220476
0.129896983963276
0.12432785486639
0.102670395438563
0.115756279234599
0.110849889188286
0.12850930388153
0.132626476526342
0.128879546134956
0.149323482863315
0.127515540077725
0.149446187153136
0.115607686562474
0.115764298963002
0.142570712557543
0.127356336773946
0.155436184171992
0.138556882599188
0.141977592710266
0.144509297397991
0.152702396664277
0.139952739357442
0.156110227196838
0.152705956439053
0.16508635016521
0.153600230661712
0.169038338126152
0.154201365502618
0.178681074980603
0.162640282174043
0.22452347174247
0.181413743762336
0.197671636514913
0.155057378133622
0.20554323212183
0.161581004510505
0.197727358749914
0.167058589421294
0.209294143420942
0.196410929181815
0.230887211119397
0.208898984656961
0.215052289012717
0.213492555185786
0.214172991364089
0.208617022365058
0.231952814074467
0.210128953982347
0.250273824814229
0.204704459068121
0.24381059448153
0.234020128398031
0.263171084338288
0.211924755287294
0.275817379772925
0.231245156389689
0.242873445945135
0.246679424877658
0.276297739103267
0.243418864763981
0.274875481895822
0.254150296509851
0.275779653475661
0.269725117111599
0.289162347275894
0.259750846275292
0.312132672445302
0.297658779501645
0.310082385626395
0.29178940979767
0.325315286687815
0.285092426689823
0.328780545587124
0.284409554047925
0.361124766743073
0.308696172215571
0.345258337195409
0.307573333187051
0.348316941635593
0.319741820970549
0.349463089822721
0.327339973690854
0.350033705864404
0.33905464393978
0.389406928183314
0.344121378917765
0.390591635581027
0.346649835461347
0.374070180402992
0.356788492630083
0.387980577637664
0.372623185654936
0.40040946053298
0.390185049747792
0.42812322549112
0.38211639723695
0.475525493889111
0.381888290604548
0.437874454456162
0.40833534739287
0.429929112624467
0.407037414036254
0.463234390504398
0.425821519204733
0.462614327233569
0.427078020888526
0.451647814256013
0.449590480529683
0.484533925116428
0.447303484421281
0.507006197177816
0.472663161376548
0.490169715212898
0.482781296514439
0.509234965135667
0.455591844794773
0.490746246945915
0.497224596879811
0.513054270332411
0.479447980525603
0.51473722351084
0.489217902145549
0.546798612613105
0.53099450692152
0.557470770747071
0.50372336357887
0.550472407909212
0.499577261326794
0.581388113663721
0.537325010503445
0.602135484517669
0.540732262830501
0.601153040225267
0.542188722127782
0.623327728815292
0.598855650227019
0.582044893954405
0.569891964690691
0.593851947822273
0.540511150235836
0.68306744615678
0.627158839016306
0.702099513431883
0.586370660473512
0.630878879654226
0.63839761043767
0.695979662406186
0.633840467525522
0.668317281676411
0.62174334351656
0.697198565129568
0.63006153953474
0.713392906298654
0.663172887887721
0.737908302407502
0.671559491833305
0.729738004898462
0.715198107678791
0.754589702734682
0.688628607668919
0.76128139174596
0.68505307597731
0.779412134691091
0.687195327314155
0.796367609989304
0.719984288213888
0.814727240223678
0.757231426654288
0.791307416760224
0.730603395194878
0.808779898571534
0.778424470163275
0.842784550404465
0.766332208912936
0.876748241629906
0.762137154389574
0.79935413543757
0.753839553830091
0.850827277068475
0.7723092488193
0.831099867346981
0.788896662754813
0.890680651367422
0.874427881300058
0.884064378853894
0.860058143024456
0.936181116573694
0.794493076790246
0.920906479291048
0.814996568098935
0.861666206494375
0.833430917834214
0.975074129764929
0.865500320241647
1.03632563291788
0.887908651196159
1.00527951711932
0.883167772791179
1.0082204654693
0.927074590752988
0.986526189274651
0.866538181638127
0.980161539348881
0.889185532999162
0.999709420936872
0.957595043706568
1.0907334269294
0.913722594392313
1.03002684118396
0.939552283508516
0.964251724468175
0.935999813376725
0.990892475487393
0.956591652595228
1.19676469999189
0.98684854462003
1.18205943876101
0.92884766860423
1.15137325960133
0.964053963125855
1.09200182770335
1.00379495729259
1.09521583870406
0.93536912638264
1.11837973938291
1.06336214018107
1.36589895948797
0.993124532450303
1.17315956233237
1.09340411103831
1.22737644018644
1.0857073427213
1.11747215571298
0.988296846096829
1.08539483170624
1.09219879237529
1.1433410730212
1.03959859907712
1.126004074311
1.07672272472664
1.2086712192337
1.1091432612321
1.15322659784965
1.17840383171993
1.23207246922814
1.07727005430042
1.28487428264325
1.27072852835524
1.40877829272211
1.19215962265537
1.37277917322969
1.16153863326276
1.35032853028444
1.1969451227909
1.34558090240684
1.13474482624439
1.13326850799742
1.11633221824437
1.36802913593621
1.34075812646531
1.2694599079519
1.22079007473659
1.45337883238983
1.26792623152956
1.25390278531547
1.19380740147391
1.29940202785153
1.17112919624784
1.63065324327423
1.33869403168349
1.48099095191266
1.20905945584185
1.23590470366749
1.19116984728306
1.40364439325636
1.2182644612266
1.36783916621879
1.24147682576067
1.44052561414819
1.2151959072912
1.48752003063597
1.43012545092151
1.45689318620196
1.25032904275742
1.39441520035887
1.32525938962565
1.56535143804369
1.43172287193291
1.59441234535099
1.53303491204625
1.44410087130592
1.29811454876757
1.48386468680362
1.32800663476947
1.47186717676841
1.31634101217042
1.56461094758918
1.22506914992586
1.35737305147989
1.2189346693324
1.45725686733178
1.29279199345409
1.31578303719902
1.60300765219269
1.70386175950303
1.45755660129114
1.87464924027346
1.35785049618626
1.50101655838848
1.30475933596095
1.40143061994001
1.38124120332626
1.49390942655653
1.35817051055375
1.54540091505331
1.44664017304265
1.72121564363103
1.21042930308341
1.43863484047435
1.33391259560484
1.73677479867863
1.51149540842783
1.55828717895069
1.3465955315947
1.51429511536067
1.34941433300887
1.98605211111465
1.41577327718657
1.42688134045758
1.40495060583013
1.60643733261972
1.39294992282719
1.85411342707165
1.46544148213845
1.43545705444015
1.44325271637935
1.80601158830009
1.44624645474688
1.51961349731645
1.48116350467684
1.44465401553811
1.306044538789
1.54370298226663
1.31779908654065
1.4840280290862
1.32072460195162
1.52061519587144
1.47743475906368
1.65082305043987
1.87892349669973
1.66694603560519
1.53443640404709
1.64557444374726
1.4077536629168
1.43859803558645
1.45525536886008
1.64901135303734
1.4786549385273
1.5128339090497
1.41117230035155
1.55531289324182
1.49379198331275
1.49837339795521
1.52638591776237
1.67852892448288
1.71841742625817
1.63221508534974
1.44805744899794
1.6672292961532
1.52651173947259
1.57566874340141
1.35561523450949
1.42208839393578
1.36911885684008
1.63476945894003
1.51674429449584
1.57318886985081
1.35410471301591
1.49869863124581
1.73691692663107
1.54207329007875
1.43740341088067
1.71222374339788
1.57972076374535
1.5805136609836
1.47692307423971
1.56080038858388
1.72289596033251
1.77678188072719
1.45710306263572
1.62050569470483
1.46875835048049
1.42783009740265
1.44202486971596
1.55575684500254
1.62492438111685
1.4507967378554
1.31202416636852
1.48086379535209
1.47554775221816
1.44009297596235
1.38191976434923
1.68340595655732
1.56960523690756
1.66644396553822
1.475214436105
1.52512631035664
1.46834992548802
1.53796503589946
1.40264596442283
1.56992472072022
1.52728190353157
1.45966603977683
1.52146731317102
1.57290666355137
1.56454882325437
1.57160921874726
1.52119852273936
1.74141273714889
1.50264706652515
1.60263388237214
1.51287688741422
1.43532041671807
1.47798207038353
1.55743780575757
1.43819955237713
1.47794074200851
1.42586808552962
1.4698353422248
1.60709632593579
1.61088499925688
1.3609978192875
1.53212507578838
1.4640567532035
1.52643804207547
1.44151670268629
1.60499730337579
1.53273871179847
1.3938481181686
1.48171367236549
1.55918852506847
1.38937375894376
1.43968048469406
1.40962446713879
1.48016344890388
1.49034284384309
1.35064848900246
1.34097946502251
1.45908767714004
1.31834625678654
1.50321487734886
1.47424567316308
1.4057655242619
1.43777200855877
1.35961866469119
1.37318211350992
1.47832964626372
1.38376188184471
1.45677346287188
1.39428101734022
1.43819332423088
1.29617598376977
1.44512094413196
1.44483346073339
1.33666450874231
1.32767395556598
1.43747415141079
1.32488540933828
1.30528164392688
1.39045035983518
1.3486627074808
1.39309572925645
1.40978224374488
1.37373423727677
1.4683302033492
1.38042506826392
1.40996773802022
1.35476897627773
1.39423307692009
1.294904922698
1.34080538947999
1.33017170064182
1.3798756128002
1.29360538897616
1.24275178667066
1.2747302803841
1.34358063397878
1.29223543816921
1.31054300300947
1.28728006295664
1.2961014267977
1.35786662662915
1.33733959927405
1.28940495898362
1.27980036281372
1.22432794525727
1.33604618915096
1.25603764191455
1.29437942813218
1.31073861656391
1.19369358442308
1.21833797369125
1.29014439150207
1.17922733592769
1.19143397227987
1.23409644640665
1.29264559445244
1.24508670548601
1.2518041892792
1.25785494319999
1.17727673581131
1.17947873435149
1.20440598161288
1.13298088405486
1.21419753049944
1.18706916832863
1.17984165464633
1.18897283864838
1.18210229216377
1.19386210903156
1.17541874176616
1.13476457530108
1.15137334062509
1.11688905329844
1.11196988974163
1.16148081097828
1.17510879238627
1.1083009658298
1.14880760559416
1.15450018210666
1.1018186732738
1.07192102359604
1.10638581380623
1.12823437125965
1.09908120567253
1.0543225684061
1.08290100037623
1.08438289647231
1.09308004051013
1.07953278273737
1.05976075188931
1.0263475352973
1.06841715894814
1.05082951209149
1.07201729272562
1.07703688463653
1.03649855209548
1.00025856939691
1.02500666019883
1.07009403769487
1.04173265274134
1.02130916891609
1.0329744591967
1.00922250710292
1.00087923531426
1.00751458774983
1.00308314680579
0.971585450033137
0.981415721418118
0.97364332589281
0.967191761549701
0.968297301213588
0.955042834269439
0.994884648922175
0.997651467951111
0.953482858537894
0.922480304847072
0.90577672857572
0.912923102420565
0.947231112099781
0.947488159133957
0.955097284913646
0.897309404618338
0.886996854505079
0.912405575847109
0.894736583950157
0.882090827943562
0.871239705387501
0.887786242937855
0.8814574585411
0.868352996849441
0.861510472326701
0.851864422598643
0.861475284556706
0.866502781800025
0.857017590168624
0.853071951104794
0.846189388348528
0.844586580499951
0.827172334290391
0.839220721666467
0.850501142907861
0.841426680624015
0.807970321130322
0.812470137914379
0.832445140619229
0.824258247993832
0.786612361657592
0.825133386535849
0.798683549374335
0.780561312505196
0.777128194650637
0.776990407907214
0.799906424253175
0.785004837149121
0.765021077761041
0.757500772082163
0.772482322354741
0.756803613154307
0.744364669790088
0.738965264775318
0.762125805245263
0.755024682726074
0.739864894275336
0.751905435238911
0.761656158476165
0.714933056419574
0.723278198730321
0.740727341162979
0.700942125519818
0.732388227885527
0.712131570014601
0.707455610442654
0.731259844481821
0.710230358811063
0.710309567497787
0.708612532054056
0.702801126774598
0.694214628928047
0.674172927251298
0.679185168454503
0.68647537129344
0.672723102466101
0.662792117859632
0.681388621170624
0.680255200094292
0.655242158074803
0.656254650897747
0.654590239672318
0.65968989856924
0.645158134695849
0.660682903095926
0.661847635393448
0.65829798133145
0.642893628256306
0.622561663787329
0.623822622612481
0.624877390833272
0.619952245942972
0.623360769672008
0.615751622858734
0.61411983170576
0.617076215028495
0.628414264995213
0.601641623185981
0.589963201586654
0.602265295915447
0.608285479455413
0.595845578299659
0.591995785993235
0.59212485397481
0.59001063819495
0.582483994609833
0.578731144864407
0.571311438984613
0.57101774554895
0.577490961956375
0.56527796349621
0.557145630638391
0.570054304209472
0.58104067569257
0.57193336408094
0.558407219512695
0.554363396983287
0.544647580813668
0.541555725113798
0.54314065411741
0.541458605919999
0.55343385204459
0.538416052551905
0.533417145565916
0.527916736701434
0.536367823461907
0.533371722929192
0.518166199038662
0.523165641098241
0.518002887429055
0.512536648928038
0.508347224249021
0.51268323967829
0.511029963705496
0.513206166907724
0.518957448166338
0.508714014368328
0.496771506679588
0.496322581667699
0.500803899189667
0.503386133014333
0.497164149965572
0.495446933751246
0.493181827065555
0.489194064896408
0.49108947764574
0.50387310147774
0.486823140464666
0.492913250462608
0.483344762712785
0.486962454861091
0.474141508716291
0.482519620525211
0.479277165368673
0.484962113703744
0.471663594940125
0.478557437815106
0.475672828847169
0.471623925509092
0.476454809733758
0.479845187498339
0.480994536625268
0.485068270467767
0.483659053577437
0.491488468859071
0.481672471085189
0.477374868350466
0.478306419896991
0.493738907439341
0.496664571195828
0.497448075528945
0.486048205709971
0.489512134827211
0.503695928909302
0.506825798358835
0.500973607789702
0.503167302212931
0.499304859456928
0.509016736792584
0.502041852454257
0.498502359696954
0.505372837052057
0.518190613558557
0.512079770917499
0.525125577329422
0.521655684946927
0.518109311173848
0.505919272562352
0.52205240935682
0.537290226822967
0.537704680791106
0.534521498376872
0.556615393604933
0.5315292141613
0.541826745038954
0.538355831251133
0.544914027248633
0.550518449374015
0.556040576931044
0.535534606873356
0.554733152905148
0.564901000269056
0.572034945060327
0.567372350789035
0.570114699500528
0.573041993135978
0.569931505507633
0.578024805095544
0.57565496143964
0.587609082523414
0.604383784420086
0.581802754157685
0.608431340305969
0.595483042379877
0.604805304760125
0.598738320281309
0.613746304607146
0.623364131287273
0.614029015189838
0.610144573692094
0.634598052911675
0.623885127929698
0.632219779626747
0.631642058704515
0.63460937392175
0.629824867806996
0.637479958777063
0.630588891521536
0.647886614784046
0.639665167794462
0.643751432499391
0.617134647114212
0.673090390941199
0.647869330258956
0.641185445272255
0.629213589131734
0.641064700206839
0.621312995271186
0.650032951140975
0.637820520273815
0.641627964633325
0.613562269745921
0.633850379285141
0.622314725259477
0.651282516506135
0.614930778630828
0.637584779493612
0.623475570945036
0.647078463408643
0.636225992925186
0.632671023845562
0.633320230907344
0.644124209424018
0.620141292910047
0.63039066197977
0.636525722526474
0.654236226466749
0.631541443080934
0.640661703762326
0.640217916378467
0.640629114542172
0.640296304350911
0.640577945797845
0.630857902567373
0.64322890758707
0.620296661237058
0.654291765110078
0.627706613865875
0.643585609397647
0.642561554965788
0.649289626099868
0.633588481941233
0.642457532302332
0.625539408900682
0.650695936684821
0.634559254762147
0.634915147882808
0.621437584123362
0.642423750428666
0.627497273513894
0.637748459916864
0.624317954076112
0.637686781515389
0.616186646509336
0.634790682356583
0.626368878493563
0.616283153503244
0.598925965044008
0.617214343646665
0.612696713005638
0.615158680417161
0.603193350829041
0.604113123873884
0.592268217717865
0.611576245691985
0.59609722624943
0.592396054284262
0.5745516079892
0.598066915348553
0.565030567950738
0.573576835649018
0.555977517418294
0.569354779396889
0.559562113241897
0.547321917573089
0.557403526858086
0.542648058385771
0.547027174986494
0.542616162816743
0.537015128354975
0.552460236276201
0.526366603737304
0.531011801137405
0.53117568833105
0.522391232249599
0.503933715979415
0.508221113345086
0.496394332120294
0.516005415999875
0.49232924579589
0.499342939584071
0.492608217465448
0.489107143346244
0.481450135422069
0.487377412758329
0.477364494362538
0.477841220584522
0.474147889607804
0.473496035743065
0.470273148165336
0.46715650063481
0.457494700085782
0.470676921277984
0.457720786202949
0.460906512963323
0.445687656230944
0.4523881062875
0.443038288470307
0.451086904009286
0.443660586563046
0.453825022439597
0.441276057265652
0.437625521052803
0.427320490979593
0.442907914665442
0.437839096914528
0.442396704432023
0.433443660466846
0.430310640335922
0.42645456842418
0.435455778172502
0.424887155219955
0.437454709017502
0.423034665251857
0.423640234448868
0.417692837425672
0.419117656367509
0.41705705453911
0.41995361635302
0.405866145876814
0.414879275214971
0.402095937156873
0.411615026352396
0.401251884942316
0.412996904671566
0.397368249969473
0.405261195064478
0.401422477871539
0.402536638505043
0.38783625457227
0.396851676405381
0.396469496103452
0.398678311811814
0.395399369493239
0.406349343590942
0.384955913545771
0.392667711644322
0.385622401883649
0.397884940756593
0.381631360967897
0.390040060692396
0.375801816897824
0.382579629926569
0.387681720999582
0.388918447238827
0.373091277000473
0.379608491589831
0.375199695811426
0.379178167059549
0.378617622697544
0.372099826340972
0.373692945159596
0.37631951686272
0.372397099502929
0.378109166455407
0.363496514633995
0.376626231773627
0.361899828203989
0.377258463462019
0.356291518811979
0.371559842365167
0.370265938735874
0.364390359373846
0.36177413716763
0.366845836514451
0.356273009320548
0.36845824823452
0.362431968927937
0.363153966274998
0.361672311769431
0.358495580381269
0.353227011484389
0.361158674393007
0.350965624163346
0.354418395870492
0.346714788749113
0.355319623918051
0.356697903232348
0.357133256947471
0.351459642836307
0.35658218403891
0.346908648053479
0.354629131493622
0.350445726898102
0.359990374631936
0.351035090582527
0.352836926477143
0.344632692381295
0.354913512204971
0.337508165151673
0.350232535075537
0.342846436324831
0.33964739786115
0.345968239699483
0.346436744002333
0.345029615892553
0.345737726807517
0.338040708667266
0.346035044050031
0.338980326301018
0.347937811371783
0.340058704145315
0.351354322616255
0.343648706542463
0.346877765295936
0.33525204393646
0.340836647095811
0.332453509763233
0.344707674535102
0.334392890961732
0.342254211487754
0.33141499880817
0.342588751425207
0.332296778349856
0.339295983509967
0.326579246665632
0.341094569640352
0.325425454828167
0.336911324309754
0.334260429261297
0.337001115029553
0.326777312635728
0.331917368912182
0.324900840516425
0.334882090860245
0.327777623095675
0.328117497714814
0.319071793988077
0.330076418609435
0.323079352546668
0.327691184359803
0.317558904756888
0.329463546569525
0.319526136985125
0.326420053189659
0.318755614663308
0.321914903002063
0.314247572272501
0.325064680903711
0.317778679929122
0.319680927612128
0.321523143614986
0.325512881863773
0.318266160757154
0.319498310344035
0.313322839866025
0.324295662303973
0.308619977763405
0.312911246013485
0.315089627022572
0.318881826670756
0.299997891986734
0.305955257280232
0.306637815599946
0.310549968759018
0.306513057767678
0.311097226537843
0.303343949343814
0.311561488227974
0.302037097445954
0.309819638215253
0.298907460062288
0.307217392844121
0.304966941551045
0.294816840092029
0.297421207482618
0.299298316403518
0.292797601254063
0.302493434333962
0.297791245328763
0.298199770465745
0.286878939252927
0.297025005127176
0.28908865983675
0.297956243189408
0.298516149745577
0.288537273817004
0.289503924534493
0.293980330183311
0.288280793570769
0.288378733292188
0.278455133284024
0.292277724365594
0.280180970600034
0.287322900399701
0.280209605017558
0.283215440739074
0.276547582765008
0.278447193095283
0.273851943355341
0.276518112694115
0.278177780909263
0.273918155867079
0.269720827906609
0.27698411437735
0.270570369352153
0.273173131923512
0.270122592778737
0.275460448049354
0.266789772717142
0.272529663598776
0.268930527584826
0.274694408916102
0.2636812560228
0.268876289824084
0.266719013874422
0.264465700509631
0.257749165510203
0.27308817278925
0.257912989255395
0.26329865139941
0.258132849432183
0.267849521153369
0.254992852184517
0.259971996117184
0.25908970954261
0.263824668953192
0.253302630598063
0.253695642672809
0.248664989558367
0.255000069868303
0.246652570596865
0.251495128582303
0.245854299321028
0.252626116756906
0.247876071621183
0.251973808165674
0.247177493210076
0.249616249401841
0.24643922981165
0.248247565355312
0.241746672118139
0.244305672821506
0.243299398896033
0.249557946064153
0.241078070700076
0.249817308323438
0.237348915725405
0.241951971282766
0.233097474080967
0.243112229099897
0.235337193321485
0.240948016874643
0.23492701637779
0.236522084183816
0.235022868727816
0.239701684980897
0.231595874644197
0.236705938613086
0.231801676390952
0.237240999985389
0.231432359404151
0.233891407928319
0.222933894460552
0.235077432526359
0.229478348404911
0.233798891169767
0.227360128488767
0.232181746279287
0.226029998398828
0.231247512644182
0.225747422344104
0.230516518967039
0.223206357842646
0.229616231049718
0.222179672463444
0.228003275815674
0.220408383736689
0.230819332591987
0.218881237063755
0.224082812248891
0.222791067917594
0.222122564709576
0.226470702815655
0.224341459570207
0.220634503695458
0.230045685942212
0.221885926544654
0.224720625302769
0.218079444979072
0.226256595072461
0.215605479372984
0.228077820520913
0.215961009299406
0.219809390647539
0.215016696391314
0.218072509493354
0.215698550238816
0.219274583223945
0.213408078620157
0.222091100263925
0.211558007098306
0.221523796307599
0.215681821693466
0.220489935028467
0.212980528090904
0.221033439814198
0.209799739887255
0.215512071332754
0.207979019009169
0.214960790278894
0.205761157462778
0.210395378710611
0.212394018235703
0.212420789499457
0.205200025193117
0.210154864471265
0.208667653293285
0.207447873793733
0.207675340787265
0.213681021967061
0.203044068211161
0.206487500135686
0.201181963281484
0.210730709387307
0.204090830314234
0.209549202342846
0.205093628224887
0.207618721302848
0.202584979461168
0.210629147087082
0.200857340218686
0.209373199167993
0.199290486107878
0.205987603288526
0.20452887942564
0.208470474715167
0.198170609056742
0.203138492955447
0.203336014128113
0.203026518902696
0.197074436131043
0.205689317825597
0.201248142761568
0.204397331756794
0.196135235342875
0.206592969044035
0.199874617008133
0.200625958919244
0.193045265603599
0.200336038434338
0.194328298968
0.204664035413909
0.195635364936667
0.199889509864047
0.19096109677423
0.19263059249464
0.195622958225616
0.196863497988821
0.190257171032724
0.197480204950162
0.193357602184289
0.194178699163753
0.191044037693732
0.192509353633399
0.182880522984831
0.191935048228555
0.185712527502922
0.195598234651955
0.188989371546728
0.188632887666225
0.185692189117424
0.190782140480609
0.186097987318041
0.188917208152858
0.182539262738536
0.19126430489381
0.183480875300986
0.187746084995898
0.185480814745392
0.183192694349544
0.180252745476302
0.186052661148612
0.18094735549192
0.183837743583468
0.176464730104645
0.185624129327831
0.174074729551972
0.178198299531486
0.176950432230793
0.180843174318791
0.173587633202085
0.182849159062136
0.175522298342813
0.176430220593235
0.17317314957821
0.177365037099304
0.171995146936054
0.177202113167843
0.173396446405362
0.177365893387271
0.167229987652341
0.173551415928859
0.1700075438149
0.173609449551587
0.171584520974291
0.173671929508237
0.16609791512364
0.172686555036075
0.166346278757081
0.171207037495571
0.165316032320448
0.17208521452664
0.163957937009861
0.166792694555886
0.160821356711207
0.167933046417199
0.157882427844649
0.166216595701844
0.163454236059793
0.167636770972959
0.156632597918651
0.161647389292405
0.158786254150269
0.159055024306566
0.156870857051914
0.163420018024223
0.159840121000817
0.16026506421703
0.156468117194187
0.160927968387056
0.156482060867468
0.161102435760924
0.150527677678026
0.157121809849163
0.151823522822471
0.152278316392635
0.153714564653374
0.157326424505308
0.146352858617784
0.155135790282554
0.149258943840085
0.150253302128427
0.14794564887011
0.155250640729426
0.150782953590485
0.154679287182883
0.147483975758082
0.152120591036772
0.144754800298501
0.145948212857503
0.145132148787905
0.148227221772164
0.143551436281555
0.148100306247656
0.139464397002123
0.145735383888571
0.142357503576894
0.145346393654621
0.142893806107656
0.144964751543919
0.140846166865159
0.144353677643388
0.140271791025994
0.144388791193021
0.139127396913401
0.147445489959714
0.138845499221889
0.142570409927153
0.135745572981532
0.139366396807074
0.138321889003034
0.142427153401087
0.1347121803913
0.14220264243328
0.137821095447911
0.142595424786137
0.135651507266192
0.142891718988635
0.135876678181547
0.139726236619694
0.132629442069955
0.138887847046609
0.134188223063841
0.140841927607196
0.136418693111175
0.138880193218574
0.132797984810936
0.13824306598955
0.127842752190488
0.1341357477705
0.133326637997053
0.135526678357846
0.124772464524434
0.131368151747471
0.125510954290166
0.134292037894619
0.131947766136828
0.14570834371051
0.12776279792727
0.134716931693035
0.127462745017958
0.132148024942631
0.123594629210221
0.132607891117978
0.127366763218956
0.135756749115929
0.122230575281212
0.135522213399933
0.119829017333496
0.131973541972208
0.123354400943195
0.130136112388632
0.12159808725918
0.120985653898729
0.126056140246078
0.133854925109924
0.121117969470776
0.133374029323097
0.12722373282421
0.132541214404978
0.123924718877087
0.137397512873302
0.120271802312509
0.130898763440901
0.125825600067907
0.130941555219785
0.126881831451033
0.123819130587616
0.115568931939301
0.129844603453731
0.119299419691644
0.116214487043832
0.127364118477443
0.125373560865206
0.130115878383572
0.125058248304613
0.130986288746636
0.11381538848889
0.129083322788187
0.109437532026283
0.138243757925634
0.112364865226002
0.136820345533954
0.0923019689565749
0.140714035872023
0.0999565501086852
0.146012550683577
0.079988018711074
0.151903903369492
0.0970149523547558
0.148754587556244
0.0921613297878361
0.143657470552208
0.0999174960692336
0.131530588489399
0.113257104777529
0.124261689507633
0.119083888762755
0.119280443413815
0.12490248526008
0.111596400990432
0.125101131939359
0.114841485579018
0.12352456424998
0.116299345035584
0.120491775983487
0.116754269857918
0.116515350252282
0.119261165694047
0.113164184408108
0.12008909011912
0.114333744517644
0.117299170822014
0.116578886785321
0.115831062206588
0.120598282794539
0.116906852341245
0.119812011917809
0.11700749435607
0.116872847602997
0.118559031574605
0.115091346143316
0.117928208737582
0.116961013611326
0.115692861013772
0.118705114707257
0.115674181484785
0.115887582210659
0.11377262189805
0.120349987579468
0.120974846818639
0.114659274748007
0.117348398502842
0.116330941912237
0.11703606661349
0.11633639296331
0.115606569107684
0.114263885023822
0.115506674816263
0.11585507098136
0.11529650633289
0.116396051118415
0.115657461232419
0.117655811078268
0.117182872298825
0.119592917476671
0.119201457589732
0.115626046217337
0.113066240547067
0.117182246500455
0.115759543138751
0.117338975751661
0.117333679523205
0.116279133463511
0.114451599414464
0.115899182980747
0.114871258297684
0.115971739553262
0.113609127557048
0.116767872415857
0.114667127718014
0.116956601015521
0.114576464917823
0.119700042655065
0.113362266963766
0.11581584537696
0.115938440269768
0.118366274152321
0.114506811248498
0.115844011656796
0.116693878823069
0.118001150537034
0.111665167418932
0.114847117379333
0.116712338685352
0.117233294593933
0.115547862020995
0.115216899987009
0.115573370038564
0.121495023940412
0.115795558008859
0.118993113508884
0.117255495488936
0.117737175265245
0.114934377453979
0.116963801101249
0.116464833215166
0.118094195716138
0.116401985530868
0.116577777078113
0.114604851646095
0.118634650594468
0.11631510574028
0.118915996666444
0.118550478237662
0.118808905782766
0.118035452420468
0.117145394819748
0.11767071175566
0.116911123614773
0.116646406316885
0.120088130579285
0.115532698337791
0.11843188179561
0.117601633469782
0.118803982105499
0.116843959356898
0.120520484403727
0.117158027429874
0.116407723431274
0.116845589749471
0.122424017169138
0.121756606123652
0.120927705119064
0.115667681434568
0.120321858930615
0.118649527885734
0.120120421720233
0.11775091756243
0.120628698309787
0.122651895716841
0.120860729003209
0.119790222277035
0.123627011363304
0.121142143353429
0.121337912730884
0.123635771714207
0.120971818273465
0.120591369414534
0.120875053197099
0.118017461202077
0.122213178426006
0.119367773559626
0.121489940201626
0.120278039809577
0.118884079912553
0.119962636330405
0.124271705894009
0.122081322748582
0.122874913239944
0.118903970791978
0.120335232424461
0.118776551511845
0.121875035911377
0.120469690823801
0.122687809223999
0.124148662246984
0.126634437588189
0.125179952262785
0.123410284900554
0.121331916192942
0.121807992211941
0.120657380265006
0.126938182442908
0.123379222969857
0.122600164342235
0.123154269958967
0.125829833209984
0.125371513583081
0.12655869989864
0.122289815785962
0.125844446475296
0.125196795876163
0.12722991199118
0.124067298139039
0.124117215093009
0.126953889469433
0.126518438427757
0.122709049105153
0.127948860649708
0.128357465370809
0.125770091209844
0.122704763406538
0.126415468796483
0.127541732410871
0.127201526761504
0.127000385313783
0.123980625429165
0.12413953501229
0.126251655984467
0.123172240592863
0.124348671654814
0.124712283375123
0.12211310706788
0.121425644377226
0.125598777248991
0.121671623125904
0.122614328496935
0.123349735445805
0.121142820931193
0.123369465981002
0.118886354544459
0.120168827180533
0.118099162602905
0.118959795716465
0.124508905472664
0.120352362681866
0.123409353629527
0.12280246669893
0.121841322757814
0.118693318785796
0.119988900789225
0.117678923612144
0.119671892389935
0.118155563817979
0.119074381336983
0.118956344606905
0.120229461549217
0.120969824473681
0.119594799842175
0.119869249613548
0.119227317162285
0.120093510519652
0.118926053935076
0.120201922332174
0.121083816964064
0.11885462709471
0.117221803044605
0.11722742229925
0.118364338598307
0.115292598738617
0.118684930109936
0.117500865608624
0.116892803860857
0.11748975711051
0.116580998368236
0.115687185258149
0.117633476004604
0.117142132987961
0.117014563528268
0.117007375146385
0.11338740628355
0.115800692818762
0.116210946148012
0.115822582851545
0.114027070477438
0.115077000522983
0.115793587506297
0.114640962895227
0.115494077157473
0.115471600627316
0.117337402115038
0.114101288253715
0.116515446274612
0.112549216684004
0.11634430440091
0.111878646090865
0.114480353136599
0.113301017659184
0.113668948438503
0.114482674687203
0.115038738507423
0.114514818028514
0.113108329650438
0.115741878342029
0.114041674589218
0.112580944283875
0.112614180391674
0.112479025797015
0.114572478788213
0.111917810444421
0.112904486286824
0.111540704716826
0.113952630158255
0.113422044672511
0.113112356527007
0.110771878830825
0.111739591074692
0.11013742357261
0.1127432859664
0.112666862466356
0.112918968954859
0.110306381096152
0.112855058971035
0.111837366839906
0.111391611991437
0.110270389369922
0.110231743514378
0.109389116760509
0.107901127513596
0.111533329523083
0.111299651611954
0.11129099140913
0.109195003764053
0.108668714683504
0.109715200493135
0.108567187407364
0.112144631987566
0.109807108514478
0.110782992087587
0.104934809719046
0.108779220552334
0.106660851418062
0.105424945514368
0.108354629151609
0.106549472245628
0.105966810741183
0.107282580884936
0.104499894189687
0.104888524381578
0.106973048408759
0.105028217529396
0.105247059843389
0.103846902526434
0.102119440692909
0.104085597032437
0.101643047181916
0.104879466210326
0.101871602046908
0.100897371253587
0.100544409921479
0.104158272407438
0.0974029522547268
0.105374935068331
0.102157865876339
0.101594590401998
0.0997748270008987
0.100480017108308
0.0994136789482991
0.0980715350900359
0.0989806647890019
0.0991300402992308
0.0977937329868336
0.0988402394484796
0.0965169379756984
0.099050102369255
0.0969362094855141
0.0951261117482645
0.0948633116010713
0.0977640755359076
0.0957553359858649
0.09529122291286
0.095413338946166
0.0979179562815582
0.0978749491663731
0.0933597238888678
0.0911949676693287
0.0964577649768355
0.0921673237344945
0.0930933237310675
0.097814296175707
0.0892445209721182
0.0964261630642064
0.0917790932897734
0.0940529886879357
0.091231966065477
0.091895430918603
0.0904390569650542
0.0922365927166993
0.0912060833126926
0.0922744612658293
0.0903897339719315
0.0912325815796191
0.0899300212792414
0.0912917071379014
0.0892027063928638
0.0867757934289339
0.0919530702117064
0.0894657412893622
0.0894658982745521
0.0899645908456266
0.0883175615756058
0.0914240753627735
0.087530473680641
0.0905749581324992
0.086072504629648
0.0913464277175525
0.0893575772113514
0.09071033036233
0.089757809418364
0.0906520314434916
0.0906269428314523
0.0863830436068035
0.0856729145485702
0.0872292241065278
0.0861948505999632
0.0884007441455881
0.0873971075488009
0.0857358456808945
0.0853293521990101
0.0878324352423659
0.0861252899476472
0.0884315063335292
0.0864859090411673
0.0872838596750612
0.0858099706577434
0.0845167280265135
0.0851184094598443
0.0811671826628255
0.0845631853536446
0.0837473640794283
0.0864728479787468
0.0807262320198006
0.0947253439889714
0.0827044230478561
0.0880583085525965
0.0843771107180819
0.0842537065941364
0.0832147773955536
0.0831920098017822
0.0822040674429597
0.0862717912907553
0.0802243725317649
0.0850824351670607
0.0805245989517838
0.0810887624865587
0.0819561573034518
0.0833494855259435
0.0784164354817059
0.0831415734816433
0.0817590283004385
0.0854736611260961
0.0824127499069023
0.0792547843385567
0.088202159821699
0.0853749520145907
0.077230255011594
0.0887531211220779
0.0750717391633151
0.0873360586505027
0.087252847109793
0.0773512994160553
0.0894616235368597
0.0816668349307836
0.0840592160010362
0.079540573637535
0.0885386608046694
0.0767891541764949
0.0869340629768329
0.0795254613609164
0.0857840171171846
0.0838238863291316
0.0831033140250477
0.079407731568054
0.0848505966547765
0.0809422776204736
0.0830935249375577
0.0814020553670606
0.0807659068159371
0.0802511120690227
0.0824767942485072
0.0816800306517118
0.0798239093123229
0.0772982871857913
0.084569859551436
0.0779978595031452
0.0854002952904574
0.0794795144798065
0.0834628720044701
0.0740585878752065
0.0917480058678696
0.0769916904922493
0.0824345857555668
0.0805161997924795
0.0810960153055922
0.080893725301296
0.0817901705054077
0.0803189817969382
0.0829069475978914
0.0821330033923595
0.0796227377790922
0.0817969013502592
0.0798567577265928
0.0798876025884481
0.0781591799661506
0.0809698820925355
0.0802131342412244
0.0805029538640108
0.0769723931311104
0.0819165071977675
0.0823893644107466
0.0783263377921429
0.0921829301083452
0.0798977133696257
0.0872779395174881
0.0790123302654224
0.0862270229985687
0.0759347781759839
0.084331397557716
0.0781050676597425
0.0840059478265906
0.0762909006076732
0.0839466831545418
0.0798650801890088
0.0830569980952628
0.0816790796942907
0.0847473661842476
0.0784579720947019
0.0840753932610091
0.0798500881293312
0.0820486304745956
0.0776064434764714
0.0820141789130468
0.0784938458856933
0.0837595639026588
0.08712656175087
0.0828880676603615
0.0861896273174476
0.0802475569818069
0.111626711554951
0.0687386263071766
0.0887367623913261
0.0780735158851009
0.0853235900559941
0.0826247650590796
0.0834486805388024
0.0835488585492095
0.0812606227760946
0.0829605320768767
0.0874091821110938
0.0817349393985649
0.0864267840571188
0.0816077574451882
0.0815594100396361
0.089957521213134
0.0904418539166412
0.0820817478622765
0.0918213219001956
0.0779718997805786
0.0978344631041062
0.0819953494379956
0.0850134868882617
0.0966795880547009
0.0816348455641109
0.086596162488869
0.0838606214381813
0.087961819187109
0.0814968645713015
0.0887709627066178
0.0819713976291808
0.0892418503427836
0.0853736874614618
0.0883906769417424
0.0918081617340585
0.0848664664959675
0.0945695712933516
0.0882305131293442
0.0878952184172179
0.0942526337446355
0.0831464111939333
0.0910838494634079
0.0895212110156686
0.0905454899961449
0.0856299138433431
0.0985797035877468
0.0912855328825933
0.0945910721017671
0.0975681261418741
0.0919162568936244
0.0877871744723317
0.0966256634725637
0.0891025488624591
0.103966438322417
0.0833125535598937
0.123173543459129
0.0877950188014129
0.103792495841304
0.0931653539507288
0.0929625723463486
0.0992238013893339
0.0924092469592876
0.096595614401921
0.0927000844933226
0.105866585545934
0.0848621393283794
0.1076892426703
0.0850045180948369
0.120125221248764
0.0929702080261819
0.10410911367982
0.0960260407204829
0.100624882794304
0.0940388119714894
0.114378771684399
0.0942425896339713
0.10927552277622
0.115908102413212
0.0993427393923593
0.115765372456699
0.0929909556065147
0.111347534113823
0.122855667259363
0.0994088992897885
0.115044105020255
0.0968422674497632
0.114309619665433
0.0988678713970686
0.118022820411247
0.113325408471905
0.105338132977983
0.113827994140683
0.107289472507075
0.108232856016576
0.122726734702015
0.105425618947563
0.116424779226914
0.108437331898774
0.121011351528026
0.109407075043124
0.160050976193213
0.0997266088840067
0.148208268913408
0.116324012788236
0.13297626520892
0.124466193194676
0.127135354540636
0.122897231348428
0.139171626870359
0.128753182058121
0.129718415272958
0.12861860727467
0.157793032766211
0.133418435378159
0.131521785347584
0.145001332835584
0.132847582108645
0.150777283507891
0.162806826815894
0.156404321812332
0.15199122217513
0.144704653940866
0.153068143324328
0.156974819102636
0.141195124857246
0.157991696106007
0.148781453253309
0.156810745294554
0.156629434464386
0.158765644176566
0.168261744236884
0.154257292009984
0.167393796591812
0.159370285093606
0.173999167250717
0.173038505718783
0.195351571677264
0.177827857991135
0.171363292538599
0.213672289722145
0.171559372902086
0.186473822527126
0.178525780879193
0.184740446364181
0.192196218596306
0.18807654092311
0.190738711229456
0.188161273421071
0.214113591345764
0.188863754651819
0.206673044467732
0.213517822610081
0.204714983827721
0.226511505540369
0.199630889672748
0.323073174672608
0.198027750939531
0.259353128375518
0.222918681664496
0.272999768830762
0.268068679452232
0.250052462958186
0.261823736627569
0.273159605990299
0.270304030132191
0.29060197712622
0.289038964924049
0.303244985309075
0.30764387616512
0.313669432963416
0.314836014636839
0.362410201078436
0.331707550885041
0.369127814586948
0.358576445114865
0.363391371779262
0.37998491562321
0.393746106541162
0.381076060745965
0.40725799821885
0.399843033904132
0.428964749524544
0.452453468681799
0.428651410427913
0.454766096430614
0.447090355179006
0.493049676172429
0.460831979857012
0.536077939718728
0.484583050383323
0.508575571826298
0.509614918438515
0.528451538185204
0.53531252775011
0.527355775009504
0.588234466735039
0.558735636512618
0.564460373377034
0.56836010958894
0.574535548633092
0.596304760059156
0.601470594661986
0.60918980507234
0.601108223461356
0.635893845069093
0.606819023651156
0.736980088808607
0.634647872331886
0.625449871026356
0.639745575364
0.622101867623916
0.668154666376744
0.639421331069441
0.67803328002332
0.651530989470086
0.642716749459303
0.646043565698473
0.655914366736653
0.647448928502497
0.658902557372752
0.679710207564551
0.645816192752815
0.698894436855917
0.662124284523691
0.679112859506685
0.698193324399859
0.643304114747921
0.66158158057071
0.658621982980878
0.661241539466375
0.651865192090551
0.654330073359441
0.656959832515135
0.682376330556609
0.63612470456797
0.655333722516921
0.618337606397012
0.669328142677006
0.637519481906383
0.614086266581426
0.61759175270818
0.59574749114065
0.607579541148798
0.603847627790115
0.600537069024999
0.655192768036272
0.575924741198664
0.597372897498759
0.579242493060848
0.583433013866789
0.559904772909152
0.5721125276963
0.570126636684631
0.568843664198688
0.546751860548587
0.564056247149693
0.539300200324972
0.558028184970401
0.540934639646699
0.566073992651106
0.548993579831535
0.543555058451549
0.5392956962312
0.538309474345374
0.537409771242555
0.538508711691512
0.526769639333742
0.538648406019139
0.531278081122177
0.534659430951726
0.523342082463543
0.535191048361688
0.532681196464706
0.540264709088749
0.528970245987831
0.531219328349746
0.530264840710693
0.528738228459366
0.523605700206556
0.53080266426736
0.521229818874977
0.530596316459792
0.526874469405802
0.532695304478631
0.52255041941248
0.512551254070938
0.527563575395333
0.519795875400712
0.557032521008614
0.52557724214833
0.505496090050351
0.516704583231354
0.500273568307031
0.51918859142935
0.489309359623642
0.539870260733412
0.508528589580685
0.501647676785889
0.490061022784113
0.488413744417295
0.485828559141784
0.505261655457738
0.481725174571888
0.499221228867376
0.459466516187893
0.519240814138028
0.503620734745017
0.488536941671122
0.523934878161743
0.475419675527622
0.471024424426032
0.475453493085157
0.496088533804587
0.45483673804955
0.467446707051778
0.45481287094699
0.473727011555524
0.457249946323157
0.450817273931298
0.461993845436599
0.446904676959275
0.453703519809411
0.461458427341604
0.455066829674922
0.452344599105595
0.478249322107292
0.435583034992123
0.456381326372857
0.439912302908076
0.437330571335092
0.418051113131943
0.42928282686575
0.417117417504044
0.41499901989659
0.457532702998756
0.411379949541488
0.420725923476626
0.407450435821365
0.395038385740059
0.41237233503575
0.398712332707639
0.411235574911954
0.381178595659488
0.419373234723735
0.37341256096751
0.401867818647097
0.376861458362533
0.398183336598377
0.387778881855845
0.381542963187369
0.378889046804571
0.385130827882228
0.400732804464469
0.366610724007698
0.369280305678176
0.365275583647582
0.35555493342928
0.37516617764622
0.348606764227394
0.359005996112603
0.354159718878961
0.352200881927294
0.377373991871092
0.361856717346641
0.356653223548117
0.339810144953807
0.331926081962761
0.343143801110338
0.32733381593512
0.335595948912019
0.326916256181099
0.330733860055783
0.346777994749669
0.322587995100529
0.357603094589484
0.329572330403105
0.335678753014113
0.336908523230385
0.338078991324134
0.346511826617215
0.360790124709385
0.366404866266312
0.362484737472168
0.346019902794697
0.373347840520038
0.352268042155263
0.36869978433907
0.358997591102019
0.37795023029322
0.371866560976988
0.389208523736307
0.388357609404538
0.396053713173851
0.395784277697562
0.41002287169204
0.40607121229229
0.451333464507349
0.41330982243007
0.461607134085154
0.450732081556182
0.459280373955975
0.473839459189792
0.470164558442619
0.484797611100727
0.48741785181928
0.492040676649711
0.496135583679669
0.487643413458736
0.536061261690289
0.511369701569818
0.522187340061732
0.520554669731888
0.543109281905905
0.538401955133744
0.556868451115218
0.551157156274335
0.549615745776934
0.592012596058318
0.551847131923284
0.575079873671229
0.558145717073064
0.573423214093636
0.56839228438939
0.564817954576468
0.572124999549232
0.569125374966575
0.591985492179337
0.582875910444601
0.590958949299712
0.597172725150085
0.594255321702072
0.60170589895038
0.605304939398252
0.613310892326293
0.613875471833893
0.616982591387498
0.6292298872236
0.603951805330607
0.657104335058274
0.641601485328751
0.636852234356582
0.644836766819879
0.638393567976801
0.652990733299658
0.641919261821463
0.657921889831433
0.671604559808739
0.661587423035948
0.67403324942967
0.671173348754336
0.678709148178459
0.684223598951015
0.721146749685245
0.693347295952792
0.692445884615025
0.702220779649379
0.686221355279375
0.75749301029262
0.698682011961446
0.741896953977633
0.711108217631424
0.724972702719415
0.712902491653674
0.726776029035537
0.72835231432307
0.73221510360741
0.727007444900895
0.739390727557528
0.7370249062293
0.729022455702942
0.739577791975942
0.73319729630622
0.74181081409871
0.729919061747635
0.719432792125148
0.733536522211402
0.732849343909943
0.736051623620909
0.739455768905422
0.752036644798191
0.726977306827757
0.734710790301899
0.71933303179523
0.742882859246604
0.745690028584749
0.738872797925516
0.738008606111113
0.744554446734713
0.740841870940903
0.754217667455454
0.726776089804899
0.764297495365986
0.744449874587164
0.753060113034338
0.761173185156842
0.749752206679958
0.750932186127462
0.778235323401517
0.76014637785926
0.767143313740278
0.769539600643428
0.775288557444556
0.769077706863216
0.778107767353876
0.782043374441751
0.793188652537531
0.787410114974629
0.767783768478861
0.775191245247955
0.773675510640194
0.765630492449346
0.779413747692856
0.766068298721099
0.768650611209646
0.747553598976792
0.758626320528761
0.747751059927564
0.761440736055964
0.74265284224067
0.724983014479885
0.726694630314112
0.709521991378949
0.716510261510319
0.707223090987886
0.711196617229935
0.705919448977657
0.701357666961021
0.696021204994278
0.690740085957282
0.691594608259355
0.694162172026659
0.685102772710063
0.691831305437044
0.695037000369397
0.681756837508895
0.681158431518297
0.682596882092281
0.679384820575262
0.676555156163217
0.680610002206113
0.668838274307702
0.675647303217337
0.682957202798308
0.669708188444343
0.691385895812853
0.687012532922478
0.688035010273934
0.677162633101086
0.679169050303727
0.677598636171529
0.678333013056327
0.675505707535554
0.682735177462628
0.678258616944258
0.674057819483508
0.67300221049014
0.675749493603792
0.677111080418569
0.671104075242758
0.670748082659604
0.674601815706576
0.669757969182312
0.669428156968363
0.674897511684196
0.668779562147503
0.66868191694663
0.667161371652038
0.668971745778622
0.669775843012033
0.682648583213417
0.66901224331026
0.678025843095434
0.676012076345879
0.667622480013978
0.670937734737161
0.674197613285845
0.6764926890028
0.680052993073757
0.669244813347524
0.66953266868561
0.667335002476951
0.663883424683722
0.658378289199329
0.657681345883385
0.651749323799343
0.654157026494566
0.643096904954004
0.635204167584669
0.641319856134985
0.636215739889518
0.627628845665592
0.622444886902272
0.618335318239574
0.614593119585803
0.605413119624423
0.608864548453592
0.604750010159963
0.599733528304759
0.599658265907328
0.595603993219156
0.594293624047556
0.596960791980815
0.590220685398875
0.596177709851134
0.585443326015745
0.583342862213445
0.596993233311007
0.592431855699921
0.583448099788034
0.599790585652427
0.596641299355448
0.593778482022918
0.590054376622722
0.589305004704371
0.599447113775988
0.600022464344274
0.602498883232047
0.601559033327613
0.600665465112615
0.603941442582552
0.610006807790524
0.613465232523499
0.615784624632403
0.620572859752219
0.62128933856461
0.62017516895276
0.622829364465815
0.626005925351963
0.618767622314141
0.620914565538754
0.629167499761878
0.621092257637409
0.630445726790837
0.624446046040381
0.625150961067627
0.623270137193498
0.621382463466751
0.624824513959966
0.623903584344576
0.616271855298643
0.614354205260015
0.615907022735305
0.616971658617891
0.61411683390934
0.614016813287287
0.610807346844606
0.609051789080383
0.598085616050052
0.603484868159353
0.610690222949837
0.600184501804523
0.597802445707429
0.598204338245768
0.593224946554365
0.590894477359715
0.592586927042076
0.593153910348157
0.591977179907404
0.589637706425756
0.592014398976246
0.583629668412996
0.581037192867843
0.583150695645201
0.576671719327747
0.578848840587885
0.576986038328882
0.575201146896915
0.572917797236636
0.568325693213816
0.566474303361632
0.564784778687746
0.564927072692528
0.555319072778664
0.555141151970183
0.555856112010641
0.549206276545286
0.544811376991997
0.54148630467704
0.536461126133472
0.537197493878407
0.530269424718462
0.523260536735596
0.522647496308499
0.520737441791489
0.518903033640791
0.513905837233865
0.507725572416035
0.508406066811925
0.508197118447623
0.504238168196077
0.502789771064123
0.507136097949526
0.499724403841618
0.501342946719662
0.496335965068095
0.497549664501974
0.491776009547002
0.48766815392902
0.483149006174621
0.483531047955706
0.479306691920077
0.467576628348475
0.461297476078896
0.453874960074233
0.451174099693831
0.447743398405591
0.441786515461633
0.441584702677393
0.443559857526021
0.441669152292081
0.450037258203406
0.457385860690916
0.46291016399446
0.471340914199033
0.479707132741297
0.492587972147582
0.502415446858078
0.520550729663465
0.540022593334019
0.557712577346872
0.577582608208424
0.596841469171865
0.620405846329228
0.634370444317967
0.647445282853384
0.674005766665233
0.688290220683567
0.711099712552698
0.727079844889685
0.751525703948572
0.762179334904326
0.779122629463617
0.790710897230889
0.806309245360045
0.821961965387971
0.840643432273197
0.844872696514612
0.864710347709045
0.871846743568162
0.891471111703405
0.890195229771372
0.904460842290013
0.91134755515032
0.914172440393031
0.92013397283821
0.932405281176773
0.940551217048993
0.940274732088473
0.934168301753617
0.938798811165349
0.933432459516513
0.939305024965651
0.941487587485529
0.954000582207876
0.952133795140318
0.942635873189955
0.936292237118517
0.942309646090464
0.95247666464729
0.968172296930592
0.974100427612853
0.979496252396193
0.979063676310837
0.977457977339515
0.989867231606048
1.00080150952407
1.00485203281127
1.00148363811542
1.02860267978297
1.03560502180281
1.03420881456493
1.05220208420865
1.06078482225998
1.08207666844132
1.09038087105781
1.12189983502445
1.12774780333017
1.14352778890219
1.13962985254674
1.1734573811173
1.17022441876379
1.16428377217335
1.19754344512731
1.20069166026714
1.18909342050214
1.20624688109941
1.19105764377982
1.18074014527745
1.19248543136169
1.17572544616181
1.17941010274051
1.16828864426205
1.15988485349183
1.16489906987396
1.16744903875038
1.18176532372895
1.19034515113076
1.18441742793037
1.21139122437328
1.22775183741108
1.21432208756857
1.24543361399664
1.26316159187799
1.29225142573248
1.28695175800143
1.34249040594495
1.34453515501647
1.3616885049432
1.39867532455706
1.41831054493264
1.42897731906722
1.46106538758466
1.45352390339277
1.48725300465102
1.46208627579051
1.48700952484313
1.49803560244668
1.58494044715759
1.57182846430767
1.62878410758509
1.66040458676422
1.67371459773117
1.70778843722749
1.81194989382888
1.64561335909015
1.75458663833263
1.70404192010105
1.82107498150856
1.84759645688483
1.85671597464142
1.78424818174428
2.00158802901146
1.75810215517073
2.03900842846741
1.83348144426308
1.95261613818192
2.05852355086491
1.99885195537602
1.82695209780931
1.96269945176179
1.97714329396542
1.87464766079756
1.86058254587981
2.15825565966676
1.89096123579286
2.09930854592062
1.84290090911232
1.86405645681709
1.9426521214794
1.91959629343592
2.02891641770232
2.19333485058237
2.02111711552086
2.00439408295258
2.03996569366866
1.95449596042961
2.01779288645719
2.0613343584567
2.29713666299566
1.99491073619196
2.02807191160302
2.47347801489103
2.10663150200965
2.39552902344921
2.12986144397309
2.14769538587127
2.11425050228215
2.04243996198875
2.06630751755894
2.36758006215625
2.7115827337558
2.80284480796069
2.29149844467637
2.51039719673044
2.74195416122462
2.17974605716375
2.18828456482383
3.0621074412764
2.14018275893612
2.188767716474
1.95513679286347
2.27416587457802
2.05475946228399
2.21047237210272
2.27057667163327
2.9328453534676
2.15142078952827
2.84420850436513
2.14362727826597
2.5485874030076
5
2.35380528221654
2.21954877945861
2.37352464204191
2.06330384962073
2.3277612772722
1.94375544393058
2.06852218595578
1.83735929553695
2.07166626026375
1.80029620864661
1.88733277515786
1.73518919863321
1.79957740012344
1.85550877988164
1.89152043113796
1.77428152695799
1.94340206415007
1.72286775339018
1.73932752569862
1.58184877374577
1.74914241463257
1.63616934669804
1.65944301875743
1.58411101611258
1.67591190595553
1.55225332863491
1.677051837133
1.53944117384154
1.63801224041229
1.55298160346827
1.59204847752577
1.5220635821125
1.57845430648615
1.50020604745902
1.50522537545406
1.37969127689843
1.43334515610548
1.35879502044253
1.37657314589231
1.29600352753694
1.24396695652317
1.18240461613928
1.18894238918196
1.14612706980473
1.09837654214324
1.05249816234739
1.01462221354447
0.954068914420226
0.930238062131612
0.911838352100105
0.861330117313925
0.842224070775052
0.815759586657928
0.77662035278978
0.771568912174861
0.739208572093361
0.730957880201682
0.704804864716386
0.691451491752262
0.685959745522476
0.684138025612821
0.678246747047829
0.670647786083141
0.673964827200989
0.663237155244983
0.653323713159812
0.661949416979372
0.655208241272871
0.655529006464279
0.65156294290356
0.665309472408722
0.67211951345094
0.667970616225338
0.654645444550339
0.679232378207897
0.64676839831482
0.634968218651827
0.651331036521554
0.645455456932271
0.629757093509349
0.632254418159228
0.625250788410193
0.621480086180561
0.619701841205677
0.62260037757372
0.591170057110223
0.608336128969864
0.608729899042296
0.611638492363574
0.592069202979663
0.60325393677761
0.597983466096656
0.613159209588826
0.594273766203387
0.613550086141217
0.609059670352157
0.611368285215973
0.612824156440323
0.634091588290393
0.626178467031623
0.634473995796823
0.633398431094215
0.656628494246593
0.631277142718226
0.659697362906587
0.651240047997398
0.659764431230031
0.658632967455548
0.660063947116461
0.650129946947125
0.665380723904717
0.658340578654273
0.658686283753022
0.657422901117256
0.651660899835233
0.675607774193581
0.683202418560355
0.668026415303092
0.717208874703759
0.685599778501188
0.716934169138241
0.723632270594719
0.738234741466704
0.722848340104641
0.789834218003621
0.789630227917611
0.828097500782722
0.812725247993242
0.836188336117342
0.837737100501465
0.854799892078748
0.838643670617621
0.871935164211833
0.851248070277015
0.860056479791534
0.825461529448157
0.836659774334754
0.825500688723037
0.811772052368004
0.784423570188792
0.795985723097608
0.800714823997509
0.787121848231491
0.7878085499181
0.768718916981425
0.78507717843567
0.782022887830931
0.79947457397296
0.808713791096595
0.77047157740109
0.803109568192999
0.780560011791511
0.783164399637344
0.759903469420917
0.783331635694938
0.739083849136821
0.757441758842755
0.758344186912539
0.755982289755909
0.735459778422279
0.72015529748209
0.727457946483893
0.716366813378582
0.708240181741113
0.712316115209826
0.695680629245659
0.699569230882174
0.691562343743667
0.699531012913916
0.672733608833164
0.685423593203527
0.691259312116095
0.686227232581269
0.663326634776639
0.675972723411506
0.672520809734422
0.681581561320061
0.659085371783547
0.654347639784995
0.669613128472221
0.686332943929712
0.659280449771899
0.661515490299311
0.653065436277998
0.649938186780146
0.648477617629768
0.652436827502565
0.645757900774359
0.647584132673696
0.632807031450647
0.618916799222538
0.630310659183169
0.636310581415782
0.621966342201424
0.628858314464171
0.625077419883461
0.637462995250838
0.61716492216515
0.628182125951822
0.59632882284117
0.623413933542233
0.640741560186992
0.628631514786638
0.593222035990702
0.619662937324859
0.625214585303343
0.623442412778784
0.625510689057464
0.631884443212467
0.619287923664784
0.652918640814961
0.634503429284973
0.634455229511814
0.647733700733271
0.65324276704256
0.650079470321171
0.658427861077152
0.666581839319248
0.636767584391009
0.625907032507726
0.694013660850829
0.666238919568756
0.691302103375203
0.694325878209472
0.694701914410601
0.698754248984095
0.713488493830147
0.680656615995547
0.723613064646246
0.723134148019944
0.738311355994011
0.687350585244249
0.757194180184777
0.810786360399849
0.78310965389261
0.803832637275046
0.898510610239643
0.797565248638153
0.920346256562105
0.858681345903738
0.863538330466055
0.920434870223335
0.934471846755738
0.962162693485154
0.997461828792686
0.947223690732461
1.14890006679155
1.03124750058536
1.1338313057206
0.999263532112104
1.11196771617708
0.966496360079439
1.11109091400412
0.978117113538155
1.10460330758575
0.94749244510512
1.09436289907782
1.01780672215986
1.09454763112123
0.973186738786521
0.956775474512674
0.969323093638939
1.06331369006699
0.98811900326086
1.03990089200602
0.958202074835533
1.08313832123368
0.927022916244525
0.990015179264531
0.964828358055144
1.03409542576521
0.880602585045879
1.06862373060342
0.913978624870389
0.951852713118567
0.936283366981113
1.01557803321653
0.89710740261538
1.03081984903859
0.89015534196229
0.92866768655985
0.844128241018633
1.00245711345283
0.913479062036405
0.884914044654447
0.808103933242877
1.01527060377221
0.839431369578048
0.880685846482994
0.852767380479942
1.01211684329536
0.888895366214345
1.04558844160411
0.911048361666861
0.997664391958625
0.902158321652327
0.877140445365607
0.834504812295559
1.00585020996533
0.954001788951014
0.962878789402903
1.01467956949809
1.04976702244896
0.922017606351417
0.91846950741719
0.861279242445064
1.03826226285107
0.987007107258921
0.982372700422327
0.95143218521721
1.21071590562331
0.998759140586304
1.06232874105899
0.915511452260997
1.07487093677243
1.1021817959645
1.14752267472166
0.948563121819527
1.15791498249378
0.877875024777579
1.12596610976711
0.985814339552533
1.1967188252504
0.899221996002605
1.68698324316799
1.09570448909511
1.3000144457128
1.11221294164653
1.1767884596148
0.947036415076816
1.28250452041627
1.27934014870222
1.29971026191943
1.03359401634215
1.41054971644453
1.23319950987628
1.60040338606458
0.905814986820094
5
1.48484635551388
1.17003631325208
0.999813449255277
3.21299030574582
1.15692269053812
1.63275100563882
0.979924976377275
1.40416860986283
0.919085622826376
1.21540895647087
1.03063828594503
1.87059115134594
1.13405904125798
1.27364338243362
0.863064311522399
1.55794830850404
0.918103377944755
5
0.959650342853189
2.36634472148381
1.17377885966179
1.6489575975053
1.66820109741433
5
0.932769240962785
1.98196822371449
0.806251035990892
5
0.9671323890742
1.15185515357613
0.941802499733411
1.70458730687154
1.06772675940415
1.34593419726685
1.05002035858864
5
2.07755978199159
1.41742860222347
0.709164336040246
2.1077747682951
1.49416111877359
5
0.631276049782865
1.58320082867337
1.0162339592593
1.29806533213754
1.41307803908465
5
0.99638553465015
5
1.42737679416818
5
5
