3596
4000.36533379555
650.420452594757
1
2
2
0.0275225275612486
0.0311699051819468
0.032657979376744
0.032438937013464
0.0280170668023545
0.0409041960196717
0.0365327540381242
0.0276592151360764
0.0342741649705821
0.0383956362343258
0.0295573978716766
0.0367098123395619
0.0277528736280397
0.0258041978299488
0.0391086607849192
0.0300026991102102
0.0331617938785084
0.0358476812310336
0.0351264610147598
0.0377455905813242
0.0396306002060848
0.0386845204700858
0.0299759682058513
0.0415670212747992
0.0402995250163545
0.0273954382917903
0.0243361931709568
0.0397379283530492
0.0337173318484512
0.033475987849508
0.0346422804615678
0.0406684296286991
0.0311383768624223
0.032176218602458
0.0238248679981075
0.0344272966885146
0.0307005140111537
0.0331504993094824
0.0233789912917798
0.0346983075152218
0.0288039476089414
0.0347007326767349
0.0348756176296674
0.0363523180967693
0.0242562873194176
0.0265089548615159
0.0290839978619022
0.0431867091186686
0.0293483203849909
0.0318132449671448
0.0342259925923032
0.0385115514341476
0.040356791654781
0.0365998252552293
0.0359935974864651
0.0248018721176633
0.0271623370375075
0.040022688925571
0.0322165806780937
0.0386499699896305
0.0404432609801962
0.0305650355192135
0.0299465528579256
0.0173170290007925
0.0343758425203407
0.0276250069646109
0.0301187857530984
0.034596223545385
0.0381089665621085
0.0330652512635321
0.0342929341102219
0.0364225078724393
0.0322567001949533
0.0427578060810015
0.0344462468121531
0.0333627689276616
0.0299317485679123
0.0275189823046817
0.0382953543433409
0.0299564568183111
0.0350146124696465
0.030907990552033
0.0228460040534316
0.0344098703748185
0.0401697872994733
0.0131685850376121
0.0310222593198927
0.028362030625811
0.0227519420590599
0.0289478262260509
0.0372465277295801
0.029645448326086
0.0273564626536679
0.0274643827393782
0.0344939287325395
0.0229180617175983
0.0381237761196466
0.0161499028883028
0.0196070726658729
0.0403257227976072
0.0240895705137596
0.0546630778577027
-0.00214867262157299
0.0623929260140056
0.0322695878441169
0.0291214199972857
0.0602712230802808
0.0248109260368501
0.0370701234571257
0.0222635083226119
0.0332605266213515
0.0212328816184883
0.0352193181883709
0.0292636798547744
0.0452634700436189
0.0356671162165482
0.0224056609415317
0.0244957477072377
0.0257894987247284
0.0230414947039481
0.0290948578521565
0.0319888159640982
0.0148145496561645
0.0456686538979788
0.0260248512171977
0.025683962017708
0.0350540196742742
0.0307727509043384
0.0256323245057841
0.0273357935186068
0.0197394896944817
0.0313761431810305
0.0230260612275417
0.0498621525638923
0.00684860550342596
0.0225856888055987
0.0255933763307894
0.0431633820335046
0.0556188181002667
0.02082908287421
0.0339716717800059
0.0177630779249465
0.0302714780344951
0.0395764281053612
0.0201127572099213
0.01921474310411
0.0274300971673144
0.0236271011769919
0.0151980993199156
0.0328268905664891
0.0249481142806875
0.0331090942549232
0.0320449066433643
0.0316889641762867
0.0497120973011904
0.0461109808664463
0.011648528203351
0.0686515316214659
0.00187040739269746
0.0315483088359554
0.0158051214314856
0.0216970933028628
0.0267161008450716
0.0291289210185561
0.0256087014563333
0.0211090981572326
0.0358804938924196
0.0162084104484131
0.0302506666923045
0.0326765238848751
0.0290303402092999
0.0130862841452733
0.0459203508106222
0.0160156899146468
0.0233331915775714
0.0447843865900262
0.0194409723780229
0.027578283282496
0.0233415252483356
0.039799034367733
0.0196394085782783
0.0334153624835582
0.0173227948030906
0.0210635163902698
0.0368326149288321
0.0281437027738769
0.0251507485345347
0.0385620232727204
0.0259584274513486
0.0439356835879401
0.0622678747918305
0.0468132559037421
0.0152368145807569
0.0328280890000376
0.0278636302615355
0.0403690386918634
0.0401327600527029
0.0129785132990633
0.0356873561945815
0.027458926909452
0.0296016563524321
0.0237899656829276
0.0230265326826707
0.0301086696338249
0.0227315596144476
0.0524987948276973
0.0364952843595112
0.0219908146261043
0.02462511495127
0.0297409768431965
0.0255840410368358
0.0379855441097529
0.0517197346970134
0.0132764601011173
0.0362786858225093
0.0202959888931804
0.0410015545800225
0.0198017938407752
0.0259209192509993
0.0276816303940049
0.0253238216298404
0.0246278052735884
0.0330540817411605
0.0241063481589625
0.0278199086848804
0.0180033046275468
0.0321374995790212
0.02821189169997
0.0305464886874052
0.0400023851542271
0.0364863481665775
0.0204032417784964
0.0272349776566228
0.0226417724438269
0.029356969005405
0.0502509185650562
0.0267385434091113
0.0278895156932957
0.0295304014427693
0.0288628933949155
0.0296222734378184
0.0257216872427307
0.0278794561648664
0.0300497247889757
0.0307928551541918
0.0485204408556593
0.0327653407746146
0.0280648970959282
0.0370035539361839
0.0274198801083981
0.0544301967775922
0.0153565296704303
0.0417807096138731
0.0224223020450224
0.037882724599517
0.0213988643720314
0.0559504148899086
0.0209931785635269
0.027832756719653
0.0315738534477221
0.047019849587418
0.0144539518098761
0.0472651573488867
0.0277378514195214
0.066566109101218
0.0263083016645307
0.0274690759560882
0.0562901882232321
0.0371570639484392
0.0125112363464017
0.0484103428302117
0.0192526071827426
0.091439518501082
0.0537507889132742
0.0310176695198172
0.0247908523231803
0.045909258032654
0.0336829685139059
0.0399017936567954
0.0417998809157403
0.0376984760457021
0.0623373126287873
0.0203216421129523
0.0765478896064067
0.0357054147100567
0.0394113174188541
0.0658753561605315
0.00542548491514715
0.0537870134730752
0.0257921899658303
0.0505577440099058
0.0331520734766273
0.0542194105399093
0.0282495224555419
0.0501677409398694
0.0170228116823002
0.0583379614851573
0.0247086606124503
0.0353465028522868
0.0254103346324723
0.0532200193565399
0.0251429755292335
0.0506273304959302
0.0354429459903047
0.0495983842367279
0.0415569606810025
0.0401963686719863
0.064647617446269
0.050147975041115
0.0194189479492027
0.0603114024236744
0.0253384749292151
0.0409683866695063
0.0347354109199817
0.0456184820456841
0.0349993344279554
0.0481844959560489
0.0344145161327969
0.0501035868382014
0.0471715875178737
0.0417600414967819
0.043292109291805
0.0378228623907252
0.0424865520398864
0.046073294836531
0.0424548085836043
0.0459133148671007
0.0433281350099715
0.0396706052321191
0.0416332552168313
0.0867972322460457
0.0395854197016296
0.0624781554555432
0.0771508869771939
0.0354643972689703
0.0492570849324499
0.0415722743327392
0.0430132137942206
0.0553033663475014
0.0499009506466666
0.0620007597911908
0.0529404001396859
0.0597650593549013
0.0592227663268623
0.0611687361420491
0.0562296093089766
0.091311370781653
0.0907626482863207
0.0706699887810415
0.0461856252383243
0.0584110408048612
0.0592756433200022
0.113299804977618
0.0403635817557596
0.105965691195113
0.0427873771208064
0.0708653559551057
0.0541354552329297
0.0705093963001801
0.064627073107639
0.0694495994903477
0.0688653504267163
0.0711657318841051
0.0737519452325547
0.0788775888071755
0.0691163813376096
0.0838763661504651
0.104369280853291
0.0954679135378476
0.0600091740809235
0.0825739066717305
0.0819430165969596
0.097562176930094
0.107806408266383
0.0932281088763737
0.116414650364421
0.0862004426494686
0.109245785564716
0.0884273076600384
0.0764170151692791
0.097198057088746
0.0901664568526851
0.108467251551153
0.0933283394730611
0.11484705056865
0.104598494960284
0.11137958300035
0.104199959042747
0.115471098863059
0.110139102913221
0.113704736644481
0.111635493687933
0.128015969332034
0.104410540037246
0.128933372349859
0.117638795154403
0.163741349487986
0.120682687338648
0.140631678391293
0.101842101253799
0.149026459542807
0.115444087990616
0.149627300462118
0.121107312999468
0.152710626355951
0.141599935993462
0.172305779695307
0.149779985459397
0.16088263464349
0.146150752407598
0.154518302879872
0.146481560857686
0.17225290145163
0.146192395420906
0.180845718577199
0.146761253175986
0.174380571778465
0.161230064501528
0.199031863599615
0.167852868184807
0.196100005755647
0.158187035882319
0.185180536461066
0.167059290729488
0.203633404947481
0.172530145278029
0.192802809331034
0.187332144438173
0.196484131543647
0.187792006668114
0.219141113101634
0.188146267158273
0.231476727117562
0.212030015827759
0.21797598632436
0.220059437629884
0.221976282002173
0.205136651879102
0.245314260206087
0.204771201047301
0.279542859233268
0.209526433611307
0.254506853798013
0.197319642110474
0.228600630120182
0.225879127098758
0.267291657990415
0.243861239569721
0.260421692205261
0.254167433972662
0.263933628995725
0.248333782299551
0.29062769010777
0.25466533566552
0.275027522167814
0.260620129992964
0.295718038770685
0.278238189516265
0.303190894373462
0.257328027364608
0.307932478213628
0.291230577796932
0.349032795850006
0.282224820348904
0.361648369865031
0.318966345381462
0.333335498995997
0.305664473676623
0.333812459852413
0.310838354409571
0.323576653665998
0.313583393675777
0.363220025054215
0.340573661057105
0.353151104248093
0.341090288321972
0.35726531338316
0.333841402414122
0.365329993581587
0.349584928733558
0.394141079934784
0.334961495736111
0.379116959997975
0.350395449105214
0.394094478106108
0.359701367462243
0.371844664239485
0.36572465565803
0.414251681405603
0.38650897311638
0.408917864618814
0.365096601547403
0.437959337601736
0.388770840270142
0.449944079602103
0.401713824098167
0.437770982520324
0.4199991048812
0.476225019815657
0.416183210666845
0.473128110784639
0.45025109629842
0.451585227809721
0.439332930951754
0.462766945552908
0.454107512926701
0.489579498914374
0.430713370726125
0.500005919982713
0.436610630687925
0.549309805187864
0.477438646448244
0.509947659904831
0.468577438327709
0.543007273378172
0.480164341069404
0.532478335667015
0.48684652117187
0.55344959899901
0.503714307243501
0.552206163186403
0.500183577071744
0.576443346482663
0.557810032290914
0.569974693518494
0.544511471185078
0.610233903716546
0.560216970699313
0.576160701176446
0.535210156321887
0.60166845413859
0.553712438583814
0.604683094321684
0.562295044362473
0.634231736975985
0.534931078809507
0.639358061784671
0.552731887979069
0.636096623698142
0.596859241804091
0.648189590723564
0.575962021656729
0.667644294540717
0.591382765235489
0.669122521199311
0.636535943704985
0.651415405411528
0.639538802588039
0.691466456640937
0.63413285146868
0.714978120925973
0.652912986625378
0.741933620713616
0.67789138489286
0.709452799929343
0.619296596242336
0.713867378699542
0.666616876861046
0.785228752606822
0.686006681291908
0.721509253868831
0.676205775325949
0.788218114046956
0.715028755162991
0.732567979325771
0.715896080435313
0.775439761268033
0.650055177765588
0.784855522189164
0.688655120516113
0.791562379460974
0.6993052866548
0.835593124441719
0.733990872748991
0.793372272045451
0.743341398570427
0.863101487677546
0.746083022828823
0.75901642176767
0.757559069871324
0.898113558480618
0.777426650140207
0.816410216725894
0.756517523715834
0.845772538962649
0.785746860773926
0.840424871173079
0.761508407259415
0.848173570408253
0.805988454035052
0.916507463082889
0.824807072541904
0.935135258526989
0.821091747221755
0.956156519211964
0.818450959783668
0.870946031008598
0.795490039902049
0.935160368034945
0.787428248571286
0.951637837295235
0.839109824081163
0.861911549563751
0.841928596380548
0.976511591458072
0.819647285264713
0.982975597868676
0.887739684361181
1.03065366033092
0.867129937598861
0.905200879065271
0.926234022782634
1.00991518793543
0.899656876376283
0.983076792099266
0.866177401025214
1.01453793580505
0.909814976438
1.00961235844854
0.946364760614733
1.04309178494086
0.916696547044523
1.05746165716966
0.895013595801419
0.971588189400714
0.935484273605754
1.05926499511193
0.91367343008764
1.06023036853941
0.868952170979653
1.11529439074959
0.991464989306397
1.07544222073874
0.951971666432136
1.02224058387613
0.990297917697586
1.13563786098216
0.998259963468455
1.0816047978311
0.989557080921396
1.13914089119617
0.892775849625453
1.01529230083088
0.960817629091302
1.14341717818582
1.0352505637784
1.04587435863706
1.03064110687305
1.13759470142123
1.00977383581348
1.08901639503322
0.995210635389003
1.08970679462405
1.10563388639224
1.13164356523343
0.950829576426872
1.15358227987386
1.02691426459971
1.2552394305278
1.01654718008984
1.1955116966687
1.02170305298144
1.20225744998633
1.02665360796353
1.09774392442314
1.16278889541346
1.19442187245942
1.0240760621087
1.28508288065197
1.07216115939682
1.14810692328322
1.08545308651248
1.3231867880251
1.06925796477649
1.16296614721944
1.04372037900851
1.15919724785074
1.06873207632248
1.2193647527317
1.15351887124547
1.25596832243263
1.05320543020947
1.17643270865999
1.06784436158449
1.18081379477022
1.11121170532396
1.2438578574989
1.12101287335445
1.20366213167051
1.09944681855722
1.18656535269686
1.1721169372044
1.18983780776992
1.1221539089405
1.17418682592506
1.11992286982488
1.17916322564001
1.18405304558638
1.21409504793987
1.05129279608336
1.16900862415337
1.05747717926906
1.46110887275631
1.16718315568054
1.19540936892978
1.12866339155543
1.20964728136167
1.14873714001793
1.23876735721767
1.12901420858574
1.22093084907018
1.28783553519401
1.27993814120373
1.13672660994271
1.23802442358007
1.11291938777489
1.22297186094631
1.12272877920316
1.25587914636015
1.09948767983848
1.27595557703883
1.15556365154674
1.30226935827088
1.15439339723592
1.26063659442899
1.18553988267594
1.22077140792754
1.14544514936121
1.21940777933899
1.17048357409816
1.2510349323736
1.11199737031376
1.28391350097649
1.20595042610561
1.2164774116212
1.09750657499477
1.22449687892878
1.18516240761073
1.19974936650395
1.10746944184715
1.21173763825054
1.15589545617858
1.24493197866527
1.1070422864375
1.33561179530931
1.19404851355347
1.24235311848422
1.18948411953764
1.25704856884913
1.18887407049
1.26822299085478
1.12408875574153
1.14737219955027
1.21973736998284
1.17457675072091
1.2562509823078
1.27858223789453
1.13277067341169
1.25102936683109
1.1446419633404
1.2111361086078
1.16315613475124
1.20360683450275
1.25127217489156
1.21274567296399
1.08443363140853
1.22692859349912
1.19749988016296
1.31504313409816
1.12461374222482
1.19045747794401
1.1163267549533
1.13105380373563
1.09060058625733
1.18899272112906
1.19687236413084
1.25740830162375
1.14165315529622
1.16877986982765
1.10135956101374
1.26935356687986
1.09856459500501
1.21808492567587
1.17479538342637
1.1779305441793
1.17820686092689
1.18822864516294
1.15538821210653
1.19897388582671
1.06480260000909
1.15510679590773
1.24101720683107
1.18603835972228
1.14626729564936
1.22432093932493
1.18265350456143
1.19392174764001
1.12693249095891
1.16811457035377
1.14530780910225
1.19825886436473
1.07553629234474
1.16652235736878
1.15037903350109
1.07973955865812
1.04982826555277
1.15947328696465
1.08688320993396
1.15508857674967
1.13159147044629
1.19730587376903
1.10299108028447
1.11458977805386
1.06644988629402
1.09418359051852
1.19080952383561
1.18588743184889
1.09015944268301
1.10871088492174
1.05722927329274
1.11986263111453
1.05217744663219
1.06209440057134
1.09965678036935
1.1483296613571
1.04268158517713
1.0812608995618
1.06972328546472
1.11086836064736
1.03231787608487
1.07877427937491
1.03480193579939
1.06424670166865
1.0342252391654
1.00812158306142
1.06223199499749
1.05130299612185
1.0302426775237
1.05653371048457
1.01359357238982
1.04560405844588
0.967901640245996
1.04838171800494
1.03777286449317
1.05235580633191
1.06546902067666
1.07409575486492
1.00848827610457
1.01556203640744
1.03109469795578
1.03765617857314
0.98510101817504
1.03440114057384
1.01934664326002
1.00943159934599
0.976090696601166
1.01015364346039
1.00972992679424
0.989946707487192
0.956768389540531
0.984928640119224
0.994782281819794
0.973426103447871
0.963482879668911
0.948942771337766
0.943674708735354
0.945888618279827
0.914589577917961
0.922885273158293
0.906368702831467
0.955801321765214
0.96873000011384
0.964463152963829
0.919198825819667
0.919219874448478
0.916583718735757
0.908864240280791
0.908068698572419
0.912163874872799
0.882650841228037
0.900542168124806
0.883846889830862
0.873354108101382
0.879036509914801
0.865004929872922
0.859809555615241
0.877008974948051
0.844087782738182
0.857624247208472
0.847396693406029
0.873532242827043
0.859079110759062
0.834599355241386
0.860762712946705
0.842464052549883
0.823768963570106
0.85363440983089
0.837699658500307
0.825086584115441
0.804257303836565
0.816780809376706
0.811637588747757
0.807857585051295
0.794203963162838
0.817111696184845
0.797883599595712
0.80634219258563
0.793148545973203
0.767104959822881
0.769441167724421
0.779100597243194
0.774130295949121
0.782264823990182
0.760122136177444
0.758528004236744
0.762665496472018
0.747993108473372
0.73890382959132
0.746258422254371
0.744083480115943
0.742449440514486
0.722821473374653
0.755341477129644
0.739971080889666
0.728083363479171
0.722945693117193
0.724575169886689
0.717172619694271
0.71413632155135
0.73049741366282
0.730282630257406
0.70817061721253
0.693301903848079
0.683031850665714
0.686817356644938
0.676049249092415
0.672973492958509
0.677954141177407
0.671859480742164
0.661414995978341
0.664283003071074
0.653603431297181
0.662503107609612
0.664192380721159
0.664421712649597
0.654221446903054
0.652062594668002
0.661833736934933
0.643692622858595
0.634401339698916
0.64729182837565
0.64155831586723
0.624284914580041
0.625563806206435
0.632320207154143
0.612970107964386
0.603312074003155
0.600487701733742
0.632274252680114
0.627921440045306
0.620959195772991
0.593012456168003
0.596291104625557
0.585608229910559
0.592219582238805
0.586560179737799
0.576856503757278
0.589995746490318
0.583178151545974
0.570324478728082
0.571999304866362
0.582846086731222
0.568045026106931
0.571436312057679
0.573143360355308
0.556336789626984
0.559945226317054
0.550060991188763
0.561548765836751
0.565650264300191
0.550966656261742
0.547818834606774
0.545414720718604
0.539785205620358
0.537704548752868
0.526328867930738
0.528803498006418
0.532691443299913
0.52170555538737
0.523889618692891
0.52876011984865
0.524992795723684
0.525044997811378
0.514941364105869
0.51296039420416
0.512919431251364
0.503864568340322
0.50591962996186
0.499064868874958
0.501044841386308
0.49410994388007
0.492082173930824
0.487531738329077
0.49062191345704
0.496162020614054
0.488067348266312
0.479402245823451
0.494523502600411
0.485785407780882
0.475071325917768
0.471581686512964
0.471992433194391
0.471463407535603
0.46587438062011
0.4728396228148
0.458071707964046
0.44923444988713
0.469750810510764
0.465869591036591
0.455954214935427
0.449898956186678
0.445430355631592
0.448822681397107
0.445715077059977
0.437507289592484
0.435566860613408
0.449774798527455
0.439737036480768
0.422078674089682
0.43268686835187
0.437027762929309
0.439268121028763
0.425695047736467
0.430411601035974
0.42730151299097
0.422769975425285
0.420892180742805
0.419246277509715
0.417364264476375
0.423223776122386
0.416300188559444
0.409256962393561
0.406072285998868
0.409908379087409
0.403575275976429
0.41226842136058
0.408119668111002
0.402190917463513
0.40191561865538
0.396663718189111
0.39111558427189
0.392199176945232
0.393226347296551
0.392533427266167
0.382352493970238
0.38251103730849
0.389401058514678
0.391358642021563
0.384773109276941
0.387225268420262
0.37675354811743
0.375840701792571
0.378986610715763
0.381441899371033
0.382370557044045
0.375238036799323
0.364624823483999
0.375120153132117
0.365679776242275
0.366780259851329
0.366325694961
0.366082101372691
0.365318164222615
0.37554677404522
0.355468403133382
0.358836761625863
0.360323459725155
0.362482566134243
0.354535990070107
0.368220365891317
0.360881872465824
0.364406727961409
0.366442247720611
0.366601302152546
0.367719581738066
0.37243684628654
0.364268834375797
0.363265881989608
0.359743804111595
0.361254253933833
0.366114471313487
0.376187309735026
0.365444634300157
0.37790039162608
0.366357959588569
0.363528202799583
0.368753488297639
0.374135940913051
0.374913140118093
0.385165979555874
0.392288335400691
0.388021861452613
0.381237467076432
0.390661677349594
0.388884687382231
0.389626006200285
0.392689345000476
0.397788777894524
0.391448177933521
0.396086329822235
0.399276912587304
0.407792638192576
0.408289308943483
0.41187456025091
0.401165048527914
0.415067296748073
0.414265022599335
0.417387873630399
0.407224121508554
0.416896486053089
0.417838662762423
0.416594942953634
0.418503340449921
0.422770289492538
0.428448956226365
0.430143785162857
0.435937654984577
0.433526558591717
0.43329590850838
0.447386565247825
0.43916499360047
0.450397656085635
0.443668970194345
0.449154534169103
0.445378530109442
0.459785485624447
0.456267846303509
0.473368691781213
0.464905158572094
0.477931088354129
0.471060089085264
0.490692487412231
0.46522055772467
0.472368492434156
0.479743371693637
0.489656852680805
0.489694257812562
0.489607150218973
0.481012231771479
0.495592141409349
0.487445495262373
0.499032884328194
0.486109957385943
0.505474826825161
0.494235613957322
0.50229772291249
0.495870601183326
0.492179241611419
0.489398812913232
0.491100668902536
0.478907227973194
0.495145883377769
0.48633345500578
0.486213728692701
0.501838106854268
0.487003597294307
0.479509237270764
0.498250033309896
0.489703185395473
0.488948184885277
0.473112645047648
0.488469816647112
0.487488816625158
0.49831646945752
0.48666118510869
0.493614157381689
0.480696405742635
0.489819491266116
0.482308264460511
0.488312557153388
0.480431446092544
0.491785269440176
0.483769907977962
0.492725628724
0.481432047607221
0.493420808268369
0.490678752314816
0.488844050733046
0.473338319253353
0.496592174960159
0.495850319675343
0.502362658566388
0.491672241103478
0.4929451350735
0.484919873420114
0.497140879394775
0.484502421756456
0.492052847367685
0.494198686280548
0.484590105672006
0.485602548666051
0.492596189975937
0.475070709274681
0.492523654019112
0.484335995335589
0.489672956290824
0.478531754207996
0.482609333690046
0.477004229740629
0.484462315097978
0.468585503048498
0.476020602739169
0.477575535034809
0.475497481871624
0.447583585960817
0.459192546748468
0.449457133235074
0.454530006064651
0.450251993127135
0.454802473996378
0.448602011269567
0.449861539972333
0.435254321278362
0.444959568582771
0.429769043024807
0.442044269962403
0.429905429131238
0.437977491259883
0.423279096123512
0.432558781229462
0.412030218734634
0.423197243162267
0.410889567013908
0.410238963230774
0.399306351321108
0.414591270043867
0.391016348133696
0.409320627828992
0.385894418789981
0.389335040968527
0.383388981098367
0.391608842073334
0.383558556692141
0.380854820942967
0.384100045719889
0.385427210676762
0.373624008756783
0.375438015698869
0.367533879962024
0.371495838066816
0.367441536331216
0.363347708580377
0.359322881440187
0.357481359473947
0.346926309968311
0.361277765940718
0.346380359792946
0.356924165015073
0.343491131329288
0.360964410523515
0.339801373848959
0.348784960080737
0.343726662690255
0.343635541704883
0.330772900630202
0.346595032300814
0.333577594849943
0.337690769389716
0.334634076148418
0.345323739497368
0.334934355233145
0.331319235925696
0.329456269355071
0.336418690250657
0.332253631380925
0.33380199876224
0.320647653304352
0.33754994579406
0.319411970606052
0.323933400908939
0.314755234408405
0.328060260899852
0.315685264739446
0.315042629316991
0.307149541554983
0.314039673505804
0.311811480187319
0.323552674817602
0.308987065297712
0.313176801684155
0.310657896505484
0.311849640130849
0.301134919712129
0.312402150505432
0.303387428895463
0.308450947727928
0.304606407883483
0.308410752248312
0.294908431107329
0.309540262192183
0.306540102835762
0.307837648129444
0.293674407480005
0.299397599819457
0.297232732473836
0.29955183939399
0.299891993639323
0.299116544909055
0.291431940009724
0.295287506669542
0.282689944081257
0.290506285838731
0.286997814467545
0.290689179752042
0.290122446228444
0.288743350114765
0.286086116506443
0.286849945598779
0.282184597149145
0.284060043853349
0.282233417406109
0.286956055932281
0.281994030788909
0.288648610658159
0.279721067102606
0.282524515683863
0.278455619879967
0.293754193531825
0.275145605269196
0.280343266366378
0.279486626082661
0.285377509119794
0.268051908198249
0.284138916235749
0.277116511541071
0.274637022752547
0.272304594159928
0.27269793521434
0.275008649873366
0.286397824687367
0.271038409767266
0.269742946295428
0.270262735192449
0.27205338534402
0.271595990501044
0.276666045645663
0.264958901771234
0.272377065474382
0.266340982588444
0.271672366100514
0.265545615137279
0.276279292720478
0.263120113971419
0.27250932186271
0.269340179621286
0.273302337542022
0.263192827625915
0.269269480908058
0.265522170550672
0.271980718525438
0.266600818122969
0.269002930780408
0.259246475021031
0.269179531081159
0.265161640633979
0.266158708972496
0.267306685906024
0.273024739993788
0.255206242200473
0.265889153955295
0.259549691686643
0.262393315375525
0.25650411372455
0.259444724804147
0.258692822210511
0.26003671500811
0.251615062666353
0.257423801818475
0.252047633488802
0.264034707522447
0.25667604451854
0.256019957111225
0.254093506849107
0.260841526696133
0.253143589954289
0.2557032939687
0.249470914976313
0.259188251227301
0.252544974743908
0.25857608690434
0.246251776757367
0.255983096479534
0.245808323352324
0.252034582562619
0.250581787684662
0.253660380515559
0.2500520606238
0.252664929851345
0.244984028996363
0.256181067517639
0.242885357832139
0.254959521414152
0.235278337435932
0.244210543624662
0.24169586859397
0.250965688384524
0.241836944630986
0.246495686676349
0.239058976888317
0.250633364557561
0.239798833140704
0.243491049639211
0.234500673838327
0.250622451932821
0.235363107762456
0.242777754295971
0.235054043745638
0.246231755562623
0.231768787177746
0.24130638124216
0.230397149976958
0.236467823997339
0.235295516494208
0.238142465592571
0.226620311255916
0.23932525512265
0.230240109988607
0.236821370225886
0.227266759813953
0.233132284336598
0.227329700358633
0.237137132098723
0.224673403314394
0.231267677198851
0.223993599986584
0.234859541218279
0.229741642839167
0.225519039032528
0.223588068861244
0.227343145677046
0.22301934167286
0.22482822296535
0.220292472720396
0.225175837287244
0.216980469403304
0.222036341698568
0.215554909758102
0.223418955673289
0.214665091471125
0.220344590383913
0.210874655869203
0.225261937413934
0.213375877906521
0.214086697622696
0.209444463960243
0.213055953357214
0.211205829100845
0.214880565106792
0.207505687013017
0.211542604572638
0.20594459440797
0.211459550867031
0.204513742514597
0.210874430070504
0.204066467636189
0.210858534793638
0.204979603953422
0.209631978031143
0.195076874400743
0.207253704977804
0.198183689880528
0.20532680005743
0.199948903113558
0.203432561323803
0.196264184778545
0.20214754778307
0.193878055466231
0.201798404862104
0.195924558275526
0.196509176532355
0.196112409344747
0.198441046674214
0.192769765637261
0.191925242983749
0.18873283790724
0.196465444369629
0.190835913392243
0.198232791233782
0.193566920882445
0.192682626272843
0.185751771653315
0.190518541727918
0.186669252545529
0.189588693904285
0.184039957997702
0.190858870698617
0.182967819915375
0.187433560940603
0.186403306618736
0.188015415188792
0.181260079396342
0.184235816515002
0.177908322368572
0.184695142516006
0.178940838041248
0.184837239866247
0.175808618631628
0.183977527397302
0.179150942519538
0.179838844991167
0.179571116173661
0.184587786567785
0.176645779987012
0.180982283562477
0.174740909641736
0.181094103292766
0.17641313547591
0.183271002747797
0.170281305051186
0.178859260710182
0.17519964404615
0.179597428957383
0.172344612676791
0.178474154795683
0.170768237297723
0.177405701570066
0.16919455993507
0.168694854419465
0.170053841484499
0.174169592402064
0.164152388602517
0.173066873466402
0.168191852295739
0.172412979873756
0.169143687628522
0.172105904803498
0.167664967377184
0.173376500548943
0.165322020297241
0.17315470466874
0.1639931681687
0.173197547960298
0.165696204405678
0.171185970822614
0.164852899860689
0.17301279704633
0.164585843778686
0.168273070190218
0.163380161808921
0.170391261430782
0.167066773039865
0.164885860398849
0.159236367922016
0.165717623934327
0.160731600707543
0.166629148281022
0.162120921521697
0.167286232926779
0.164598120084532
0.167131788661198
0.15784830920475
0.163517003017621
0.156641846290436
0.16444620512358
0.152595966008205
0.165450618417747
0.158279803717039
0.161040518525648
0.154066525548572
0.163210196215267
0.159436262450219
0.162559508388564
0.156044931476524
0.16173214406474
0.153603853220937
0.157723344970546
0.15357145021444
0.160158899091436
0.154515564199203
0.156807883168628
0.155211764471153
0.156771142064623
0.156511971471674
0.156634909767732
0.150277139993569
0.15670396719481
0.152179632785601
0.154366752228299
0.153850538602829
0.157972490817588
0.154747546887839
0.156037367331663
0.146801349131722
0.15781706585581
0.151476502642201
0.151269778175531
0.150023579935916
0.154022495226356
0.151090807423745
0.153822626554373
0.145813281260892
0.150530483607959
0.145582437106554
0.15047470274806
0.145204992734831
0.153122166062666
0.149131511716009
0.154198840072645
0.147426292096206
0.148307238340187
0.14510901562519
0.148012435292469
0.146389826560284
0.1505601450881
0.143688655033323
0.14809786264722
0.140923439814269
0.146905303131059
0.137761451042304
0.147610718881002
0.140952780226703
0.148030834733553
0.138391110456358
0.144781034179572
0.13832564678847
0.143950278298067
0.137351042497556
0.142489816340254
0.136880376640149
0.145990111505394
0.140929429821447
0.140698167724268
0.139649505214941
0.137938640875923
0.1337462109085
0.137358126676006
0.134065089139016
0.13517551065003
0.129114427345025
0.138044809722926
0.13115278191404
0.136812529490094
0.131550566603509
0.137302952734908
0.127849151832246
0.13314983283714
0.130048271918804
0.129575612626556
0.131037444456143
0.135812213230141
0.128488858581201
0.129912768894904
0.128295955991246
0.129356014431538
0.124356274753638
0.131428151939959
0.12729742118474
0.131284986432314
0.124310607864516
0.127794507683758
0.122903081677214
0.127807124994205
0.124433370917194
0.127289582865654
0.120277215679337
0.130290157796222
0.121142745541369
0.122482826859466
0.120895973956225
0.127554460530241
0.119337760217251
0.118794926368366
0.120084562754231
0.122286375229262
0.117988033269237
0.12298473851059
0.115852052867801
0.119235189512238
0.115590442910845
0.120760291454292
0.115377437567995
0.11911721572673
0.113112087037846
0.11667908158027
0.113679468469124
0.119120098345378
0.11051748019103
0.115791819696175
0.11052278032222
0.112337177060823
0.110519406347839
0.117411576167494
0.106727271804704
0.114870432426872
0.113325849408104
0.109926205137917
0.10681664337648
0.114220837218998
0.107180583181715
0.115405017446081
0.108541513409794
0.110483384165641
0.106693095277609
0.108835381377288
0.105274193571191
0.108901904615906
0.105862998104939
0.108329589583957
0.104437439509169
0.107320909392693
0.103142975506914
0.106499869277866
0.102230378755564
0.106849812215885
0.101975813064445
0.105417685756893
0.101138392820822
0.106911449093784
0.0994185452817516
0.105841397632162
0.100775807759068
0.104993747027077
0.100348207263212
0.10415032137411
0.0963727832226004
0.100750668364552
0.0996214581396857
0.10528971232481
0.0976439402499951
0.103829529284316
0.0959164435244781
0.103531587054079
0.098363766357073
0.103069574785735
0.0944868841060854
0.101916929607004
0.099114124830111
0.102332727692973
0.0987053482744345
0.100865165885537
0.096576198805182
0.102050335374673
0.0944694761531077
0.100867835502251
0.0941220090012823
0.0969411284903684
0.088791366313559
0.0951706990858964
0.0860167694436277
0.0975860850215185
0.0922351709001443
0.10298338859519
0.0949049167289857
0.0971851042003709
0.0842860706768372
0.0906333068520065
0.0873915976429414
0.0959205079070252
0.0878338872936743
0.0985785246997512
0.0898956330071447
0.103645695032352
0.0770210036559915
0.0922273142230877
0.0938656071380305
0.0972077182064981
0.0856616114843151
0.0864260921943311
0.0871977689410277
0.0988365452800455
0.0838031179874497
0.0952953904157512
0.0925147819571211
0.0931302223480592
0.0877091005294564
0.101883146464251
0.0852522024816215
0.0959453151583081
0.0881042800474472
0.0918520732928871
0.0879289365462774
0.0882275051628835
0.0809973199280693
0.0887601326409051
0.0820335432981902
0.0836695525332949
0.0875965428727066
0.0877534674956757
0.0933714478890291
0.0847884932847893
0.0954157808617054
0.0770993426162807
0.0920832541867728
0.0729042875996
0.104411461051208
0.0762936861001709
0.100217185093982
0.0578422919514129
0.10715774265706
0.0651670680241092
0.112043038552482
0.0511138232399587
0.114423195263075
0.0596124033779876
0.113625197213744
0.0543034737286289
0.105868936304506
0.06658883050537
0.0977633952427406
0.0780014445232375
0.088225633930978
0.0825994178632402
0.0817819306219467
0.0916045047731217
0.0773632484526044
0.0888552285920045
0.0808043368847428
0.0901689752424218
0.0811218224230912
0.0858242844085285
0.0837863883517057
0.0843227476214978
0.0847732682502813
0.0802953352192597
0.083443715741216
0.0778738511070425
0.0831411864283469
0.0823340502153601
0.0810688276094845
0.0861063951720041
0.0802097209702993
0.0810626272946804
0.0815654897839938
0.0804879115044778
0.0816762696780777
0.0798919581981722
0.0799259232535614
0.0797729421304488
0.0794409902518862
0.0831864773093258
0.0815059064017247
0.081348448035
0.0807855143831625
0.0845876411837385
0.0831538127891935
0.0778114606520729
0.0812933937031567
0.0811112714928341
0.0808525034446391
0.078574706561703
0.0788061963560595
0.0810295857666666
0.0797066852237738
0.0799558536113862
0.0822763744677401
0.0807083595642273
0.0791723252427212
0.0814580764178972
0.080252961260436
0.0811823050740807
0.082767879201388
0.0812659639668137
0.0771341805413091
0.0801089398652796
0.0779897386930664
0.0795948526987109
0.079317677025768
0.0796178366577649
0.0809385072445268
0.0823594597776349
0.0806213987051167
0.0815463213719335
0.0796843780052446
0.0845957604438328
0.0807510245824174
0.0809474745438225
0.0771715174529845
0.0825271847781077
0.0783825842799666
0.0796766277225701
0.0811410856372913
0.082296111826677
0.0766024813616552
0.0803902237836958
0.0804582939117169
0.0822985666077296
0.0787264094631221
0.0819387230065006
0.0808704631531535
0.0811938601381034
0.0805479903064557
0.0813567818721446
0.0799655715412908
0.0821750091606631
0.0781441407998119
0.0818639732151554
0.0793937225985131
0.080832769178515
0.0802382674015882
0.0816070417071341
0.0800734539544546
0.0823072950237703
0.0797306188727971
0.0789889378604767
0.078255729979328
0.0830593336517164
0.0783832290055104
0.0816126770691895
0.0816678713731474
0.0811278868059367
0.0814956922222169
0.080606821785975
0.0804764531214279
0.0811537825924293
0.0777740851645706
0.0802477549678906
0.0780852511371645
0.0838071606582512
0.0802876081730409
0.0805524434639396
0.0801908258996303
0.0818945919548241
0.0796779597890296
0.080005625510931
0.0799008761791412
0.0835036037095081
0.0819746368517284
0.0843731746933629
0.0810605990209259
0.083132597194356
0.0790350336356275
0.0815796954892047
0.0812937281055893
0.0844509286374449
0.0845146531487231
0.083498301757378
0.0825108435651949
0.0834649369597716
0.081455914352377
0.0825288506499024
0.0836705357515457
0.0842995551677324
0.0836659268065258
0.0851428662251658
0.0817414934891044
0.0838946904955141
0.0815590992819123
0.0844252674170048
0.081789016244649
0.0827274176026993
0.0849895973095873
0.0843781055808376
0.0807107713969193
0.0844813610465109
0.0808564745230713
0.0825269392055133
0.0858622839176616
0.0839286169547672
0.0802199625216957
0.084488611538722
0.082200882169991
0.0854676114460706
0.0860183770267517
0.0837668279367621
0.0832562412578919
0.084313540159223
0.0840260167714148
0.0874999244705363
0.0828020798488419
0.0863335419168862
0.0837333480558423
0.0851051233059679
0.08510383405085
0.0869733786155679
0.0861212457739313
0.0867811989679318
0.086022294899107
0.0870255956519226
0.084480716030925
0.0879791014560197
0.0862164943267346
0.0841164767567303
0.084073531103386
0.0870545780107458
0.0881087049875533
0.0881095310557454
0.0836444119878209
0.0868650323985279
0.0879495119570154
0.0884827517912523
0.0848344058289572
0.0857708694485372
0.0850453099385335
0.0881008104854304
0.0845061903444684
0.0830519459015967
0.0835760987866039
0.0830026122069113
0.0852253899527325
0.0843429286500528
0.0808286190015062
0.0828180751396323
0.0804211469096752
0.080522962849223
0.0832385660947767
0.0809349688948838
0.0832974996068153
0.0825629850156959
0.0800347480445648
0.0836548934287989
0.0837138596990254
0.0825409253938479
0.0833737621162189
0.0815202769737525
0.0809948663650274
0.0809315681153391
0.0784018385981574
0.0822697378538857
0.0784835273705117
0.0817020702725757
0.0809216776443452
0.0806114078759133
0.0812501198254614
0.0824968667637162
0.0834587410910019
0.0819484718743468
0.0832888317107313
0.0827873382891
0.083022758967169
0.0797896140375203
0.0800395291081599
0.0796542489859053
0.0780144605209521
0.0806183642076831
0.0762372312863051
0.0789916622957586
0.0770071357140861
0.0776281183803041
0.0765424700989767
0.0782217123821922
0.0795508728970337
0.0793873257291609
0.0792979170762029
0.0779825477407258
0.0793042052827848
0.0767564809649124
0.0777064722710965
0.0779618116792137
0.0779568831169423
0.0799661012800208
0.0800785977189365
0.0775714888716603
0.0761583228270539
0.0767092088744164
0.0757462735500177
0.0778523660496901
0.0763191897314715
0.0775328960806925
0.0733874827807736
0.0787518318442574
0.0767321104075467
0.0768815567306197
0.0757987991633054
0.0773389990405816
0.0745511889309997
0.0747158755681826
0.0758664846713133
0.0776447666411879
0.0751918562036661
0.07569329861207
0.0757040249368987
0.0773437278350933
0.0732368141849424
0.0753945754579604
0.0757386081806654
0.0770153098247047
0.0751048550326849
0.0790097712308604
0.0754448280278124
0.0755923920503391
0.0773888416155593
0.0738868658494484
0.0744989259343564
0.0753959870413679
0.0762187430241565
0.0757581192966385
0.073080421292911
0.0746577513673883
0.074066681096901
0.0737657971654673
0.0753096487158525
0.0725356416772666
0.0745642111793233
0.0741631215171723
0.0712249537888899
0.0734991543277866
0.0751570346294155
0.0737837652942796
0.0715719435478135
0.0723505287098472
0.0724249584693387
0.0753730183314835
0.0715342124239064
0.0718478568952069
0.0685747441028509
0.071667666906601
0.0729278002776072
0.0732814841746489
0.0728557986652096
0.0707283310815132
0.0712781782572709
0.0704956930543465
0.06836333246547
0.0666217828929684
0.0669866442425507
0.0703048139975982
0.0694033355175102
0.06887802926429
0.0657923581130956
0.0690811313773826
0.0647574752686557
0.0668401378615565
0.0643802004572665
0.0664231004144824
0.0664818522686368
0.073016083471469
0.0651805654552871
0.0709515141931205
0.069084620820658
0.0682877165167456
0.0653964914524735
0.0667261124656706
0.0660554447938818
0.0642311547435665
0.064643314763118
0.0662650351596436
0.0662045186999845
0.0637248341006015
0.060286380937261
0.06350091516107
0.0639216944091785
0.0626460881050686
0.0618176874354918
0.0615148732390822
0.0621169188804501
0.0622587218788127
0.0619905825084286
0.0641760291995647
0.0658923426381519
0.0638341028941167
0.0606761743762371
0.0602660527107575
0.059591804125255
0.0606350145865905
0.0651429508245977
0.0547794621452263
0.0629936482071121
0.058181389148476
0.0634876646604469
0.0589707740899908
0.0610845135572221
0.0594785374150852
0.0606260502260813
0.05886825764061
0.060239073783696
0.0611170026429377
0.057342979200956
0.0601934691083409
0.0611991429592938
0.0562215694987493
0.0582032643360555
0.0603897575046989
0.0558282106971727
0.0591627506010424
0.0587130775498195
0.0577489000354424
0.0574212270659994
0.0563344743553883
0.0579620300582463
0.055666584113879
0.0605997443877653
0.0614462937504681
0.0583798646620732
0.0564997648492504
0.0587128486238536
0.0591346919688953
0.0574234389572963
0.0587425388808471
0.0564932737823349
0.0555888466635672
0.0577952936186448
0.0571282973099556
0.0543040762379027
0.0558593788765322
0.0578108746820944
0.0557018906417706
0.0559399789456063
0.0568056764650633
0.0563822542321586
0.0568165261144896
0.056009348679516
0.0563957291203612
0.0521685345764557
0.0558302996170356
0.0546404036417702
0.0568641481297557
0.0485223641651066
0.0621645529603675
0.0537597920446702
0.0583421319618825
0.0516624970538042
0.0552500472317869
0.0512584049655007
0.0539722275818557
0.0527485714825791
0.0547093298066959
0.0508125251647225
0.0546288236959192
0.0513455641607943
0.0523059788000393
0.0522757269046236
0.0536906440010315
0.0513053605781188
0.0534457368147272
0.0516099332175979
0.0537606988444282
0.0543578906955038
0.0537846484566799
0.0613342489291381
0.0544894052136496
0.0498273442805858
0.0593005013271832
0.0489929859427775
0.0616999510445694
0.0573075946714609
0.0460194428296771
0.0601521590955126
0.0499161237842063
0.0584227013462254
0.0499954812771592
0.0591563207523926
0.0490069315348435
0.0605802318028771
0.0483339147480924
0.0566124365087349
0.0544160828505013
0.0526374804250255
0.0530281846813786
0.0531969080432564
0.0515895388956659
0.0512306622555915
0.0506345790477632
0.0526275055361495
0.0515334433152639
0.0528564745519625
0.0508896622284878
0.0516349063778316
0.0481384556670369
0.0571539090312684
0.0487914143352905
0.0561962608563917
0.0519811175631343
0.056067013154093
0.047222212634898
0.0634620129470273
0.0500286819070585
0.0554803678980106
0.0510068380742333
0.0500042073592572
0.0517211996132567
0.0512958925022383
0.0504213567045819
0.0513514323272397
0.0509409650316545
0.053170336787277
0.0540630262058433
0.051052739389523
0.0509025575927441
0.0521093488535398
0.0537052842644867
0.0495116312139588
0.0503895253427961
0.0482516057914583
0.0529978041452498
0.0534887509333546
0.0512471748169741
0.0623974865389349
0.0524910593869951
0.0596094100381759
0.0473714164739867
0.0561905842320204
0.0493046720916197
0.0549373710727502
0.047861045106212
0.0544491597251083
0.0485910050544573
0.0552703718292276
0.050438596662649
0.0554411196873335
0.0531376820601567
0.05382461057571
0.0492984180528248
0.0565718421419864
0.0465652165632121
0.0540226262948747
0.0490175494473896
0.0545610188368137
0.0514565065954112
0.0530466092603721
0.057022529194677
0.0538328146716898
0.0554756485715966
0.0512463401782344
0.0852496829092698
0.0389036188804466
0.0583447678456538
0.0505497951971717
0.0550495370903779
0.0507210200796403
0.0551852021292075
0.0540399366306947
0.0511348210329253
0.0522375929087443
0.0599565587295201
0.0507175369698607
0.0557966432804427
0.0519159669201262
0.0530296990526915
0.0641022899898792
0.059567495409182
0.0503696308759891
0.0607394331382335
0.0480914093282308
0.0706549416049619
0.0509782759963517
0.0532177271510445
0.0651720992133806
0.0519026112241025
0.057541789038139
0.0545283199706101
0.058145715678625
0.0510899612536537
0.0592037116123832
0.0533412633017384
0.0570040085244861
0.0527607330085104
0.0565782800178769
0.0580007338135906
0.0558059625934267
0.0628147601059746
0.0556392148980758
0.0559123734924607
0.0606416680817168
0.0528243680887438
0.0572114121758806
0.0597790178006845
0.0570692641429828
0.0535265301657877
0.0644769721841517
0.0594227163552309
0.0605479733930792
0.0654809629410075
0.0561728443901519
0.0564170713227218
0.0621296621306198
0.0586632504119206
0.0694219994308607
0.0479406990547057
0.0884559336083879
0.054308717879556
0.0709124310569422
0.0581392524107595
0.0566882060569511
0.0648752372855915
0.0586282823707432
0.0652126860438293
0.0586526196195656
0.0738861248882144
0.0516214940651594
0.0722564010442266
0.0499445098731453
0.0854836437334334
0.0578937224824656
0.0683213200934593
0.0614125579751562
0.0660809593832752
0.0608627387832549
0.0743048600642435
0.0585960400201074
0.0748864431225102
0.0812820433404843
0.0637783083391978
0.0748824103796662
0.0564171574219509
0.0744271889449479
0.0868976804459334
0.0561194544564147
0.0779181344465824
0.0590302592712339
0.0755320827676449
0.0595066758419314
0.0795197702101667
0.0745842433563844
0.0633992912761779
0.0733838256915773
0.0709129636797223
0.0677039956459399
0.0811747077440981
0.0660893815262642
0.0766530265067097
0.0681037545255507
0.0799639651806752
0.0711815264839333
0.120546405451725
0.053472914205773
0.105399651167577
0.0722432969085239
0.0949272996502543
0.07635240453857
0.084929486186594
0.0809361879863952
0.093390363695856
0.0812264214812622
0.0820670105917631
0.0780590925948188
0.112781711533781
0.0839069014249723
0.0831750188635275
0.0958858440371821
0.0861413313627721
0.101513810487846
0.117037951975941
0.106369610667016
0.0982300035579737
0.0950932825403655
0.0982363169966521
0.108249038562072
0.0929263313106481
0.103209849492462
0.098218308684706
0.103833860502057
0.101339984274968
0.106113043167921
0.116289310599063
0.0970688695036689
0.109430886829373
0.10582383379526
0.115659166242795
0.119228603499498
0.14269921999975
0.114421257285698
0.114159126553968
0.153446613073696
0.112419825451859
0.124966840508708
0.112794492062324
0.124215475426854
0.12880512335172
0.121980154550587
0.126830456768613
0.121431180443645
0.149255219320034
0.123414216532188
0.140033516826675
0.137278979250244
0.133488707129665
0.151835374854462
0.139470078753591
0.251613391888502
0.115430601003297
0.176099886916593
0.143831999476559
0.202907327299037
0.169532314532187
0.164542697689547
0.169708902368734
0.17821176985192
0.17335749129752
0.192747484123734
0.192243819322122
0.199631920276082
0.205711789684917
0.205840354268803
0.204983206210342
0.262320975977052
0.229941761944291
0.236987899918733
0.229682126889069
0.238356529523677
0.252586073780869
0.260719079305916
0.251045080047072
0.271053505553049
0.260661748447112
0.293009253983173
0.299484076532135
0.281770567690917
0.301159886881189
0.293605019727248
0.329161108558899
0.29182757510251
0.380900788753412
0.320854205789068
0.340727435097336
0.331102706241122
0.348295684239184
0.352623313690997
0.355652935395252
0.395674855771766
0.364111350862524
0.379125682151078
0.380075149114873
0.385745080161007
0.39451784367299
0.400652942109189
0.399465787582685
0.402686830807948
0.444186939350815
0.420959563233714
0.546789714908295
0.409150455757972
0.414685444914357
0.421087685135025
0.407374654271637
0.453509754748249
0.422498612122451
0.461259816102531
0.430168505929608
0.420742007652866
0.424360133621655
0.423195638034124
0.435917769034109
0.425164354237006
0.441379762050405
0.4243841774562
0.467596312374199
0.431499274552667
0.483449052970802
0.468861439421134
0.427145871901085
0.439050555431379
0.424982826889795
0.431634590408275
0.432637961906946
0.434132288535811
0.434381491642888
0.443053157348074
0.418337804802801
0.439957957633662
0.407545531064873
0.441747334721634
0.423533164182112
0.411748929736248
0.421996542563561
0.392299003912337
0.402557653829168
0.395574987589046
0.411586950207381
0.438164617692672
0.36788233344381
0.39335455003306
0.385286659860373
0.395760388191772
0.374941875502615
0.38509795600233
0.372492552124457
0.381431172875075
0.363551871200808
0.380155453005793
0.356073199471404
0.371637736460304
0.363807818287336
0.373851036516107
0.359296337265876
0.370813877899785
0.361959470250533
0.36611927217276
0.362521406456211
0.363356556244496
0.371158839059168
0.367666190221505
0.361460378307081
0.369211945409418
0.353116138157637
0.372050119424253
0.359090482550231
0.3661065142604
0.356452163405881
0.356439930499547
0.360109482736705
0.366282982265786
0.358696760795092
0.364968557489442
0.362427243822618
0.357782675238538
0.357379406761515
0.357987788204434
0.353690146950223
0.350612398909793
0.351405817262557
0.348948169272976
0.387905846752244
0.345411980056211
0.338826811681177
0.356207813405711
0.339374701740602
0.352563701958002
0.331718709699502
0.377206194147698
0.337252766610915
0.332243652644785
0.329244832713853
0.333767606575132
0.333739824431506
0.334118799890711
0.313642460727463
0.333435415407763
0.307349121713493
0.374088241316084
0.346122417139624
0.324318725163426
0.350979216214146
0.314030549473463
0.313569904068774
0.316668020321104
0.337529497742305
0.294553548334087
0.317643226923745
0.301549546543552
0.327290816235723
0.306056399170943
0.302516827107443
0.300842041343948
0.294518977127628
0.304956490011635
0.306505854074136
0.298719322604749
0.30260408022337
0.316298813061709
0.298674482694464
0.344964623607171
0.31238305917775
0.288295763256977
0.273531959912079
0.286163177345489
0.277353574561729
0.279892331430141
0.304554791242634
0.266563853277319
0.280074833997148
0.265708614904613
0.259862746846293
0.269855782595588
0.265465998228219
0.274306024040415
0.248606723629691
0.292992850691882
0.245827830245443
0.272476431437714
0.256197527872336
0.281438221409773
0.256703514091233
0.246623130013142
0.247879795507326
0.259321469740076
0.264954365495319
0.237328394668457
0.247892954671938
0.240087667431057
0.236350252192992
0.253440412983137
0.231642241856459
0.246703700018699
0.237223201483768
0.239194751723822
0.274871105655946
0.246580434596076
0.243795354297418
0.221657496604891
0.214919180048427
0.230432773495761
0.216306637219975
0.229631151142405
0.218450654168639
0.22591877206216
0.234107216155961
0.217419349072729
0.25194023026685
0.219919171008722
0.226414697033434
0.223457282756913
0.226988126947791
0.2410639208427
0.251451660892545
0.243835324029344
0.246902282991958
0.233801444734787
0.253210413790258
0.236275704275708
0.253500322996753
0.240004392906296
0.258445676529924
0.254043108335241
0.267445882695319
0.2669443688871
0.27192378335919
0.273159082943421
0.288571539322397
0.28240865116669
0.313827305904135
0.280725395421483
0.327342665499021
0.304117770010171
0.323500195774245
0.316860750680092
0.326280117993461
0.339524138208783
0.334824265558162
0.338108821279919
0.347031147840213
0.347477992232611
0.376163851567097
0.35117526574985
0.375402116300449
0.365816530603442
0.379398481144204
0.370454146139051
0.391363888548902
0.396742640681857
0.403804794045633
0.419753383818127
0.381123438117293
0.400124479367216
0.385723203681147
0.398819296816831
0.400372965077079
0.400412084691139
0.407677358290905
0.400808825280951
0.425881998573418
0.407304668207773
0.404492430564271
0.415550083708911
0.416069582493023
0.414430971962336
0.420472347631003
0.42815520992736
0.428560347724518
0.430737326273198
0.440868306620108
0.438678452250324
0.487466503463968
0.449643216701206
0.441937303773024
0.455938722535364
0.445581998590292
0.465199386869225
0.454816900217923
0.467923323765318
0.47228962471561
0.469462429019827
0.476584302989134
0.474723260325711
0.48550554840517
0.483600491741413
0.504023334871864
0.486170331599332
0.494881018326097
0.501313192599519
0.486263216120086
0.544264507652676
0.491430921736861
0.520210020005026
0.501783393653068
0.515380863851928
0.504217427437579
0.51799852019385
0.513957008122557
0.523278560335603
0.518099221232511
0.519592986588323
0.51784518706479
0.520749173565007
0.520589179391276
0.520153647439769
0.531983383502207
0.513020941687565
0.508329948269707
0.520242510220195
0.517086797770074
0.521344415857347
0.530616559270816
0.537816639812758
0.511339631344151
0.518891966040159
0.51744396472452
0.542590287114795
0.523487561404912
0.516415888971516
0.518154623382408
0.526989329188334
0.512951767049624
0.52147142914325
0.515030523913945
0.547485993499317
0.527495384737947
0.534641803170966
0.530337999445631
0.532020000922947
0.528659617188729
0.539544539908946
0.536038902277185
0.5471317418637
0.542465939790325
0.547040316025126
0.548552403531809
0.554727753572224
0.554368482774032
0.546280772940789
0.551530031250544
0.542261879676743
0.541374936503466
0.552051179882205
0.537244538317108
0.547703806649458
0.53445061086581
0.535503290522716
0.522512903731684
0.531954877397841
0.521876250771177
0.53815681111685
0.51663005855299
0.504164401982112
0.509384370221602
0.499591406917386
0.501341653197926
0.492117676159943
0.49188233074697
0.486563559998335
0.488060863543639
0.481203303782999
0.481217287063585
0.481257190929659
0.482615750596769
0.479603618452643
0.474786374283779
0.47571445561953
0.475167305029448
0.474101391959629
0.475530857444747
0.475886404232864
0.469541713504158
0.472775775838783
0.471722512793073
0.472386849886158
0.482630085648174
0.473576120814556
0.47931571469959
0.468944210764082
0.477056053468788
0.468768817004814
0.474200019774711
0.470503866602134
0.470037030131732
0.470519598011508
0.472257767530215
0.469809042160615
0.467692230217204
0.467021038305994
0.463944864525535
0.469093016965166
0.468932373254919
0.46846771147484
0.468773521912971
0.463932230836087
0.46314031525138
0.470173687692855
0.470350775084802
0.470981576512838
0.466843925377854
0.474542609251939
0.468392922431612
0.471223651199397
0.470981666654194
0.468443914668721
0.466015521659584
0.468980710629479
0.469670756784289
0.463816689511487
0.464281072128012
0.467803637199108
0.468289658064375
0.468990518504339
0.460329847510669
0.464465856989499
0.462857413373694
0.458688693499026
0.453010381917956
0.454676652010177
0.445986663707621
0.439875127233767
0.441646020453436
0.442028288134744
0.433015761235858
0.426408535626964
0.427584213062119
0.425063289199444
0.423150936048333
0.418071164192087
0.417837408350353
0.414976728439093
0.412349899194058
0.412713022060172
0.405134477138866
0.411417962595527
0.407898617728268
0.405384225583968
0.405055358134734
0.403976617397503
0.403786139889653
0.408256445580661
0.407489778785554
0.402920007378331
0.404288704947054
0.408494973353981
0.403828827215396
0.40922734687256
0.412239477136357
0.411889806094089
0.410689499005005
0.413471130657038
0.419854826109298
0.417374053812651
0.418646572775626
0.424436622407136
0.417758932336978
0.42226532380331
0.432119304575456
0.427162125247002
0.427874412126849
0.428677689494924
0.433631936521821
0.428657015947105
0.430215127895465
0.431384367871177
0.430127866655228
0.428899181489866
0.429933065967423
0.430271571705383
0.427302978695095
0.427707887068055
0.422958685436729
0.42487168219335
0.422274736782964
0.419135033238286
0.42514318890733
0.422869491368165
0.419507322893424
0.417071843604676
0.415575075937306
0.415516178654181
0.415853745761848
0.415986032639507
0.41097197480027
0.40684547563402
0.4095475640776
0.413759796567884
0.404891140672609
0.406036859712237
0.404402723891746
0.40065277327746
0.403310675745547
0.403844196487451
0.39992829247761
0.398898764736762
0.398069974818359
0.397657745368011
0.398142848002115
0.39704269402818
0.395593997620589
0.395102369304423
0.389930841182317
0.389437831819919
0.388673683015737
0.384624320428354
0.383977472436991
0.383381919694051
0.380520108047965
0.376785678225878
0.372665759956963
0.370112223421105
0.370057048841235
0.3651907169626
0.365154446214324
0.361912235678315
0.352667978414635
0.355329574254961
0.350892683517603
0.351406789658911
0.349754172991506
0.351339235180719
0.348863445117617
0.34605094133206
0.344820143403087
0.345816039709684
0.341061507560073
0.342059329001348
0.339347812664507
0.338953460632749
0.336151584708819
0.333652869849404
0.330357180965968
0.324639470555503
0.325745139540708
0.318934013580889
0.314128482234194
0.312534610435053
0.309202254952709
0.303444877247007
0.302000131576999
0.303271711757537
0.304301692624452
0.303725000517542
0.306454577311352
0.311940696487678
0.318467442885649
0.326035536405374
0.334764092363455
0.344123432154591
0.351589866440227
0.366813892770676
0.379439954074882
0.392455637911079
0.408500409276045
0.422682110841153
0.437339966827229
0.450956794430703
0.464357724516578
0.481138455447198
0.495686369978188
0.509365691027098
0.518317761163164
0.534429595987953
0.545074943764069
0.562326196288696
0.569504135623801
0.583227653363976
0.592169770679292
0.598224691930323
0.610568274526029
0.620799996640656
0.620106181294754
0.630984754892865
0.638917342792156
0.651626702943866
0.653995779376159
0.655092060529454
0.654377446370521
0.665814233445066
0.669902582098852
0.671003981119773
0.667124256176087
0.673110766211153
0.672160059452033
0.673576634683115
0.671230805924584
0.674250731220567
0.679701506789502
0.676991382258437
0.678959362048565
0.682241583289741
0.689371873868038
0.689121881791648
0.69123492550848
0.702796692796159
0.705196300704795
0.714500319278818
0.722718618736791
0.726696089822115
0.728427464504668
0.735984495485337
0.740238250833711
0.742781544544488
0.757519483562242
0.767759688163292
0.76975623899715
0.783125642745901
0.797889850562544
0.809066793222621
0.814494230084675
0.834483625574189
0.841330892537275
0.847402112514172
0.85159975855764
0.864093594905819
0.854301472875148
0.863706886947878
0.863308331170502
0.866040110767777
0.870857671223155
0.867760619628696
0.858522096124196
0.868956314256748
0.850998227745904
0.855411581206341
0.847534011594568
0.849419757161207
0.852346337992347
0.856857613009276
0.872637409301204
0.875884973914168
0.888713708245739
0.915288202940188
0.913084351861676
0.932021863403963
0.94119445154973
0.956888941027279
0.97244853011636
0.976857195947653
0.991074633975324
1.01482188274832
1.03858583834543
1.05464364038047
1.05663246567036
1.05221709456452
1.07502488105236
1.10383261803895
1.10767068094654
1.11861918616158
1.14323643678133
1.16467999612537
1.19496812752219
1.22690833298628
1.19769268510281
1.25437990301323
1.27215131461652
1.29517233761515
1.31266018062909
1.37060506003786
1.35655225299675
1.35903657913568
1.3315555063519
1.39358277342155
1.39445036579062
1.43407636523867
1.41579771823361
1.39679908247529
1.44143714023513
1.48843435240638
1.45266434465078
1.42972389415583
1.45666673898339
1.47181956357501
1.4683392406091
1.46817909394156
1.49417075925274
1.47569385514157
1.45739874538693
1.4647413034652
1.43025807127838
1.50705652809171
1.46056480306549
1.46681310699371
1.44923223269588
1.48575653530722
1.49504699632236
1.49393715966529
1.48140923166045
1.54230681313368
1.55629722963965
1.56122998758544
1.63728216158688
1.64886466405761
1.60237898932746
1.56236981444495
1.59063697525919
1.60224200835622
1.62733294919292
1.62398725938029
1.61882876991131
1.67028179980979
1.69203970409746
1.67930674975152
1.8013538008739
1.79499875841488
1.69253977487823
1.7548413449135
1.80958951044057
1.76659442956197
1.70143204109279
1.84617154145224
1.73522495775001
1.86391791634075
1.73544699841605
1.81750129179286
1.77500923756028
1.84425174751605
1.66859511979835
1.8784972732791
1.74751224986154
1.68348594306489
1.71433499706793
1.79437054997766
1.71172958417962
1.68417019800103
1.68499118529825
1.71019483775249
1.61218891614052
1.67414776587321
1.6140433491405
1.59429533748427
1.48779751930638
1.48107471870306
1.41232797291353
1.38726123216047
1.3627044250758
1.34582787800384
1.29951000494264
1.28611465463017
1.24228495882075
1.27865357294988
1.27250522393914
1.25042511626119
1.20248290033217
1.24640694906303
1.15487851729571
1.17479343181573
1.17372631902178
1.17460563452476
1.18829155295464
1.15395782070095
1.14306884469017
1.12874215788425
1.10088693184783
1.10545103160996
1.0788037217593
1.05607913774829
1.05178978963757
1.01527865963401
1.00381773145512
0.969925502843891
0.93218702608212
0.920945234499016
0.874076025090809
0.842689811500168
0.797591675958945
0.766495568402903
0.725212878420588
0.709359375202951
0.668313004553134
0.642562466568989
0.627777163057203
0.59126765312674
0.568640108366894
0.551921394169929
0.535811341573547
0.513612043735523
0.50158357065592
0.481001999694495
0.467577731075997
0.464724936476074
0.455676124455594
0.450957326049727
0.442119080636004
0.439094071484622
0.426165281035878
0.431141230382726
0.426193701456918
0.421862589352578
0.421732482601224
0.425103591189271
0.416765595462054
0.422804913730067
0.41778527443657
0.43159519315609
0.421784508219613
0.422964469763277
0.42926583877958
0.426023228012054
0.421784252979265
0.422006323034593
0.415457161737083
0.417931923114618
0.414102368525814
0.412340189481764
0.39944629208411
0.401478428096126
0.395316748052853
0.390481965996814
0.386451501201975
0.394869381053944
0.380567880532025
0.385164614437379
0.382606238559836
0.388139284218183
0.388550795560256
0.39030641275748
0.387591079284879
0.392780037235971
0.393746335604168
0.394978114607562
0.402530778472289
0.40486464928651
0.402616692638127
0.40272289351166
0.40968015083812
0.411227893839963
0.417907414924322
0.422061889187181
0.416378867802651
0.422075699836382
0.417262776337742
0.426931405318306
0.416830539512802
0.422974381143511
0.424196892282251
0.422016331754586
0.42129964096845
0.431554509479417
0.433520514693465
0.437853835628801
0.435213294318751
0.453677640589903
0.444993773738257
0.458496076881034
0.460940409933893
0.480497338643911
0.491174619126796
0.513354478128756
0.508100959397036
0.527678085095759
0.535622740188839
0.555210038448372
0.550372177072981
0.569117654522706
0.550185880724544
0.571344067192994
0.557659349485978
0.552025023130056
0.541615848162842
0.537925551780865
0.539897034499545
0.526457167750704
0.520223127873582
0.510283412422234
0.501334754565936
0.515341591800715
0.504209167018452
0.490956554017989
0.498270391096307
0.50837865451739
0.497375326158091
0.499129740602171
0.50584745424927
0.509541945455357
0.500225635189659
0.493259687010781
0.490797186519376
0.489073252086045
0.483832227296555
0.485133405768907
0.472157942834972
0.477589448634452
0.462168759488933
0.466776636588117
0.456216597229614
0.452273808709582
0.445374059405649
0.449959387917337
0.449290004315937
0.440094690269908
0.433484661099786
0.439365952826934
0.429708026346952
0.436242629135336
0.42699869503394
0.432910809876451
0.418871719465071
0.408075554552842
0.419783590878777
0.407650603264251
0.39986294907618
0.410651234708987
0.423073564558121
0.410393583256861
0.400085237003805
0.40766382339081
0.3868787873609
0.40178204282925
0.404543092982508
0.389510230118603
0.390353290057863
0.39456858796543
0.380447345501467
0.403385981889738
0.384763921104252
0.391670207461147
0.377978036171456
0.385539278043062
0.36587545152457
0.372253298727238
0.371087917893804
0.372788445793631
0.366442266270472
0.362502216102381
0.371009754341066
0.374776239417285
0.385972431367557
0.386079565340454
0.368489796880799
0.388237453612595
0.381385548772785
0.380543545472152
0.382773572212408
0.390292293366219
0.384109159181513
0.391980133023487
0.378655462024462
0.38358168306496
0.389642472864036
0.389479024175221
0.380196057597267
0.406091390565886
0.393363571248131
0.398805215241344
0.378918414444581
0.408082766567598
0.41819118734871
0.405630143384965
0.415369912597736
0.4357537397097
0.416284818730049
0.445306676199924
0.427990405457098
0.452975843458172
0.455975862070527
0.469813289585717
0.473900944763339
0.46814584400972
0.488374430592264
0.519505634554355
0.51479317863348
0.552691762995549
0.580228090019512
0.556116458134866
0.602931315222433
0.628933715984969
0.580721422122122
0.610637339733601
0.619337684601344
0.628106827061172
0.63656947236585
0.664892286985019
0.649580742923026
0.683168456448969
0.611782636127482
0.619578186102236
0.642128032279815
0.682844790018368
0.655100075454459
0.633212654554512
0.616252394396204
0.631518063053847
0.627557512459377
0.671156440008423
0.62700106079534
0.599434395268474
0.589051984016302
0.618423177600375
0.633495063654144
0.656727989335379
0.616757185328094
0.639824500498719
0.598602740803999
0.595696740003389
0.601093519103596
0.621540533298984
0.614690554112837
0.59260482671554
0.608922194318321
0.572272253448326
0.549018958569734
0.573665363350888
0.562981221614062
0.592720917988437
0.5755266204763
0.564824858684652
0.547246463004439
0.539301459025467
0.54915257170111
0.576529526408731
0.572784627319496
0.573443785765377
0.569861169545558
0.559960800355891
0.56094887897515
0.580700950880821
0.542582480478115
0.542648778077895
0.577994774346405
0.62225629145187
0.554817901522669
0.631014482418245
0.592745128738734
0.65338775114433
0.585775787513476
0.545727491522221
0.581654157278853
0.61737986876141
0.566825667165516
0.595359205321137
0.572712874681209
0.646364113831605
0.622663775348422
0.653565695286092
0.582252411713925
0.611759103212923
0.619573419000873
0.694956786834182
0.629533302123544
0.73579679820156
0.634355367784759
0.687685457244954
0.632625545500611
0.642055278280535
0.614764179904792
0.676517659513349
0.646303099271394
0.800638373259652
0.674765301429195
0.889710579001861
0.779003522465433
0.820453545019045
0.672722369511382
0.813885938646172
0.783518232806041
0.810177949977953
0.680028462361885
0.78728088251934
0.731474939316953
0.920554487546573
0.690660090911151
0.804142604842315
0.841680565821771
0.88992678835713
0.719324090144985
0.798265173739943
0.683425116760098
0.816680232840404
0.729241265316741
0.894637596359295
0.618168821203017
0.827806812184906
0.656559542553993
0.760176036634887
0.712035568845601
0.642778346256012
0.829729217299285
1.01385783386355
0.625776821058013
0.781616649966098
0.934733149112632
0.949304576457417
0.597040956986615
0.84761620811331
0.912638941380931
0.740305978933874
0.499639374687444
0.917029008289244
0.748892812583633
0.964463351427687
0.654370420565836
1.07133052479038
0.589394082170608
0.900948228214435
0.915915497210775
0.344250824316227
0.476624221537098
1.14522068569363
1.13018911538131
0.771972973311863
0.647422152538832
0.767800769569394
0.721449464055979
5
1.1459959092087
1.19346392365085
0.57352342928399
1.25710684374122
5
1.23110477570313
0.857839354222799
1.14533025631617
0.223363262655674
0.898080780417328
0.844916962681217
