3596
4000,36533379555
650,420452594757
1
2
2
0,0401866765101674
0,0252979067505482
0,0442007617791131
0,0210167906639973
0,0396496761739865
0,0345422438008891
0,0414721949437713
0,0229391235224616
0,0390418038740413
0,0219092293891756
0,0410328405889527
0,0200569795044479
0,0438198563743926
0,0147100199960403
0,0419007253766714
0,0217055631079584
0,0317433809554092
0,0277576449344399
0,0349317650570711
0,0183684362266287
0,0349441909545308
0,0174300364066084
0,033099574552523
0,0214047690850461
0,0355011532544099
0,0218990924761831
0,0364657875873485
0,0187883526905569
0,0275542008276442
0,0292952363180206
0,0395490569919326
0,025222680317851
0,0339800537236312
0,0329271992648325
0,0403623171308208
0,0177760589020191
0,0354432057901607
0,0244096949200866
0,0332701103346073
0,0303986836059434
0,0350682716362652
0,0313291379186317
0,0362711784906991
0,0198827766718337
0,0417133680831294
0,0261093289691729
0,0366302192827257
0,0263991070803126
0,0368007348111197
0,0239057660193882
0,0434725796105358
0,0287260274805054
0,0364664703859243
0,0225000393497864
0,0371230754891382
0,033545658871474
0,042688754816723
0,0232600507569494
0,0308933161359039
0,0175866315980249
0,0405729014423339
0,0295547687992946
0,0310624174542068
0,0254221675247474
0,0285792808839781
0,0254053888802804
0,0310819744114037
0,0239671342574582
0,0321688500580072
0,0375081748666284
0,026898608697745
0,0288052491088286
0,0426893131576433
0,0259278475595032
0,0363549170776577
0,0265443943677165
0,034095624250588
0,0257960489109096
0,0374426610233436
0,0183296286714738
0,0384987741287869
0,0266674837644394
0,0277077839668145
0,020771499080781
0,0418622028074002
0,0416699899243591
0,0287610695601042
0,0185256261909269
0,0437952562008139
0,0242592167885382
0,0418416907569636
0,0238552074973549
0,0326473554075051
0,0316801339633455
0,0347499083144809
0,0240510306514848
0,0265071566305717
0,0333068313920358
0,0332206051228947
0,0270593218693732
0,024256236710682
0,00766834745423319
0,0692943433687669
0,00426642114679614
0,0707556161633899
0,0211282676690428
0,0237655213393383
0,0427230312039656
0,0444123664971421
0,0349431778550787
0,0240582025308109
0,0318014014903125
0,0336194914911359
0,0347006121030148
0,0168128656674837
0,0291956881205393
0,0470025742206318
0,0315844594867994
0,0381281200351507
0,0344691285648375
0,0181844681451824
0,029476013417041
0,0555030790000156
0,0185433596097469
0,0459821346661335
0,0268586183636154
0,0283210033612919
0,0299451699512985
0,0535719896170253
0,0234838249995682
0,0264174721922563
0,0301172407710934
0,0305289063307626
0,00242756137147556
0,0613612832704779
0,0241446195608874
0,0445089521646309
-0,00643561678829015
0,0486685062487593
0,049795517307826
0,0404841444622944
0,0284552706595896
0,0238841059358382
0,0141243644841803
0,0642059928525709
0,0275296926495532
0,0230258922375745
0,0373086445746562
0,0455258193713235
0,01884041415707
0,0382796056540684
0,0207729636014336
0,0369098549966482
0,03727109470769
-0,0132246361817342
0,0413060936395454
0,0644145983669621
0,00175584997541497
0,0886367842661256
0,0149894987107162
0,0497821115195977
0,0180017024188953
0,0457453800411186
0,0172846947127559
0,0456860634006157
0,0112403710232776
0,0415435447206622
0,0405801857237828
0,0314968801684799
0,0195345349917643
0,0542370539602041
0,0283011431739173
0,0100591664337907
0,0566854273092239
0,0282756368827066
0,0140317346623824
0,0483199127921088
0,0318273711910978
0,0300411157172131
0,024896084150314
0,0647480910115396
0,0259258711736114
0,0379123517482648
0,0144325321773645
0,0395072178686602
0,0231509783939897
0,0397372787362348
0,0260999882782918
0,041137131949856
0,00240702788004407
0,0387520108929634
0,0478780710703538
0,0533367430939788
0,0213388119953142
0,0478861649670375
-0,00750853879424603
0,0614749879507537
0,04919897764952
0,0428410123308971
0,0276923578838728
0,0358628734596634
0,0288486675834933
0,0343391202732314
0,0294717756304003
0,0382914267473022
-0,00396124970268737
0,0618695354471225
0,033249951386954
0,0467251317637672
0,0269327298701385
0,0469650650036781
-0,00378920217439259
0,0753857876162602
0,0369496641371955
0,0374370528245748
0,0260230546533443
0,0253002529137661
0,0426744836494746
0,0539836572788585
0,0311966384213381
0,0339426537828096
0,0232351977326302
0,0419504928504031
0,0273011957869248
0,0454546731956854
0,0366717106899757
0,0457902118453548
0,0280316673019646
0,0373186030046749
0,0226093812355626
0,0450664325894053
0,0318002119738898
0,0362191177895425
0,037002997044371
0,0277067042536867
0,0312263139276332
0,0560176675402086
0,0286762317701502
0,0432211684940229
0,033771116472506
0,0487882188013008
0,0283238901246953
0,040105280696611
0,0286259303736752
0,037189772981757
0,0148230200191813
0,0795797256588783
0,025826390438662
0,0514036834642398
0,0165207296416327
0,0580139027183592
0,0301577974440555
0,0437709047644051
0,0295687588657296
0,0487295025468162
0,0173886606201341
0,0406146454133462
0,0411950088206084
0,0557208517887403
0,0197906122283181
0,0505540865152532
0,0362125682646364
0,0475440239335721
0,0260389897052195
0,00731289699137664
0,0790498329366221
0,0412416073827983
0,00465056242261093
0,0913706650909024
0,0349744360607917
0,0618764540821695
0,0294227068314653
0,00818107067777645
0,0645531753673722
0,0729143438404352
0,0449098059106035
0,0416774755116008
0,0489993945577518
0,0486463714103673
0,0370575005681617
0,0360325397316238
0,0266975381722805
0,0591009814744522
0,0522990882455082
0,0929648768971297
0,00649359643340053
0,0825358649890557
0,0447981119745661
0,0578720659698773
0,038658106105854
0,0576441658546798
0,0258705606035823
0,0640749078424152
0,039925927764284
0,0591191780152635
0,0471472114533063
0,0494993607753492
0,0597796503552661
0,0571963012163442
0,0404410908244672
0,0597253207996018
0,0520693971466848
0,0507556757558903
0,0579234402437013
0,0484853746659039
0,0595906914007199
0,0494851626359179
0,0352904321635396
0,0937425092747908
0,0521415900790456
0,0644852179832666
0,0669551290298912
0,0664450738045497
0,0601082541771615
0,0665027645700666
0,059233637978831
0,0676286988054986
0,0611393292746462
0,0579415870935496
0,0817239295805202
0,0721287908027616
0,0671818115950231
0,0677815594757031
0,0738749783324252
0,077225087164832
0,0715112994323038
0,0807583332900417
0,0698272850703906
0,0842525711610903
0,0628167838268929
0,0906563280276582
0,0898449983572837
0,0644962781836753
0,108471674930435
0,110123624523299
0,092759443749963
0,099131392746914
0,0884497836056037
0,100344285414283
0,0848841092877642
0,112132070854352
0,0933241927017117
0,108049304339249
0,111000538994756
0,124999016619272
0,0953512451199838
0,112876719313067
0,137810950996833
0,166127313899906
0,116393288568533
0,142758031423554
0,10018127540066
0,172509537202876
0,133895127523863
0,151140757577935
0,149479868941247
0,148033097536329
0,161363820733274
0,158891492744169
0,161460311823999
0,165492610227762
0,166205375466033
0,176219388924273
0,177539433920715
0,187019498190119
0,184852129026849
0,178492905254953
0,182232206081234
0,228516745558153
0,201898812001964
0,203503877411981
0,202051878250994
0,193138422331951
0,206791338596559
0,21409720327799
0,231692368634159
0,234311543547129
0,228300715644743
0,266077524461783
0,226439491791033
0,255887597146583
0,229791381306573
0,252801589829102
0,242505868687398
0,262042091814486
0,247720604071849
0,269017393218014
0,268813127954805
0,280783450372192
0,26050006401318
0,293147411956098
0,25840111714325
0,308310203339422
0,274431962774062
0,301347462195649
0,272611236070536
0,304410202920576
0,291325579895519
0,360769800502517
0,300038455868138
0,324595119164326
0,306319673663318
0,333402912138918
0,306379255558803
0,334766462981247
0,320018356947075
0,330341839075738
0,340873843922923
0,362737839315384
0,350190142459558
0,364962941469944
0,331098860270507
0,393818542177788
0,337824383070962
0,368227211991249
0,353207871540454
0,393337091108373
0,341023593470279
0,39864278145046
0,382691098609964
0,389686614775173
0,390966736404926
0,410427667444492
0,393825440833131
0,405133261158227
0,394248382314956
0,424667150885839
0,407927853316358
0,422395010717567
0,403141197114851
0,434478388515111
0,412431282576425
0,421155955618157
0,432669782985535
0,446625415945105
0,414149057983941
0,457775533556196
0,427123459148321
0,477697418649038
0,418005854759465
0,491028257895168
0,438961723497594
0,464182892666098
0,439363257297217
0,473459546049216
0,463679354316373
0,495379165852478
0,479420853793081
0,505875733384125
0,465428689585484
0,502714323924542
0,487233972234403
0,511112628933604
0,48431482142148
0,545724373561881
0,503231181763562
0,540501720660269
0,501332624295447
0,551517014419432
0,511151560073867
0,558629260156777
0,515784512448055
0,586910381139227
0,532549667488834
0,582869003173262
0,540679621335502
0,556382299693571
0,534928272346001
0,577501833593748
0,549292946946178
0,595065043891966
0,559213619668493
0,615783423207305
0,554587848838595
0,594839924778735
0,580892460730107
0,608488167337012
0,58899989451215
0,656688682345686
0,618745510795121
0,647729454622855
0,598265850666725
0,649261181123096
0,588354842920085
0,645470835452563
0,616879816998922
0,646820599748138
0,627486381711714
0,694343248204906
0,638381529177018
0,68164305052128
0,648359132418241
0,679100306988275
0,652907674421575
0,716433287361172
0,611092498815709
0,710871716875629
0,707240126709171
0,700393908927679
0,661285165180475
0,771100226372585
0,692287207582222
0,755639751519477
0,671032895197243
0,778589350743871
0,70957620499997
0,777071645038959
0,728356966693983
0,775880445250425
0,669831847074659
0,768644601991146
0,749405127155694
0,789773361707337
0,724360084314651
0,761300710841364
0,757731361705731
0,772910271121207
0,76882066831956
0,784296902151717
0,728147061307929
0,837392139383962
0,741390429498144
0,842657890849556
0,766299361673274
0,848475114590248
0,718897665462838
0,854616796890041
0,811687945350642
0,840741593058942
0,810611272580413
0,853433076615888
0,786127456322887
0,872858762240208
0,815318865292041
0,862698982145091
0,82643248220379
0,856574949493783
0,787721515027239
0,899098006974514
0,878757382424687
0,91216874543239
0,835559858733667
0,925492269185273
0,832817535105598
0,930374870622491
0,811148430016319
0,940066865035588
0,886414622475024
0,949590849974712
0,838510496644541
0,990812277992933
0,871923947274376
0,957328905178066
0,844208201796357
1,00475311703892
0,897692328740717
0,981501371233455
0,86129837217926
1,01948757050867
0,875564610381262
0,994191063453453
0,883042324197936
1,04199670891083
0,876615735077054
0,990970626315055
0,884825334556154
1,04774092927714
0,95543763522047
1,02351388243077
0,903820890445222
1,03238565290226
0,995600211524123
1,09858580260055
0,994338124206353
1,10193879729937
0,933204053551788
1,07816863793572
0,964858042708422
1,09287571393313
1,02149355834975
1,12989286124711
1,10920000374042
1,09878312078484
0,990241596383213
1,2091981536148
1,00362500419603
1,15344789402006
1,00992432677788
1,13502696478594
1,09635544502533
1,10800158915848
0,973667685670575
1,14782208514297
1,04925209069295
1,12288962499222
1,03846614494417
1,19462860124353
1,00597563916618
1,20136264293009
1,08350513648937
1,11930828801843
1,04605928605117
1,08873296802804
1,00885906505857
1,16775640893567
1,00577861856229
1,3085917041246
1,09173947775018
1,32032625625664
1,06015179277398
1,26491353685448
1,13930052359815
1,32632959620697
1,24198391690924
1,30855772252385
1,08632428565415
1,40923809561701
1,18239156583235
1,23515294080025
1,12736296108869
1,30855727428397
1,13168470273301
1,3031613143206
1,14247537597316
1,36788500549943
1,24300104875917
1,31093268461364
1,08237170828346
1,2539557237851
1,11439960863199
1,19275356585863
1,21060902183309
1,31052025880293
1,11902605438399
1,32615606426243
1,19542102204502
1,38611473358159
1,15635137359369
1,53848843385029
1,25808904842963
1,27736609447619
1,13764382010331
1,37059867918438
1,25300454715679
1,40452818574443
1,1916113345321
1,50109995279639
1,18133697416964
1,49420719374293
1,29075732033813
1,46205920575859
1,24923202333683
1,27645079448711
1,37652465386835
1,35119628316045
1,20924629904844
1,46939098501958
1,23240264103237
1,46137069756197
1,24456136173992
1,41639402511059
1,3160151491292
1,44463936325964
1,30224028770721
1,38037976175398
1,26126056211611
1,47779761420242
1,27916294963158
1,44567186218894
1,16979494770113
1,36106320605556
1,25606824786508
1,4366700955834
1,22543985846571
1,32219401485848
1,27023529100314
1,42621161066471
1,22901015893138
1,41834677702131
1,28744642119372
1,49443645470674
1,23739144959409
1,53258901967706
1,52991196269034
1,35578186392415
1,35571345475136
1,57589900135835
1,300505309569
1,4942343467633
1,21238698669158
1,49161793579469
1,32679880482934
1,47481048331033
1,27331523711923
1,40826356914401
1,30053708088514
1,45449664097457
1,34803832392186
1,41080609627116
1,35842786048513
1,39180232393879
1,40414962558391
1,47487555761184
1,32233259268888
1,59689162573738
1,27569252780501
1,36944206029407
1,33872472904522
1,66999921990478
1,27867616557382
1,42640133855625
1,32984850747735
1,48443283609927
1,37228554609446
1,67063086590185
1,35371357128328
1,47202355614341
1,34744215203383
1,47829642556345
1,25024538591813
1,42298344297069
1,33708751784566
1,5673156955435
1,29411734823425
1,54060396172262
1,30362435053116
1,51929116286842
1,3069149596987
1,45931689675194
1,31924988068486
1,61652681097783
1,38677877287469
1,45079697233951
1,33362619653232
1,50127115978594
1,29825835914557
1,43645214296624
1,34264696515064
1,44118313744009
1,35931242993845
1,39082595761602
1,33991499035728
1,44859015206256
1,2858581044995
1,40804278012111
1,32278603585991
1,45599642759204
1,27775509218862
1,73195281797398
1,33098575185773
1,50065514829503
1,37987500256908
1,54191719137368
1,29124692113422
1,40781998975656
1,27761661807171
1,4530654449718
1,31842741481778
1,35371162211019
1,28434413942264
1,48802189832064
1,29808661742901
1,37904637744631
1,30951754473547
1,51894524346172
1,32758576656227
1,5659486563089
1,25875047073797
1,4378184923502
1,28859046219252
1,51691594433733
1,25063680071704
1,45104050052793
1,21586845762592
1,50626079052419
1,26921065171242
1,43003846460365
1,34829541607955
1,40821911522271
1,26945485606723
1,38389557807544
1,25334275394853
1,30939802663312
1,36974820469079
1,4695441177931
1,28068891216461
1,3333381941064
1,37272797447306
1,46513897501489
1,40354584177557
1,51734771144326
1,30461618793273
1,45676481104178
1,37693153087757
1,39110487622314
1,35858394565126
1,50286846913491
1,32166032252866
1,39528475649247
1,409136475922
1,35845171594947
1,34717532361735
1,42354437114846
1,30016914467173
1,36732089878186
1,27713165654504
1,44521451822762
1,29409682456304
1,50061164004142
1,36773693422442
1,34679176027832
1,23118523981018
1,3928799703594
1,29341127976737
1,39547568561577
1,26199270358846
1,54781234046404
1,23018200378439
1,5416298562092
1,27469810840904
1,41579600936058
1,33532347307593
1,33511655819552
1,28029087346201
1,41835613176487
1,32425370525208
1,38840353339515
1,29711333147821
1,34587838291819
1,3107349723472
1,30314673143
1,35824879925511
1,31183622859398
1,25244424010262
1,36342762062397
1,2895697828261
1,48180072960682
1,23852755055115
1,35019606637996
1,27410958455152
1,23785318657932
1,28301417412681
1,27378377945448
1,27589575759761
1,39240924790932
1,32505500482375
1,34626500224325
1,20721523092385
1,35318156001496
1,26812977725115
1,31933409753376
1,19834229515432
1,28962812848604
1,21024467972012
1,24011541896143
1,21964431919111
1,33187671877966
1,17360412946869
1,32885974413147
1,22840010140168
1,24227970146365
1,21859271592568
1,27535365262785
1,17769582721314
1,23650239532649
1,13382450476322
1,24209099645429
1,18204219693959
1,19305640309865
1,16188167879242
1,23955537165894
1,16609703285935
1,21041021700246
1,16109445084808
1,21069715927265
1,16132507787973
1,22219190133469
1,1308933771932
1,18090274055379
1,11406993080569
1,12938899956139
1,14117692522554
1,15847601426026
1,05537324449558
1,16830387898925
1,05040028794789
1,13518466855349
1,06328776786998
1,11500311319057
1,08453216280816
1,13990864554518
1,04680965781628
1,11175113967506
1,03363362534841
1,07166198513038
1,04080681600681
1,08602143322594
1,03605090066896
1,10248856904902
1,01000344763997
1,04603926053625
0,994805599702515
1,0477062385907
0,99290532583609
1,04648743213811
0,981728866973132
0,999231459161025
0,994453900207362
1,02694401174955
0,99524374222728
1,00606790933812
0,991476335979238
0,973561941607991
0,94602490354738
0,960064724872604
0,965051945796694
0,998095340535459
0,951363480902724
0,946276958055302
0,922690890375501
0,951494337807788
0,892213139701249
0,944093655302085
0,903036796025669
0,933346936455672
0,92229540578821
0,912569347760788
0,862461629650021
0,895213469508287
0,874712628634795
0,892591750930208
0,870281564281125
0,859204980871586
0,854941464706355
0,881024879485372
0,818069408809879
0,876469662955929
0,813652756374001
0,862660758544097
0,813076878027372
0,847280868789163
0,798481635745171
0,799616903550675
0,787802534760347
0,824106830706593
0,790218706663569
0,792479760238063
0,776247297564362
0,79649869003534
0,774588242029588
0,781751251841081
0,765022812394225
0,769356516818873
0,750138062017116
0,754269024430675
0,741116203950352
0,755137331413254
0,727843015615455
0,758613858139361
0,722972708473916
0,727874213054946
0,708979934387802
0,72571401712692
0,68743239221239
0,71288694904003
0,691444628609237
0,708056503940909
0,676083584226245
0,696120253983868
0,686457808688246
0,717827698165205
0,660722995089356
0,693305701847933
0,666859345411621
0,664318089650391
0,638177253607921
0,657034147035737
0,629135598600781
0,646128933015926
0,631817896979873
0,656250380600812
0,615637644520734
0,63552536778123
0,618091210958342
0,618964565220596
0,603478416606057
0,610686141041421
0,595235014227243
0,59513583971393
0,587840793205726
0,603622062313997
0,583313697630541
0,590817018734156
0,569478921123137
0,60029131930584
0,567889193416327
0,581670587641127
0,545325623782732
0,578077257760645
0,55356734838313
0,559484261611797
0,550879584346128
0,550888878276437
0,542401930192086
0,534497020475371
0,524977819062613
0,547047083482373
0,520284732441586
0,532347350302558
0,509783258490534
0,518158379183857
0,504448416926391
0,513581540661408
0,486403018818682
0,500614870650194
0,488747861579776
0,498162730564168
0,474785223001341
0,48522374603788
0,483063951277723
0,489657900608536
0,46799044972532
0,480124712665595
0,472011194768997
0,475027272051965
0,461444174361762
0,458630653229932
0,449915137319902
0,454082613099037
0,45058410605439
0,450427128489409
0,437429087135945
0,446721781675891
0,435317057504924
0,443905616456381
0,430812432074425
0,437757452315596
0,417537577367914
0,433271093605174
0,416846697136457
0,416071953452178
0,402624641589457
0,413741291466293
0,401130769901558
0,411423529233805
0,39029593618487
0,402300805207689
0,392218784362028
0,390622398954704
0,387585259452036
0,390399809324981
0,378195446158372
0,381702645789576
0,367390465449133
0,379053267918697
0,364674665452719
0,369479994289546
0,358822825480869
0,375277865108694
0,361395037511961
0,361550663239543
0,35467820136633
0,361210286641264
0,34986404109248
0,358207667383169
0,343384920752727
0,353545204004924
0,337346045765121
0,342987023375157
0,336567599392552
0,34082929561238
0,332890638632133
0,333691614101758
0,326567039922688
0,336962559980824
0,322971657953337
0,330528038680851
0,313383056046182
0,327338698275989
0,314932676679843
0,322467015620978
0,309750804280988
0,319894375230804
0,311201193106556
0,310871977053711
0,30254253658643
0,303638741613326
0,299710480238909
0,302023509398133
0,298689579811603
0,301777863139827
0,292016085460197
0,299795457873729
0,283595861785098
0,29527886840401
0,287356247593809
0,29065946947359
0,286083073011134
0,291716152235179
0,274563633733088
0,285101916798475
0,271770450200057
0,284422270206911
0,268877039525589
0,272818590531219
0,270152390632685
0,272843881489498
0,269814263041205
0,270471713073346
0,264562233979036
0,268241629212071
0,259771451475511
0,262754729453121
0,254880761199653
0,262821113642363
0,255386450667706
0,261353991213112
0,253933736024241
0,257412651394607
0,250334895485984
0,254033842807324
0,243845651264514
0,24864464156129
0,248870044604386
0,250510551086291
0,240949441702795
0,244030728498401
0,237859491289684
0,249644944340084
0,241609980067742
0,251447601873092
0,236829752924324
0,243412483942541
0,242374282162428
0,246769505239879
0,237947451390886
0,240225156103034
0,228212621928064
0,234821916160617
0,233369421147434
0,237024412636863
0,227743813698863
0,229450512816039
0,220711020353836
0,2265543019674
0,223590464156574
0,230180583811268
0,21139637765235
0,228571914517111
0,222298233385546
0,222710464849373
0,210401692252959
0,217851674077126
0,20893455252256
0,220171005454018
0,201572656928893
0,215765763440566
0,207662751993624
0,21591141847604
0,201552267521241
0,205997573252483
0,202357036106639
0,208711689269788
0,19703067654897
0,203765497646037
0,199384365251377
0,207379057770287
0,197843717575557
0,200877434894674
0,19342390733744
0,20264028160187
0,194590408883023
0,196161548396086
0,187644434706221
0,19908330811001
0,192617925059151
0,196282074676989
0,186941037212264
0,189966247106166
0,184981771037664
0,197523343632644
0,186026550910501
0,185900066273065
0,185657741096308
0,191402996551735
0,185830433137757
0,185005539781387
0,181699461555663
0,188513408776797
0,178912570680488
0,185822522138777
0,1795729313738
0,179846967984894
0,175213086717627
0,177199267125611
0,174210726285484
0,178999401420527
0,177050307184241
0,180801852982083
0,172659704798729
0,175215259980325
0,169185485346863
0,180605854240463
0,170296482495212
0,168855602813564
0,166722151885275
0,178212695603012
0,167671474038904
0,165807614604646
0,163790755253636
0,16837791180887
0,161281534900274
0,158253345980583
0,161184760553199
0,164576206319643
0,153927672429481
0,163683169415192
0,153659440106057
0,156406771478282
0,153127230395151
0,158140379737511
0,150048909913653
0,156173656979443
0,142816108200417
0,147457931391491
0,149292787638267
0,15229548715976
0,144162707653929
0,14679057140146
0,137519555861684
0,139588918828809
0,137108105774887
0,143510659169955
0,136051956478266
0,140864146853737
0,133288254742641
0,139145054493697
0,134004371354343
0,139683130232786
0,133718154275047
0,135919965447022
0,126236078865189
0,135741518637915
0,130586659120618
0,133130332584909
0,126738066692742
0,126072859196095
0,124416452673641
0,127629578661271
0,122050933794243
0,126253651010401
0,125940700070941
0,13490481774809
0,122494596286218
0,128265597283365
0,123116084802082
0,120860688288379
0,11692860683788
0,122155155867385
0,115727239665012
0,121590887428882
0,116333701317488
0,117932736986091
0,111416476577371
0,115964255522722
0,111336843115299
0,118403917019829
0,107162581051195
0,115613239363629
0,110024716209225
0,110884236596901
0,10730246812528
0,10982265207616
0,107887697141859
0,108356037990533
0,104948191573461
0,108636779915461
0,100066121584167
0,105851037112394
0,103759966688371
0,112707843736498
0,101478409573542
0,10345559403636
0,106046143051785
0,104767535585741
0,0987447243348765
0,100947774873255
0,102751524637616
0,101211754264115
0,100461628720493
0,101594701464171
0,0962269741432145
0,0993616350284381
0,095397829038628
0,0985033119497753
0,0952180556686658
0,0996390772130032
0,0943227790060834
0,100298309887036
0,0953995246551453
0,0970729919284514
0,0963578175243449
0,0955070358686811
0,0930862232734162
0,0974360880630886
0,0928795779910586
0,0959333095152921
0,0884767043685258
0,0952550394813498
0,0919410936881271
0,0923005681034977
0,0840175203589217
0,0925482521061385
0,089265385955939
0,0918531395201252
0,0867532969925854
0,0884676253761015
0,0871036126276193
0,0868802564114878
0,0870507834244129
0,0905525551164113
0,0851059135516901
0,0870985763957991
0,0855182016061138
0,0848777480231498
0,0829710821939351
0,0876649903149385
0,0797052740349917
0,0876966191676668
0,0861439550448731
0,0817611082647597
0,0811158837997049
0,0852300843377592
0,0814636351694594
0,0825453083868215
0,0813425335853386
0,0833821040987538
0,0819151434527809
0,085951658627316
0,0785367724988546
0,0841302035328705
0,0746307476172144
0,0831183964772878
0,081016557705458
0,0845220134028987
0,0788006052556439
0,0829499667484561
0,0791806118677873
0,078904056760899
0,0753750198637077
0,0782129722699303
0,0752870753965432
0,0813666304049649
0,0736510832080686
0,0764935767024931
0,0766484875445702
0,0758779801713318
0,0762631578664622
0,0760371547875977
0,0740315790277461
0,0751043736204651
0,0717722098455575
0,0744797434191018
0,0745430229437269
0,0761318160394234
0,0726795536580846
0,0754886603061601
0,0728873412817169
0,0766344597997848
0,0752571909773992
0,0740910118047433
0,0712455484823569
0,0695876065704905
0,0705455306197576
0,0787761907510944
0,0699169702129643
0,0727582213444385
0,073841075789859
0,0718549424177895
0,0677637290451392
0,0727263461701839
0,0703610501424673
0,0736307546015295
0,0688349825487885
0,0726089553782407
0,0679321788061516
0,0709648437626958
0,0678174001663577
0,0682587400835552
0,0694200003672747
0,0716141150125516
0,0639226671144172
0,0713473829889222
0,067163550273779
0,0695588795840376
0,063530156050489
0,0679729968931482
0,0648761054839351
0,0674131636099592
0,065621978424491
0,0647061972762841
0,0629235792575128
0,0670374917513631
0,0675309604793975
0,0643076375250848
0,0645113322336139
0,0657066679694095
0,063087817840676
0,0672287005409716
0,0640985996412858
0,0650404021090154
0,064238471890816
0,0631477099072901
0,06380711953896
0,0624214749152288
0,0591905896933845
0,0621654177250645
0,0629833018754741
0,0637486285391627
0,0627924987984682
0,0643206406693105
0,0587502774188593
0,0655276234974161
0,0582386514509921
0,0658551446684493
0,059212664591108
0,0611491370400192
0,0624587308134293
0,0642818131304433
0,0612063089287857
0,0606521067627705
0,0608587279629527
0,0588385501381178
0,0565733359777314
0,0615504494903511
0,0546125724748691
0,0616026063328391
0,0592101438688335
0,0575454855587083
0,0606225151073566
0,0623080279972686
0,0578938116738777
0,0600949111450964
0,0556525295903837
0,0615210235008852
0,0551250492151676
0,0592108716210037
0,0569046643467352
0,0561363142239924
0,0536366556566516
0,0611988659272117
0,0566766129730535
0,0578156623553403
0,0569467667653748
0,0562622066730292
0,0553060777174238
0,0564499235854498
0,0497946543095738
0,0549488547330505
0,0555935467755807
0,0572359710944861
0,0540779378335906
0,0516328697666013
0,0524576660489835
0,0543989518848934
0,0519814129594965
0,0556444118018648
0,0539595231478993
0,0569867755380047
0,054670719056541
0,056077412450789
0,0503130059242988
0,0553188224101013
0,0540761450378886
0,0528646961145673
0,0544951576470505
0,0545716924735456
0,0514526357665586
0,0524044197698187
0,0496867355065338
0,0536490332093553
0,0522675175754966
0,053743774370165
0,0472163160020075
0,0529738116008677
0,0530514446501763
0,0526047788241344
0,0505760193763689
0,0543178165291241
0,0544681830882505
0,0565111499556977
0,0500019432017424
0,0523726624818711
0,0511611125583184
0,0543375691523942
0,04914248965293
0,0503277739904306
0,0495443793286117
0,052322138961841
0,0498600168406349
0,0506930415667783
0,0511624308169511
0,0526015662444639
0,0509676515747372
0,050784822074386
0,0499293466536446
0,0530723028258494
0,0506402113396005
0,0505871672555117
0,050146978692327
0,0529411155654445
0,0489117449511378
0,0503940249264237
0,0483498496418436
0,0525735001270385
0,0497103027040624
0,0477709391560899
0,0487728403321185
0,0491374113360635
0,0457310234941313
0,0515539861883119
0,0470208290259486
0,048741655028933
0,0479816078004433
0,054350433764867
0,049333897088769
0,0508095896835345
0,0504297647566643
0,05091562372472
0,0480880875421733
0,0514328249244535
0,0485983887421305
0,0499478108607678
0,0497503664254678
0,0498863983320299
0,0458470414785482
0,0513448868717259
0,0477973500130927
0,0507010431160172
0,0491486281463998
0,0510931383432454
0,0494242984491237
0,0513224148220017
0,0473949719581166
0,0505226005957587
0,0479754277960333
0,0493123366607624
0,0473180393530841
0,0516225954668401
0,0493812377233177
0,0488416995478594
0,0472802762776486
0,0525271506647108
0,0496735569049292
0,0519335528115837
0,0507153443189517
0,0510880847783208
0,0480817322485365
0,0494560664081276
0,049217754377283
0,0500119104833903
0,0519205281307984
0,052471459380511
0,0482269173716968
0,0527490929310865
0,0491725597146384
0,0523575744371495
0,0508835643421585
0,0506329843297169
0,0496719623109737
0,0518190528585127
0,0505848381952271
0,0504868614792322
0,0495101602453797
0,0505070288873746
0,0492099692891162
0,0492712705607297
0,0493052559586821
0,0495792311954455
0,0489505337792981
0,0494723878961098
0,0506468031182351
0,0531984382551885
0,050805565200771
0,0501719738696005
0,0486550662939558
0,0480120874250296
0,0485789899333552
0,050233537880592
0,0475941113552679
0,0514495109341285
0,0478564718100256
0,0499333840924852
0,0490155505518263
0,0520588768375734
0,0490123282468811
0,0533177008391305
0,0497549812257789
0,0530008244101562
0,0500311073682171
0,0506257073165113
0,0499647100659161
0,050073207341189
0,0490050628333958
0,0490062552653874
0,0476173269873387
0,0526470339440957
0,050126046419499
0,0529234827642701
0,0501906534501639
0,0508691633480586
0,0495787623454231
0,050988068240418
0,0481145383238656
0,0515085007245398
0,0500257797757095
0,052342819820155
0,0487191937416859
0,0519192838178835
0,0492459742282042
0,0533346271452519
0,0497740918030312
0,0492222792995296
0,0510044103503194
0,0507224968426468
0,0513532152738445
0,0539080001236826
0,051846332622616
0,0533749613671883
0,0529078352026805
0,0521446246676639
0,0514468490909586
0,0504706913748973
0,0522392728648011
0,0563495712610166
0,051135818648088
0,050776379660483
0,050877929135841
0,0502899431237655
0,0515251362762528
0,0539256830411249
0,0493483232584858
0,0513343988118628
0,0510381082538896
0,0505777681800377
0,0507226004822649
0,0527749629008427
0,0491922034158409
0,0527856069195074
0,0526880580924427
0,0553724590821769
0,0506282119015443
0,0507104518766199
0,0500349938144326
0,0520640928748232
0,0521796357197118
0,0516423536454263
0,0501968551518742
0,0530509600634833
0,051053055066372
0,0530880165102301
0,0504051901143483
0,0532276182631076
0,0525329753647313
0,0540680638164676
0,0515378781072859
0,053889614305221
0,0531637672518712
0,052752410363851
0,0501292790046868
0,0556026763190861
0,0534186925875173
0,0530131153760768
0,0545939460405732
0,053727829095678
0,0511195059661138
0,0575479324679975
0,0523183282535027
0,0556705222588928
0,0544776708738822
0,0539475745301875
0,0516054373070688
0,051969666054381
0,0546301170595213
0,0555846481603031
0,0557112455911466
0,0552402396637817
0,0525173420228779
0,0556589898021122
0,0556698424237222
0,0549344086283516
0,0542945094409636
0,0556396765163274
0,0554379593978275
0,055051432806583
0,0548564362568946
0,0582183409960552
0,0551360620270858
0,0550066165359265
0,0537989653169968
0,0551894443774043
0,0565192603672336
0,0562623485163459
0,0557601825237131
0,0551766710443518
0,0537429143215497
0,0562731538183302
0,0590022596402909
0,0559329226051356
0,0558231457788936
0,0539694236855186
0,0546859628869608
0,056043585410572
0,0558864636006156
0,056010325448328
0,058428138342643
0,0573498025597178
0,0554779659627593
0,0556364842884127
0,0550385619039657
0,0571319401056563
0,0561557200322685
0,0586690250905991
0,0575741368863675
0,0571462479576402
0,0569952014538805
0,0576124067358459
0,0583833607093983
0,0566700028683505
0,0579737735391504
0,0576085287615086
0,0567247193983031
0,0556660839000879
0,0586922114000458
0,0614236408481917
0,0594718183558774
0,0583959395495146
0,059464612080551
0,0574829139535366
0,0597197186940283
0,0585728953508326
0,0607434495400068
0,0562291518759507
0,0593261968884064
0,0620489936265284
0,0568622465344502
0,0544080548232301
0,058686424687871
0,0552037538026168
0,0567246557306701
0,0622255548982277
0,0629182435760765
0,0589371291817073
0,0584133089297419
0,0542798339628747
0,0592873444871172
0,0633847408174891
0,0544377237282943
0,0566952476241603
0,0629585271115106
0,0603813433934452
0,0619502140297301
0,0585456374425565
0,0597814937844248
0,0638177738432879
0,0594483593740606
0,0610855509739197
0,0592803886281324
0,0640745374746727
0,0656671279478112
0,0650016860538915
0,0616314786151601
0,0598026236284123
0,061849905056952
0,0617423751523525
0,0630784096967902
0,0549799100290661
0,0683402033644901
0,0589587849478266
0,0697632621956516
0,0551791247324498
0,0662294062923523
0,0554143017988162
0,0729317915899537
0,0538225550345303
0,0717054983635433
0,050735015669695
0,0771060679301303
0,0522468817384361
0,0849174622876406
0,047490802681187
0,0817256868596371
0,0435056707367265
0,0875918458745108
0,0488878759220906
0,0953375681318824
0,0396904110992996
0,0907817039575413
0,0430019143211969
0,10024445093435
0,043263035447156
0,0889946287736089
0,0495149335864953
0,0860158135928044
0,0541410696627906
0,0757769199563078
0,0662639577578729
0,0702824484344383
0,0730867453049208
0,0635589117367646
0,0830192478834675
0,0577488179975348
0,0861653341005084
0,0588937019093382
0,0800021248073659
0,0639803160167254
0,0784485701659212
0,0691813799811188
0,0739231691131399
0,0690247671594736
0,0744934214549036
0,0710971081741448
0,071589455479876
0,070214166085506
0,0719322667935149
0,0707749480050066
0,0795162564764328
0,0695095782877486
0,0733548829450025
0,0684848633125884
0,0737231578938886
0,0711576912895983
0,0756855931370613
0,0713110884607935
0,0762448038186811
0,0755607710288232
0,0757918712830418
0,07362304574286
0,0762690784891708
0,0721995967019298
0,075627026252048
0,072442246149964
0,0730637588411562
0,0717062764119721
0,0779952402422849
0,0722794907524938
0,0763099889108878
0,0752162682740204
0,076898897588894
0,0752209617645053
0,078014595442881
0,0772095503420596
0,0788941674653937
0,075419038632748
0,0804495529415425
0,0792702529923575
0,0816058512206677
0,0782165974104015
0,0810844666193027
0,0786457975450097
0,0816906150537409
0,0774235119740417
0,0798006315645038
0,0770078464604424
0,0804245550164908
0,0806704359955592
0,0811787089164032
0,0776787585125134
0,0829890262011035
0,0800994419379317
0,0847844724145475
0,0818274675475283
0,0825275273693024
0,0822322654555328
0,084508152433253
0,0803047899327512
0,082050161151754
0,0816976294777437
0,0834958972996677
0,0835211935002991
0,083241257483251
0,0808923410052673
0,0851520777297732
0,0854218413222836
0,0848556549299069
0,0841110264472067
0,0863523137018727
0,0829437537421588
0,0863569013933272
0,0840465097376969
0,084480568766599
0,0835249209333103
0,0868327215241631
0,081926442740213
0,0879973526797324
0,087353278705197
0,0890839774807051
0,0854180130319319
0,0874562013059512
0,0866314312517876
0,0877065661614759
0,0856610104632981
0,0887110872263343
0,0873464970468346
0,0892440729714244
0,0867420479247497
0,0910755916468739
0,0880886530084959
0,0903255455185306
0,0865515142695915
0,0884209801698436
0,0913658287653794
0,0932962610439653
0,0888074703747939
0,0937329633001914
0,0920300636342534
0,0937994707456406
0,0908916279282515
0,0934351568680419
0,0896290517029966
0,0936076596844884
0,0927532178086877
0,0938054986445729
0,0915284064388294
0,0966434968691384
0,0931554969900564
0,0969553430452199
0,0928590803658351
0,0967787514391094
0,0929973651815174
0,0960891838526177
0,0936519889476658
0,0966674317618095
0,0955722822767443
0,0964041654598473
0,0944982782584807
0,0961131937863362
0,0954591365453321
0,0976716867635567
0,0948105808689709
0,0999421635053502
0,0948008159297589
0,0977795577339907
0,0956568148214281
0,0985750859088592
0,0980343222679658
0,0997892961686194
0,0969251529198721
0,0967269267367648
0,0967056599796067
0,0997608868611141
0,0995402369723887
0,099702886052754
0,098601607968379
0,101005717015026
0,0984744903333148
0,101465755130063
0,0998151438218363
0,100331370890621
0,0984925844204306
0,101855501212523
0,098743139510768
0,100898389142193
0,10032902089683
0,0995295074117481
0,100202097448066
0,103690154158809
0,0996172915275253
0,102139481214684
0,0987735414654836
0,101187202194233
0,09917431884263
0,102162583138637
0,101986293989089
0,105059502232389
0,100634732620593
0,10492131934884
0,101731363045335
0,104788051119526
0,101399039402847
0,105853111331891
0,10518351213848
0,106146401301819
0,102619328142215
0,105242494424284
0,102283355119134
0,103053197271159
0,102614676727159
0,104063855725182
0,104289356002849
0,106092431129217
0,104219576149741
0,107582003360135
0,103563370169782
0,104031666368003
0,103142072539532
0,10605008893745
0,103552835394659
0,105741051908712
0,103645492342922
0,105001962535123
0,102256065213929
0,102768917148912
0,105645934089628
0,106255420759378
0,103406360821946
0,106995389005924
0,102417140343162
0,106386999124708
0,103062295913082
0,107975978725317
0,101878125817429
0,104329487773461
0,103768224094104
0,1064509324234
0,102827069022301
0,105101062338736
0,102796013563457
0,10672292667183
0,102199520075626
0,104962614689481
0,105061538179232
0,103242036447642
0,104009224002716
0,105411200294696
0,103554620064319
0,105827363382612
0,102227145512059
0,106744177772359
0,10555478823359
0,106759552262054
0,102873587919103
0,107056681450375
0,103004614017302
0,104360119577738
0,101659485269571
0,104205170047599
0,103012152534244
0,10500490097288
0,102696401525791
0,103780740012161
0,101754266032722
0,103411148582545
0,102624066484864
0,106073666937065
0,100673630919486
0,103075227838548
0,101678496747364
0,10506618124551
0,102219978702939
0,103005382573718
0,101293185311701
0,102067426438785
0,102379716450235
0,102547105474003
0,100837694588889
0,10203153574505
0,101070678903519
0,102416433266422
0,0979368687333722
0,104279824278894
0,0965743654436428
0,100750240010808
0,10033962866127
0,100928251384417
0,0984848481532335
0,100324248298446
0,0999413675691046
0,100364122896782
0,0983604550572694
0,101251687765655
0,0933217955586949
0,0969583835748019
0,0937719528198992
0,10025868120743
0,0963154579045224
0,0990311719209432
0,097191595094616
0,0995002534839268
0,0943783079045337
0,0981689052743393
0,0964214421431137
0,0960406132073894
0,0969130767259967
0,0960042524211633
0,0930616806622098
0,0981280392668845
0,0949476212720129
0,0951891306507533
0,0942747742847284
0,0943815223317273
0,0925169244962679
0,0933475798579512
0,0906971562117157
0,0938923900544193
0,0929584323800727
0,095649536867334
0,092107089473912
0,0932083068659002
0,0923201406707976
0,0937633656732886
0,0902968956703644
0,0942540685602778
0,0919741749084648
0,0928924296346246
0,0890857529541098
0,0898894780432057
0,0902679135007827
0,0898811954634213
0,0888926482626789
0,0892074285922033
0,0880882961677006
0,0895699122588855
0,0875423157144907
0,0887954516747888
0,0870359995933119
0,0891812602972503
0,0864650365217517
0,0877275282920431
0,0861662295452342
0,0879245458297396
0,0869528283695337
0,0897827352729317
0,0859194379825711
0,0853942512878099
0,0861576150224631
0,0863756176326049
0,079659443373784
0,0879080679994274
0,0818726628694367
0,0836046505875483
0,081546705974652
0,0838395654464052
0,0808954094118675
0,0818544006850032
0,0809468500079017
0,0825059311542763
0,0806987090086151
0,0808239963043982
0,0795608757138827
0,0791623407954222
0,0795712319487749
0,0820329110923779
0,0774212433944255
0,0812537096872082
0,0763840189251159
0,0791647416690629
0,0778200067806264
0,0813935492947337
0,0757790713536487
0,0795504529401908
0,0772791464297286
0,0805076013845695
0,0733391444461221
0,0787475819944979
0,0797830732886661
0,0772007462287443
0,0754248764193206
0,075549269915529
0,0774917303424353
0,0762110429685292
0,0777150769753686
0,076037458432795
0,0738402307360313
0,0771525050125358
0,0752642677881019
0,0731645679151213
0,075582946043541
0,0757795165832478
0,0738878868989533
0,0736458414119443
0,0726593946026103
0,0736927100618603
0,0730302481580573
0,0722567625994568
0,0706126219057628
0,0713627274106164
0,0701873112823161
0,0744063424877194
0,0712879931590973
0,0711452648601909
0,0709598501576991
0,0726366077752664
0,0717608175769338
0,0675299463473034
0,0710287188963537
0,0696145914840139
0,0704890818133409
0,0690778920762707
0,0700752335533138
0,0687855723488759
0,0665468407514416
0,068918874635073
0,0677043824477157
0,069759835619898
0,0696378023835105
0,066888323367567
0,0672318458581304
0,0667514447802625
0,0666231594408419
0,0655941374967251
0,0663691317264211
0,0655125928439292
0,066775372797615
0,0637673447822557
0,0674041411105216
0,0648535166137715
0,0664395675905349
0,0728234771184388
0,0650207755360541
0,0687355705381363
0,0656268816770445
0,0655600640680558
0,063795856767365
0,066477820357916
0,0636604938121246
0,0655343663852757
0,0634587424547881
0,0638152003126243
0,0623656324728899
0,0665553667414098
0,0628530316918145
0,0635930251727841
0,0616900247661575
0,0652269995977481
0,0618317742891401
0,0677562976457083
0,0606521545450487
0,0611796504857104
0,06684671998277
0,0633965724694318
0,0621778348283507
0,0645577046892128
0,0557959874105068
0,0763025728515494
0,0590877033569138
0,0673605108529967
0,0593396839290486
0,0658230677091823
0,0579472596108128
0,065539331148237
0,0588720875837126
0,0643089501503147
0,0633572686613214
0,0620613415565476
0,0606332440966692
0,0626131303712772
0,0623603994356763
0,0632834204539552
0,0585143719169202
0,0612503587439563
0,061065698195939
0,0617684674014697
0,0586759508344631
0,0609592298971483
0,0589395819542069
0,0639094339922249
0,0566181069662854
0,0626845092478104
0,0603322207513307
0,0616125037675701
0,0587489325121675
0,0656256816923238
0,0558021593240388
0,0603123248729877
0,0661828620291794
0,0616596850117034
0,0622681490511689
0,0576603666062787
0,0603342503787376
0,0593131550781358
0,0607795909085327
0,0595139086457891
0,0596859395949822
0,0615148197481825
0,0599630438982922
0,0598703710822395
0,0599482076201185
0,0600673351094509
0,0603063263025471
0,0575325875875311
0,0598214324174558
0,0619592641366113
0,0587501869238159
0,0613568021037819
0,0547724223258914
0,0675446267197518
0,0614913110299153
0,0682298334902247
0,0624870295096165
0,0637168410674561
0,0592893808351651
0,0650610364599663
0,059285888131408
0,0628296226294159
0,0603665496529557
0,0609752162198171
0,0593471422037546
0,0623352369890259
0,0599374146469402
0,0606877247684579
0,0574214850326223
0,0606151343341443
0,0592991842323054
0,0597855550044711
0,0621586064236188
0,0606969612423097
0,0616920914682303
0,0557414394761814
0,0627387456806452
0,0597008089084557
0,0687247501503004
0,0476714044084891
0,0772956390878796
0,0643871154579204
0,0649887227722572
0,0660036233493485
0,0622427130127598
0,064541533067035
0,0613686605087715
0,0610222036729182
0,0627835031395251
0,0619368171008772
0,0638520120844953
0,0641118186450534
0,0633079537226692
0,0658497620298415
0,0553140420648687
0,0646726508930466
0,0745449513833806
0,0649842828610571
0,0703877792837881
0,0575106430539635
0,0658266112821061
0,0735757491677712
0,0618187584304962
0,0706966254188947
0,0625386349181238
0,0677175979549455
0,0627088461398443
0,0687592144132532
0,0628849665393406
0,0699498796668521
0,065922937779682
0,0680475495136201
0,0626911452449832
0,0656819582968368
0,0684686884883016
0,0634656785126379
0,0704892820591122
0,0740093093249051
0,0662582801827335
0,0728415402146242
0,0676888844617131
0,0700251870409591
0,0688983167045097
0,0725386601156337
0,0646960911875281
0,0722757045619381
0,0697391447262253
0,068450389506688
0,0745715691005984
0,0770177757185026
0,0702566006341833
0,073810352123331
0,0674954773244952
0,0848215299958866
0,060784132476803
0,0818458934846058
0,0755194264042873
0,0800345606215712
0,0828400760592979
0,0711957438359666
0,0789267659891689
0,0702931979001516
0,0774963953417077
0,069999174092402
0,0934720936264217
0,0720879119110457
0,084938615683406
0,0693776531339783
0,0849105994138518
0,0777299399762433
0,0844143804728072
0,0795829248238365
0,0835243044677351
0,0709901299320243
0,0939637220869204
0,0792807014596501
0,0759078182617652
0,0921464689998312
0,0848736750653217
0,103174673174525
0,0837112452884796
0,0855121706539098
0,0972334748353066
0,0859678944066682
0,0946696646433891
0,0839316811269116
0,0994854848350554
0,0818498293141213
0,0886751261332735
0,106875984417338
0,0925068588661632
0,0984496047870573
0,0943354171403996
0,0896707297136581
0,106609052241952
0,0996702252111353
0,100472141435086
0,0984558952516637
0,104067299871362
0,0840461430479279
0,134016650664096
0,0936570910336078
0,111774786763511
0,105211722865019
0,116015572220707
0,111770227810538
0,114721681245638
0,109729510544196
0,115740246023001
0,118333844162544
0,120593435884894
0,105106531279066
0,123435588868795
0,12578467749358
0,119132678638239
0,126805339169684
0,115311784828972
0,116922225175791
0,133393686464539
0,138432793267896
0,142933373468258
0,133012989508786
0,129612777096702
0,142479333169642
0,139866337930691
0,145002805812058
0,139891910237446
0,146342437846006
0,144043286457133
0,14505788081858
0,154466752104299
0,14921290230231
0,160781274108796
0,154731837758324
0,159221913518307
0,161877240293174
0,183174471099636
0,183718129740536
0,168303108331939
0,190672978160885
0,18081491413084
0,19339700744842
0,184796576141046
0,194483622985724
0,194372849766864
0,204084006721289
0,204583383510688
0,198403539614062
0,220316758039051
0,209672310653751
0,228471110435193
0,230390585066693
0,227933844595593
0,225686541589881
0,210601962574568
0,334488921256339
0,237093067500784
0,270653921575537
0,236394240245871
0,272273972952685
0,279428233858331
0,281723944772555
0,273860754935111
0,286287903558373
0,282409726577054
0,299929529919606
0,297658422772409
0,312335880236784
0,312831994819782
0,327708648343354
0,301263309380177
0,337470653439166
0,332307819328907
0,372241338887511
0,352649026866298
0,354831242485423
0,357944198948538
0,375898454340658
0,363270489391292
0,390305447542992
0,368829352829721
0,391527453591698
0,40844066127122
0,412146877342667
0,403009373015874
0,415060081507298
0,435113757242711
0,410635410541807
0,458600090966869
0,446784004881513
0,458188312132583
0,450876768917327
0,46655703846925
0,464508375326277
0,456652524855066
0,505380451718387
0,490018044333371
0,503870314098502
0,490862166733679
0,51173261596858
0,502679928665901
0,52361619842697
0,516253032885351
0,524506125669013
0,516043112610618
0,522016447499467
0,63202855198087
0,560190856653283
0,553296909528699
0,561461262257186
0,538679758521727
0,563085705911051
0,559397725686767
0,603906421246425
0,585074434113429
0,58669358672956
0,56743994614852
0,582127979093632
0,580627758326739
0,596914801305074
0,590295450075582
0,582437196806345
0,599783323859199
0,575524116259152
0,609848416172659
0,630996444967832
0,595962766059709
0,576244321354406
0,578442173505456
0,574459235371275
0,569227817284792
0,566347548517113
0,564968728671687
0,575507465883051
0,551412809841645
0,550266842546035
0,531103111335499
0,565273673790212
0,543842135412084
0,53106292386188
0,52037434541307
0,51706524573741
0,522020760044953
0,486610303078709
0,488051318610879
0,523853458256065
0,484228603607446
0,478128338701327
0,466965810667292
0,4657367068794
0,45119085553784
0,445064725815192
0,44247171945582
0,444645553899623
0,423482317310104
0,429091979251301
0,409701099838175
0,413019989820749
0,393707677530315
0,399165156907315
0,388924204607852
0,389338600293383
0,372670110647545
0,379056609873043
0,358105574634013
0,369216761081381
0,364447580473986
0,359331905712302
0,353246344735844
0,352943474482978
0,343996911521542
0,344283068478092
0,332699879088832
0,333211014060235
0,319635845301073
0,332125567952974
0,315718748612438
0,318666617203982
0,310788267757512
0,314659168303303
0,302263494359665
0,306648120794714
0,301042624923981
0,305940734741716
0,290021048274174
0,297266889888855
0,291369800675275
0,270363212482082
0,318007276417345
0,287850941150101
0,295280345527378
0,280292320312932
0,277500800609134
0,272380820581134
0,262100361114502
0,294738464757351
0,27228242732573
0,278928701319334
0,26922463701516
0,26184656574251
0,268584531670808
0,268590809719504
0,261902995104797
0,266279971425572
0,233018369763533
0,29868360854592
0,231501062186883
0,305975933472158
0,271987770867251
0,27521655121518
0,234245304009795
0,267381674757605
0,257119561373411
0,247863323968529
0,245888928066077
0,2339658645698
0,253424591443919
0,243300268157829
0,24074470265431
0,237978150960097
0,225412691331217
0,235764541878506
0,238152092528
0,224765640040917
0,233088120396906
0,240146553398651
0,219297346486746
0,234303674065903
0,247745972602659
0,240416412037022
0,218828124913614
0,226284919286686
0,211832346565884
0,214032737799178
0,228236362143348
0,217015100880771
0,223306114377549
0,212721174915522
0,213247364842748
0,205938622082964
0,225441027770159
0,19928974861935
0,210852574549828
0,228567293528956
0,200817384505878
0,213375991958445
0,186482519301878
0,234168418830058
0,216734117128447
0,21622521056085
0,186402990604607
0,216012906871501
0,202846553551694
0,203623784429632
0,206824362897744
0,195076894243802
0,196070866159547
0,20649374052705
0,191317911329716
0,203845366458555
0,191768705958564
0,201604895060004
0,195401961753628
0,21313137700964
0,216324560486451
0,199082818468532
0,19063012902246
0,187977684402047
0,186338182815074
0,19424210036096
0,171644511228635
0,213280984702925
0,177806653223062
0,190733832220432
0,196144983796245
0,19590622300991
0,187440745806091
0,190179550200034
0,183069341998295
0,186180569391349
0,186611616276769
0,205097355179211
0,177150649754206
0,197625073614983
0,187678262710855
0,194241142019182
0,18344612689244
0,186934958137004
0,18263192228989
0,189066554913153
0,186353629485265
0,190986945469116
0,184022361049095
0,193224154303779
0,17331157428465
0,209259830348703
0,189757143236074
0,187591888601064
0,197194430381646
0,185806711427137
0,214109922487503
0,192881379777324
0,199232793842906
0,190871367631014
0,189708052279572
0,199058138964968
0,184142682557894
0,203120349970625
0,20248925772663
0,200425723217054
0,197929751793921
0,19430433849671
0,198055776582664
0,195721199065226
0,208039915783465
0,182939312970598
0,236523575548911
0,207441165352886
0,212211668969153
0,196932720846631
0,194008748725215
0,199816151142609
0,198493567112391
0,205118922408352
0,191146759027515
0,19814874124903
0,20434929877359
0,198169473591279
0,203025719955381
0,19915926665977
0,198621191559138
0,196550258552294
0,197264334921237
0,199826861347384
0,196517890960587
0,203897320209813
0,191878925721664
0,19466494648357
0,226805844863185
0,202594440844032
0,205149349107259
0,194792406266686
0,210309789603049
0,198928560668091
0,20050161421087
0,213601703473259
0,206058796382552
0,207247414110458
0,20385282906667
0,206453618873374
0,199290086382046
0,202981480261916
0,211872904222305
0,200196435246443
0,214112083007092
0,180715987778031
0,22880730792664
0,200799072467845
0,212198515494917
0,204040034521042
0,206880973412995
0,202946503109114
0,20728529042089
0,203139000189528
0,200929238963682
0,197797390969385
0,202696110745357
0,204271065012778
0,200521719560081
0,208975913057404
0,20098478323856
0,199647867443221
0,208543150846262
0,204437232474891
0,201911642514031
0,202131457265509
0,200809228017472
0,193365000120265
0,204451104369678
0,199752274433883
0,204423251242933
0,194469604840258
0,199691825789637
0,20583340451098
0,203427129105363
0,198602404836657
0,202168900082004
0,19753534977275
0,208097400762125
0,194515786448712
0,20249930947048
0,207816038794731
0,20284734292509
0,199107370683607
0,205973228044557
0,198416927812019
0,199888740317723
0,203891509199698
0,202586249687743
0,201508511283037
0,20523119806584
0,206864491595942
0,204635227290371
0,207055498011929
0,201676692793055
0,21019315419767
0,214938209506664
0,199986627989382
0,205932758924198
0,193995557273265
0,199456935525353
0,203326324444548
0,205549383356431
0,196150760071305
0,204558461107301
0,193000045919354
0,197135830130716
0,205358701382772
0,194719947491735
0,203602972161807
0,193565095816365
0,19494769005233
0,188124603137198
0,196065957613155
0,190675074826872
0,196023955779003
0,189966970559821
0,193062439654936
0,19029972437074
0,19175093483473
0,18899550918185
0,19231593019752
0,190418150604438
0,191122782758623
0,190408322511204
0,190201259602329
0,188897886810696
0,189272823611952
0,18764476519021
0,188384482694169
0,185080078318161
0,19412931614048
0,190091506300148
0,193207676447796
0,187708209885274
0,193755621460607
0,187770731423151
0,188183778827463
0,186051467705357
0,18638634876803
0,183790590954932
0,186536627441673
0,186998931767948
0,18831068548637
0,186138410685931
0,184480081342848
0,18672043764405
0,185196115961923
0,185418346207003
0,18482459016211
0,183927546229774
0,187008111289079
0,187133824276999
0,183046598572534
0,187893992413268
0,188541896848459
0,187254688123398
0,184045442913391
0,187039388022212
0,187423611179367
0,188528444273635
0,190140706659129
0,187449545928632
0,187065671759468
0,186512338892852
0,185065146068679
0,184422917324921
0,184557984038344
0,187110754229584
0,186173889543889
0,184226059493516
0,18224515142319
0,183505138633535
0,179879986825949
0,180798373995046
0,181456306707074
0,179200561711187
0,17716376568681
0,180634177660187
0,17816640636214
0,180283636998367
0,178163777971344
0,181545564773692
0,178879508329118
0,179357905851992
0,176694656318878
0,179681313018333
0,177223032245529
0,178311337066159
0,177264161185952
0,17834257927016
0,179094829950251
0,179335199263007
0,178579097486446
0,177446425888004
0,176444446409281
0,177418042075917
0,178484006673112
0,179285394857774
0,179622723939322
0,17683029729875
0,179098331841666
0,178895366935086
0,178620817129594
0,180737105061657
0,180595368142983
0,178274395858105
0,182484389529793
0,179981306542334
0,183436548414197
0,181475523528027
0,179511045045842
0,180683853194425
0,181791385862795
0,18069350308803
0,181560888145937
0,182174948807459
0,178796570600986
0,18054198588531
0,183325190455798
0,182373980429189
0,180380925563589
0,179034005928339
0,180693763877227
0,182116333452637
0,182367681001586
0,179997938197844
0,180727665967457
0,180298550895325
0,178183840679386
0,177480175903138
0,179061257073345
0,178007978138795
0,177064531733103
0,178651006440714
0,179171175223876
0,176955256866964
0,177322459921882
0,178203778826341
0,177294643859328
0,174159434598642
0,175766659622073
0,174993750250747
0,174622890994563
0,175519878617145
0,174971475906314
0,175411445436254
0,176379184810329
0,174000380085161
0,17339708867649
0,172108524754357
0,171725426877215
0,175205550927438
0,173867807043932
0,174588019785034
0,1760804274082
0,174661227400847
0,17506195961484
0,174413056568133
0,173725711425122
0,174513439634788
0,173460900883369
0,171277225904995
0,170365042176324
0,173410448271458
0,171955584713058
0,169954834804862
0,17060975072221
0,170398932081596
0,169384294365424
0,167753642184046
0,168942424722156
0,168828307482983
0,167385119495995
0,166364173221711
0,167346849040584
0,166362608663387
0,166165634061275
0,167283429784703
0,169244683303213
0,165429109738208
0,166771986304362
0,166183101680138
0,16779135782568
0,166469801678951
0,16697516427397
0,165939992354759
0,164545871169647
0,165406990603423
0,164554867853768
0,162017755476253
0,165248079079336
0,16333218919496
0,162175981472106
0,162956012390417
0,164667994774429
0,162688199755974
0,164958763957591
0,165769456482801
0,166259227985136
0,166543260499977
0,168132315458219
0,167011723739152
0,168259937018315
0,171356454148099
0,171323328359693
0,174755699445707
0,174144525316172
0,179983878091827
0,180025332524776
0,182232230147724
0,187279550442668
0,185808988640916
0,188641436608797
0,192116339054211
0,194799741929097
0,196970223749425
0,201616741362413
0,201575368016242
0,204011639662323
0,206020321914462
0,206174796023697
0,208962046305414
0,210184185775051
0,210481993509482
0,211432026940964
0,211473639036411
0,213507976842706
0,210915565131317
0,212071035860707
0,210542460828338
0,211332221510075
0,208680612968718
0,207007171181398
0,20867308313336
0,205865886620129
0,204910346366209
0,204843482342686
0,204518474103586
0,204254232435625
0,198561945824204
0,201459045385807
0,20289218287975
0,203841290316629
0,202805659378189
0,205475660933984
0,205625271617913
0,208096702027041
0,206552673248682
0,208570599544756
0,211531256628306
0,213568109100759
0,214451530826294
0,216789659612595
0,216172835348126
0,220607500392863
0,223632600339148
0,222717836629053
0,225672342650503
0,226656850167542
0,231754152820169
0,233417738721714
0,237534745211037
0,241004388550644
0,246502734452275
0,248115424231068
0,250758896381872
0,249978554861878
0,253593230157136
0,251838388523543
0,251053191367317
0,254729457687087
0,250236467301554
0,248757789827842
0,247847791361543
0,246240473059576
0,24090607681805
0,240837828522814
0,239580562126385
0,239544410550412
0,233849264068673
0,236593490316103
0,237966348428477
0,2402852685851
0,24276937828025
0,247199315687142
0,24873705254008
0,256144790353412
0,256104673673872
0,261433210147636
0,262159117591753
0,269863311470791
0,274144534366401
0,276944561548995
0,279479771425718
0,283625085223763
0,282858923778923
0,287081378494289
0,28968493146374
0,290947073737054
0,294856628147135
0,295287506907963
0,299696716650358
0,305017384381082
0,307210998371676
0,308923529303742
0,317479529631764
0,32007053234927
0,327784812513634
0,329087769351589
0,335053387957981
0,342008019400255
0,340413612025308
0,345070243170444
0,347401015015892
0,351462230852281
0,351091301311626
0,350537998750714
0,35438886006793
0,354177715123187
0,353624995895198
0,352260236399013
0,348627598253691
0,346214140202249
0,338376141978727
0,332471590930117
0,333590278537999
0,324588182909976
0,320724845206566
0,317611566369723
0,315950579039923
0,312658737189014
0,313428530834464
0,310642007255237
0,309478913649052
0,304324044835072
0,308590864083433
0,307557208422326
0,307934173373397
0,308091115429236
0,309550693356844
0,314676864018839
0,315247695796861
0,317387952042233
0,316276659412473
0,319162853237061
0,319272627719577
0,31798459179763
0,322001515288118
0,317695786262737
0,321234436881929
0,323597146099874
0,321663745664979
0,317915358571076
0,322732188595355
0,315266767553731
0,318143719360271
0,309502888607099
0,308980600253013
0,310508057545237
0,304915235016186
0,299163725970132
0,301428774076761
0,295600844026655
0,293432479861902
0,293144399482858
0,287879185245933
0,280467900690563
0,280073848901899
0,268850865322856
0,273555610812659
0,267748602157296
0,263265154833305
0,258864539769607
0,252297685907474
0,250152744685903
0,24856007526749
0,238925875022581
0,230253109254858
0,222944591757367
0,218247275936107
0,209604120909872
0,202349159544745
0,196054538942571
0,189279276627839
0,185386670141099
0,177572211411977
0,172102414689222
0,169811398504598
0,170291683502293
0,168839857509335
0,162011935782859
0,166182960459618
0,169394065699568
0,163954451507118
0,166743659152964
0,170742281626344
0,16634260486127
0,167286781164188
0,172362971648984
0,17434819399696
0,175381403289203
0,174248993699462
0,176708936653216
0,17427773030069
0,17233575232323
0,17467195827244
0,177917434659354
0,173831829227909
0,17564066560888
0,176604957873796
0,176960973504951
0,177413855267856
0,177644403631565
0,17912551936331
0,17591051653001
0,183308887930711
0,180260565864882
0,180438522798056
0,181497786612975
0,183754567728816
0,180661008127437
0,183287187642262
0,187457644460601
0,185242711882906
0,181058648871371
0,184707792932279
0,186132949934464
0,189870433970132
0,189154845168603
0,190576683747956
0,191903589133173
0,189572600888299
0,189313568000622
0,191283426598415
0,191737307338415
0,194562725764999
0,194200748710847
0,195403824772988
0,195529798079708
0,201596009022875
0,200442774792273
0,20100643379967
0,201374714847679
0,2047839907831
0,203885944472361
0,20479196481188
0,202952378519689
0,209926374342713
0,208125477107263
0,212598328737391
0,21104519146638
0,215705828193335
0,213004984763191
0,215415942876926
0,213126861043762
0,217648307942932
0,212717058003629
0,216967339997474
0,21683464519208
0,212047468551131
0,216409571375661
0,219266974614606
0,220902016469064
0,221580070038894
0,2223184023866
0,225397670674815
0,224872134816594
0,224556349870169
0,224846898355932
0,228465783132907
0,228794553374295
0,230828890896396
0,234598971576223
0,23326041184272
0,235317305663202
0,24162259092059
0,245812476953062
0,247138975225138
0,248409643794137
0,241727596285008
0,24941179298452
0,253535428021684
0,248785104202029
0,264609479154838
0,253240448953782
0,265754319894487
0,265260649001723
0,264356584038756
0,267062059469237
0,266765957240469
0,272129866357681
0,269960082032631
0,273760032175893
0,280040295598821
0,277062929755309
0,28307392422125
0,288219966163127
0,29227042419283
0,293796596830783
0,299018082098574
0,299103568977544
0,300089298276431
0,301720972119318
0,310575080878805
0,309088717674271
0,315628853278681
0,322464626039536
0,324649006014272
0,316895696214647
0,329275204887164
0,324304226208314
0,329636193716585
0,333151495743428
0,336825619773886
0,332655085082179
0,338768118179593
0,340111051166856
0,344115093721268
0,351412859196889
0,349770453993842
0,354175236273968
0,355898518231301
0,354781929009125
0,357875217448958
0,35993284078889
0,358440900800505
0,364952418389247
0,378150218698072
0,370243410305112
0,375382466212436
0,374166195660095
0,379944187078328
0,381689787710742
0,376763324136293
0,381598149708945
0,382402821581392
0,387941180717225
0,384527531534724
0,389238704413182
0,391974206256864
0,40222412708232
0,4004941581531
0,406412843409224
0,399507359149625
0,404445297434151
0,409932110910164
0,410091215272074
0,415284157608587
0,412579045695492
0,421096341416412
0,428336736090764
0,421962895076202
0,429936798029724
0,433398798781509
0,441146997816202
0,429267639787062
0,437171156139731
0,442178897683215
0,440504899645708
0,458013821227293
0,452268294864752
0,466535425741601
0,457613530542326
0,465092986802841
0,452433689739254
0,473290128866891
0,479456960974378
0,46205359624242
0,463236182729646
0,488986143206039
0,47372217351209
0,493570192860965
0,477865128077159
0,495977157163439
0,484928666906022
0,516417103332363
0,503630609440566
0,498046243822167
0,518553661056408
0,509736915149613
0,512947656536474
0,520484336692603
0,532329144484176
0,537526408053582
0,525714392890379
0,547930186773574
0,532421779435352
0,532329124233819
0,532455383975095
0,552773597842157
0,563266648188206
0,555661916139312
0,557266594333812
0,563523684391132
0,567258716398663
0,57704803295349
0,556268344655792
0,579960263852651
0,565145048575417
0,57169403843668
0,59444687102147
0,605627281306942
0,572744003110681
0,604435601077511
0,592892253337607
0,595910850899084
0,594065287565136
0,624418590867869
0,601757056908909
0,611785806502067
0,599342976734857
0,614832481046737
0,612763919044678
0,618908262806513
0,643611269605238
0,624567299011797
0,631619970235742
0,660432789013873
0,639537399601053
0,627396632580296
0,66602888629024
0,675387074442263
0,618964009367304
0,675759462450228
0,657879031017397
0,658221144358127
0,656306051656829
0,689528761151399
0,682929166753128
0,706036347147751
0,693071024848244
0,745506997704071
0,712697975235053
0,713393195083752
0,731313212730026
0,730925528711824
0,697525345818364
0,739638057582586
0,690248630361959
0,753210412077585
0,693778171909806
0,759084817584571
0,678129376024633
0,672881264283412
0,727978932963251
0,760674032354953
0,718317013769847
0,79573016440386
0,757884056160877
0,801818023730445
0,729819452676511
0,736542436763873
0,740203404085392
0,741554947988384
0,760520496035857
0,803129191856673
0,723803588420593
0,731175232174298
0,752146999446879
0,737642181571523
0,759332579342486
0,808233634382479
0,785663645294994
0,783676367248567
0,770023475504389
0,830110420324893
0,707575071917041
0,802287535556079
0,80480783162318
0,789118261021769
0,817152595556023
0,876283358147758
0,766650462042275
0,826500083540591
0,804850981701647
0,841817200193575
0,829565091006406
0,83561196940418
0,832253511551671
0,940863714999635
0,815460005750637
0,947989545680778
0,87953689951836
0,87051464059399
0,768117320156105
0,933345995844637
0,894719962997685
0,981134278952553
0,913941933833816
0,879699742464971
0,832682583440749
0,99051441114588
0,903725266370234
0,89552199827569
0,857916550463491
1,00498315256923
0,986732231443024
0,873798547542411
0,82932429161517
1,05890373004008
0,877443596221169
1,00691899746419
0,919070525969918
0,940064730046944
0,813798773545564
1,19467906334575
0,812074863000718
1,09629002882636
0,803501901692257
0,968302907859561
0,932999955143011
1,10152427179725
1,04924075973158
0,968882716745275
0,760721002314283
1,01536424257722
1,16971616167733
0,871676313895263
0,909384651634904
0,848538056421176
1,17036350532178
1,10420651596806
0,760571459887368
0,891142156053827
0,767186716087324
1,09334414590499
0,992617929937112
0,941750107287347
0,958525844259464
1,18825481516833
0,89851863005948
0,940260954913373
1,12568740158059
1,19616309032164
0,790264262281545
1,19098548448097
0,858298421411732
1,06658416664234
0,929522206472817
5
1,21335358369703
1,07170711856279
0,951809360712479
1,10815558889794
0,977903934164113
0,873162054585873
1,03031621361167
1,57410475128812
0,645478729108904
0,748006772097339
1,07630166542569
0,994664282595743
0,320336863069972
1,58216187565744
1,79727586579991
1,01138014932387
0,882971857199831
1,36022936242263
1,69866419981895
0,916570443038874
0,560506303693357
1,41917381538514
5
0,728283587861775
0,607700660856816
0,731935770296498
1,10148024438803
5
0,914791848732376
5
0,554286503276073
5
