3596
4000,36533379555
650,420452594757
1
2
2
0,0414525892714652
0,0392642956723161
0,0435404709861659
0,035192203126004
0,0453118784112887
0,0406429914148134
0,0457112517974208
0,031736124185804
0,0390919665318192
0,0368806221537632
0,0392780285565969
0,0318380677823515
0,0409951456348141
0,0310532635194735
0,0458705093478901
0,0353522663431809
0,0334278431696109
0,0358200252473353
0,0385705955511437
0,0254554321922947
0,0323282369483707
0,0286150776220778
0,0401430244479426
0,0364582653955201
0,0370310120048779
0,0302783558832298
0,0422959607315829
0,0284565643546048
0,0401517209383945
0,0377771830528803
0,0449857444061027
0,0368092817818111
0,0351092158872339
0,0383998199429725
0,0395481272492435
0,0294856639805397
0,0394676740847809
0,0332074013819279
0,0400247382689102
0,0354446100593849
0,0424093174522867
0,0402639353977316
0,0339876903499576
0,0262098378005299
0,0468423997007416
0,0385615285925396
0,0433120399582995
0,0296473775455642
0,0355251059084246
0,0364743380225115
0,0487609420662366
0,0378604003681044
0,0428436584509497
0,0347725663467354
0,0403969772313796
0,0413018111031885
0,0490255110479067
0,0345856752208851
0,0403459142098343
0,0318474539688245
0,0420697504827951
0,0447276253680068
0,0407272962335088
0,0344110012291507
0,037632671671854
0,0401143413072407
0,0407645252894644
0,0345994004163282
0,0391706277137482
0,0370558970001924
0,0323734354185614
0,0379613844590419
0,047352139685231
0,0349931786627133
0,0505416597111146
0,0355345144446118
0,0398312637974579
0,0355667782247876
0,0384067529262978
0,0298345230805529
0,0452295892973435
0,0349280008978578
0,0408052554938171
0,028625373629075
0,0398992158028745
0,0451123797464101
0,0360424592671021
0,0258471562975912
0,0569805602858515
0,0415976620201349
0,0364456060338585
0,024665799625565
0,0419865579452679
0,0364016129131665
0,0376923810088388
0,0300403677184113
0,0307982368839593
0,031633467503216
0,0402430309677129
0,0316857244844099
0,0338983480105848
0,0198233800753615
0,067128174284981
0,032388870890479
0,064317022118451
0,0444320306459636
0,0211638348546145
0,0560349142086624
0,0585283723806607
0,0445372794910512
0,037258779565557
0,0347396034845197
0,0420315081815874
0,0331973492511906
0,0227698184569572
0,0388736110313694
0,0690524333539366
0,0399996047448766
0,0429235295966326
0,0377866674003707
0,0237484188031409
0,0295247807569519
0,0723803020734524
0,0325984041892375
0,0479924046109975
0,037907377693753
0,027444041377222
0,0402300696715434
0,0717487082965636
0,0338196606593803
0,0355549159459636
0,0345947076987182
0,035034595171257
0,0116136052285079
0,0594370066405344
0,047815533494023
0,0426873187824287
0,0147309171628017
0,0381071860773514
0,0684365665519522
0,0508613023424394
0,0336680732888554
0,0235385863554865
0,0134487522429726
0,0750477657662761
0,0538323767100762
0,0300184492839301
0,0374513347756396
0,0534294783965336
0,0298214686981968
0,0390362086867278
0,0294272145568503
0,0443193257764075
0,0394168017855402
-0,00877707277755007
0,0336053202117791
0,0892719361948645
0,013046107484376
0,0927584851449189
0,0465744524775912
0,0499265496031268
0,0407863436734202
0,0435482551592596
0,0323131588789054
0,0430212879301258
0,0273625338243698
0,0414832331692802
0,0611150174883398
0,0402765316579081
0,0236139389490824
0,0581068826082201
0,042819557845149
0,0185471441726354
0,0656186708228065
0,0570978107907498
0,0210369211535487
0,0633374454340981
0,0482618376965107
0,0307777529140307
0,0300710311452826
0,0685425863087716
0,0433410123899896
0,0389778872575061
0,0285227734891608
0,0450690223728602
0,0443182570406267
0,0516517403828608
0,0397400450175053
0,0460655149254154
0,0078252449903472
0,0403872679295387
0,0660620772539693
0,0632811977893366
0,0377808643869577
0,0472353906696857
0,00562133964397994
0,0542927313080057
0,0716749836873523
0,0455090070118485
0,0368506372959253
0,0442519112453401
0,0405107860591229
0,0415296843515114
0,0377292862251797
0,035080679281052
0,000143759176715918
0,062711340713727
0,0571397224996574
0,0453774020980365
0,0324993402185578
0,0373604355745649
0,019151870557818
0,0735162393753692
0,0659363437950689
0,0442151088077366
0,0405602172457463
0,0255556916881461
0,0420078334125912
0,0686494419241271
0,0449719659893762
0,0412251183108431
0,0338258841601692
0,0377997470209194
0,0391510552809966
0,0458044162521602
0,0405423552904683
0,0452097445324931
0,0422734186308781
0,0468862637245407
0,0335510263305218
0,0478707891877666
0,0408299445574233
0,0404235662340285
0,0441822457161195
0,0381881676307642
0,0364826574339561
0,0640006909314962
0,0480107518557336
0,051666170292916
0,0392769050829976
0,047924795754007
0,0396971349341005
0,0453717434677333
0,0407126578462127
0,038852262194464
0,0226894369354607
0,0697155809066324
0,0505164952883448
0,0511952471621
0,0369353422535584
0,0502719021179835
0,0542462473338762
0,0417959769881173
0,0407378000903359
0,0523882830948805
0,0336032692813288
0,0358272389693196
0,0598955935118402
0,0545704789421932
0,0346101417983844
0,0571587937957989
0,0578014799977738
0,0477627944316671
0,0322318226968095
0,0130489877860783
0,0916043697266407
0,0534179904472778
0,00561456483401256
0,103135184024033
0,0660063599491935
0,0593406281572371
0,0439762557089058
0,00396202058469456
0,0835449355066252
0,0949540099965966
0,0497989721263116
0,0542497039979198
0,0624241604377883
0,0534782008852059
0,0494485856126258
0,0486616016966504
0,0394433285590804
0,0549453200970748
0,0713035919406018
0,103549827821565
0,0283239362576297
0,0607674830007645
0,0778475975216142
0,0601456075544688
0,0559431826808489
0,0525629423294057
0,0426349078250084
0,0648073332973983
0,0684733145036297
0,0665514048806327
0,0589484420282527
0,0521532247618774
0,0720493297544429
0,0728873850856792
0,0535160362974619
0,0624133389479994
0,0662904728811278
0,0627191932555231
0,0609172254996547
0,0608214252070574
0,0673241514424112
0,0586429025911538
0,0415107433156937
0,103086921361642
0,0763922452762288
0,0613471907667368
0,0832576812016597
0,0748763747552152
0,0690568610481361
0,072892265796606
0,066079491247792
0,0711081692533118
0,0639780101396343
0,0631004225487536
0,0924449489528239
0,0895425618205164
0,0720719608351934
0,0824234707114599
0,0769790349406887
0,0857198963485843
0,0865139514131926
0,0888752657619546
0,0869501607933934
0,092931910694014
0,0721546917641289
0,102851299179575
0,10840059994049
0,0771973330276959
0,106371653115732
0,138043675384791
0,108544762330232
0,108666043674213
0,100172024925458
0,109208326258482
0,101981687088392
0,115632534097405
0,115107016346491
0,118844406208819
0,129704324007686
0,138565848031796
0,115400655225964
0,118067233574962
0,150973785215706
0,186843006473049
0,152954021255842
0,146768504616876
0,122933829381373
0,158795946453667
0,1832574124
0,176432868193962
0,183661943161537
0,169970416973885
0,175815135018425
0,178653884317901
0,172325565937694
0,180663932637683
0,183438561055421
0,184497858010138
0,186417950390625
0,200166561011816
0,208459553282771
0,20180727400213
0,19965882514849
0,246277007547128
0,224426960959309
0,216564609436087
0,220878245500898
0,21345842474482
0,22015422180463
0,249994222484874
0,262984454757334
0,272269904695876
0,239887389708142
0,284226273816656
0,258324362541699
0,266846507937668
0,25297235584187
0,267391648336851
0,272241627705356
0,27498718588039
0,27876261622841
0,284464273125103
0,280159053949236
0,290324801919755
0,287776013216428
0,308424533937442
0,288960712785384
0,320001938689165
0,315144039433233
0,313209413747938
0,297382393069671
0,313191363652706
0,348549062285712
0,383849116652925
0,327893568932124
0,338802406498701
0,339293236495696
0,333263042487043
0,341202949675377
0,340219870942597
0,342582039865574
0,349414035558725
0,367197147795415
0,384242688203121
0,365906909327245
0,387028659804401
0,347830688072515
0,387777048463828
0,388863442950406
0,382400813316246
0,392283770622258
0,40129000921673
0,374907537676376
0,41144170196609
0,416931532764879
0,419454606418204
0,424564926005431
0,41806962341648
0,409865826059163
0,420900878323565
0,426343668057384
0,449874714921983
0,429327798633206
0,444799446288723
0,438599317090591
0,441775592881681
0,443557155859283
0,459084548457938
0,462975953617453
0,466426769506077
0,450702087709117
0,476021005154165
0,473478210783281
0,495239998677014
0,456974427476018
0,498137875965807
0,489054745683288
0,486959918784444
0,498585883705582
0,495157642109479
0,474300595211876
0,505816081823961
0,500649541598364
0,520955903016951
0,507543723326644
0,525802643989027
0,528649543097317
0,52517052958097
0,521329104131869
0,531778127848103
0,524128398923394
0,537221637143623
0,52168492152465
0,552920148470944
0,537214188774964
0,568816969336996
0,559673451501095
0,57439686096987
0,578721325482108
0,588927991870623
0,594313131318802
0,574038074001473
0,552990948572681
0,612423926783726
0,600128512959682
0,606628123158441
0,603412180385234
0,61611446920279
0,592793233416522
0,607725676161407
0,606666611654114
0,626106854626679
0,607692888851032
0,637315441796988
0,62656166196743
0,663611786141164
0,663151103336789
0,676488706855068
0,635918970067993
0,653276499184522
0,652513115495101
0,672850991963768
0,654152350056467
0,669124230385927
0,666576210832808
0,687767337390574
0,660040277275879
0,68916205716303
0,69968394861747
0,7112025656623
0,676345745169021
0,738716468467979
0,735721029542438
0,755345455375994
0,75616311517483
0,729925151305055
0,698008473668493
0,735904801492433
0,72657277213479
0,756251522553433
0,746866307325448
0,77301781907823
0,742827191852841
0,790284391617828
0,73162188241646
0,777507173149735
0,754840138124977
0,792386815833453
0,748770536778427
0,775944819916814
0,792124286252906
0,782719938836927
0,762897966459658
0,825409419511475
0,770363122696106
0,831931686255695
0,805726531907829
0,814935244457397
0,826991977062751
0,871137807307341
0,830973012716651
0,87368526509842
0,83607420511581
0,842318816160221
0,841391549949271
0,868429896030621
0,811453461978006
0,900066602154834
0,85487721098049
0,900930452926595
0,90303030931426
0,911840983548741
0,909732804238083
0,906889769499654
0,910908239205395
0,924094440192819
0,873424367274093
0,945923023143114
0,902507993494787
0,928821398043693
0,948848231918758
1,02490294089363
0,937495317958155
0,950570187621723
0,880679845449227
0,947364923125671
0,935184132623699
0,977095282370561
0,925556516582508
0,971097258901589
0,886591768925019
0,952624673870088
0,942126461632455
0,992924500520555
0,9714661246598
0,988054328723507
0,930484143186267
1,10230967489707
1,07667375978942
0,976981803123012
0,968677692112511
1,01525549890217
0,929819502801299
1,05970661067312
1,10445361713327
1,11678440580719
0,965463210650646
1,08589228100872
0,994246855077795
1,05191268327392
1,04722093164385
1,12252184794869
1,08466595718086
1,10400081920318
1,09884322433586
1,22009236820828
1,0788340327118
1,19384400428501
1,14867579822521
1,18291897780228
1,02865358558625
1,07645524459936
1,12051899532365
1,1267504065106
1,06624114331724
1,18409104768294
1,0741421274729
1,13847031725443
1,13364726454316
1,13147479939346
1,10297464778316
1,18660381356685
1,13497170539781
1,20084506623981
1,17475494675791
1,18251147386793
1,15075167158963
1,2132595148803
1,14064611865025
1,17326138862397
1,14218781814732
1,20772479593869
1,14115373411359
1,3602786143729
1,17597909126972
1,17780570303136
1,16634881946384
1,16751359620632
1,184424087041
1,27358246959238
1,19146688723377
1,3075633662309
1,33377618566239
1,25891048261891
1,25503194339851
1,23504825590575
1,23707789388496
1,38928169117043
1,14084525628888
1,29757442475719
1,17248768968375
1,18859233288167
1,27431328995146
1,34032765863038
1,31507003208721
1,37685576338974
1,27477471363986
1,31469549450765
1,26079064938785
1,35376521738124
1,29252683026079
1,49259230212276
1,27029498972655
1,36620708824964
1,32655078308028
1,28442909122331
1,24499764810577
1,38960536187111
1,30098117226989
1,34643522803833
1,25789330036304
1,44742668187671
1,36076693600502
1,30824369124741
1,24802003741165
1,42641243658672
1,37085192405577
1,32300897143277
1,44702175635069
1,48043246124015
1,34671505377986
1,41797737547605
1,35643132116631
1,47773187340688
1,3821178942629
1,40734453032679
1,32058565820937
1,50912528005683
1,41121170440437
1,56079760390499
1,38570453324574
1,41550152714392
1,40808696720055
1,46548475379985
1,30045552654585
1,42151484240563
1,48021736204574
1,63403906928587
1,42637902111797
1,48365834325189
1,45437415522096
1,508638914902
1,38583796326254
1,60673502188159
1,53337007050128
1,59226022697494
1,36107649003506
1,56502009887471
1,40560513856603
1,4175008509176
1,48238558612489
1,46351538368607
1,3423495945341
1,5578109603454
1,38631181290175
1,39595557445348
1,43498845746311
1,49970310717798
1,33153512051198
1,43900231407686
1,40842291250175
1,36007986849471
1,60205838921824
1,5171075559011
1,32220958654985
1,37980636889124
1,35657713544
1,5134095894713
1,45676846583312
1,54963400509569
1,52934424590689
1,43813411296953
1,37234658424538
1,48927816502497
1,31010104806135
1,40880865695944
1,4563636087529
1,54167149570312
1,4685623485165
1,46261305760465
1,4208451416867
1,41871463032427
1,4967333274476
1,61238086824644
1,39865188467578
1,41355840905397
1,35584236922986
1,56484548705306
1,49152086104651
1,42871758519383
1,44128632500533
1,44019844811053
1,37281201230984
1,58434526825859
1,42535217161458
1,54238342194757
1,45211545860568
1,35796959411664
1,28605537258466
1,39019435752083
1,45342485597051
1,63104365978549
1,31094940539799
1,33246909238694
1,39411254618084
1,49774440725734
1,39471612838468
1,61052229976514
1,45478527897132
1,574541786856
1,38223982283529
1,52091533500205
1,47011555407267
1,4022030285458
1,47857641772493
1,46092385269639
1,46547251891164
1,50461008475252
1,4566226830415
1,64227541407851
1,40781685255214
1,56867423650929
1,47316886163782
1,29984779285565
1,3628516515733
1,47207494817207
1,41842176395648
1,68629502618597
1,50691960592179
1,43427793396221
1,40438182343055
1,60272960218094
1,45354145337856
1,56104916951568
1,28512809548975
1,45060210338582
1,42827978967758
1,46826369078183
1,42798022349302
1,61366225505093
1,40009330329384
1,55038259243728
1,45541918081268
1,44920457191428
1,35971620038169
1,45049732460857
1,42130285849348
1,53032184615179
1,41869392481146
1,53203671987564
1,51359708391911
1,72620951274495
1,47739776109012
1,56093113478661
1,48807937421305
1,4202213541866
1,35330311461436
1,42960436317727
1,32662576255627
1,54917753743323
1,36442147332138
1,50816993088545
1,46372785446311
1,45902808091428
1,42592512344896
1,44303744557831
1,36862885988661
1,48002589788298
1,42402217928752
1,48002094280367
1,41884387779624
1,37073407923573
1,38212078823343
1,50710687788579
1,38347781707504
1,48959953717925
1,4639813219199
1,45418070719593
1,46046594055824
1,49117338412016
1,41144723020667
1,48455387646445
1,40121936481081
1,46478862315266
1,40895545748711
1,41235959608675
1,33038330313926
1,41580818183157
1,31688133045116
1,36702023767124
1,36433926278667
1,41155492643886
1,34117949615778
1,41698221830982
1,37605098963579
1,53004153230254
1,39419660761552
1,36607765961664
1,38390789638851
1,4320731195275
1,35432274426273
1,49061116464745
1,37750611112704
1,46598351067153
1,36148204184292
1,40281178572558
1,39438277116849
1,450979353549
1,32065266427028
1,3764777388755
1,34491342742845
1,38389296007861
1,33196648185497
1,37140742077323
1,38389885597346
1,33762323039438
1,28629187182592
1,30838843048593
1,27489261905893
1,35586804564672
1,2653020025204
1,31292030266842
1,27799272671564
1,35501929269156
1,31369217869114
1,38561074852553
1,27359129505922
1,37030803629754
1,27320172917585
1,32943407569043
1,26847233935381
1,34138987888975
1,34036503617057
1,22868578956742
1,18907125653243
1,26790893106626
1,21409909929355
1,2346490172374
1,22874154646102
1,31893112857646
1,20650361836482
1,23993701806081
1,25043409364728
1,20523333760076
1,21547166429711
1,22020576882333
1,19920904465276
1,22826111154781
1,18267377983807
1,21352943356704
1,13874985911787
1,20776742092742
1,12296545426159
1,15696233656043
1,14894555039143
1,14155635472681
1,12258235688625
1,13678650210672
1,11945758195109
1,16916903223952
1,09580233659299
1,13821485415188
1,10622421305403
1,12517198972072
1,09515174521871
1,11573878575866
1,07320683144679
1,11149835131603
1,06471479361106
1,07849214138104
1,05924642451068
1,06738203224946
1,03312929626982
1,06907874935022
1,00606973292694
1,0130314479711
1,02888282872152
1,03890458557581
0,998244990099559
1,06621831138287
1,00089055501948
1,01106652724511
1,01666809708181
0,990645442799592
0,964448369690428
0,990402689644828
0,981491002974471
0,975012435509652
0,956587116065823
0,980537132038377
0,923493596128611
0,971574355402367
0,913699935450457
0,942022979870264
0,90773981724082
0,928192946323668
0,900395089074295
0,910681417709155
0,90293807735492
0,912756966701058
0,921841906504015
0,92410780741464
0,873768979283976
0,899549355870749
0,864714418851765
0,84906152145391
0,868530296846908
0,862621654320668
0,818555323695003
0,834189932703832
0,836079591095439
0,836337918704833
0,805445413299058
0,835231261592386
0,826397062394601
0,827896144270449
0,80124981203161
0,822245306509497
0,793820882799764
0,8062200527644
0,773302204666179
0,801316738639122
0,75806798272804
0,775347399784977
0,774996284789578
0,764441302742446
0,752186074168782
0,752864421541876
0,743256611057324
0,757866890469475
0,718809833229812
0,73627245021299
0,719835710486674
0,742528106940711
0,717522043035286
0,718102931896682
0,693457071435809
0,707331953266753
0,680912683718901
0,686482624588018
0,690551936320842
0,708352456008025
0,669751099437946
0,672990067715445
0,674435735841457
0,680837851534865
0,651100015691773
0,660352205350592
0,650136476552184
0,65577646679708
0,625839017421612
0,642966629134241
0,632888296592589
0,630243847114999
0,627331768905835
0,63262330474994
0,615052878193879
0,620339430654097
0,609296691155273
0,608068048522727
0,601962054132944
0,595354350706489
0,589274603881109
0,593022493111795
0,582049701706153
0,576925695155366
0,559632141959823
0,569072271662811
0,559141857888325
0,572119329038576
0,546323843896444
0,549354700242149
0,551266675517608
0,55809411816009
0,531975035701681
0,542560559185749
0,533516038483708
0,538877370119665
0,521476661879167
0,521064589526434
0,525420589505471
0,52087687176073
0,506013714254544
0,51024449309239
0,502054557563152
0,506380099151213
0,49624257282409
0,491881174646378
0,493015778740931
0,500101510713778
0,480276567380471
0,478668001873834
0,470005609566666
0,485804200140072
0,475795580281843
0,472834423313718
0,460150993325695
0,463601546542696
0,447046818810567
0,449759980434094
0,448247663421874
0,454824458784632
0,435614376602663
0,448330842806393
0,436846794520484
0,438905466583505
0,42840387670965
0,435515627513399
0,422466286990169
0,424963230156081
0,411879497637414
0,418946657962315
0,412316150370772
0,410627684856786
0,400363373731378
0,403136368325731
0,393058774650731
0,398790850756324
0,395274510558177
0,391016018385414
0,381078195138848
0,389342210234814
0,383871619400718
0,379714985271506
0,372157102563522
0,373954321632361
0,366161605665772
0,375345192987383
0,361261951516527
0,360597877441596
0,35835790910618
0,359898826515797
0,349109501314637
0,358548064881319
0,350472266136731
0,349588783398888
0,343588806419404
0,341718109688125
0,343042486105123
0,343943826257759
0,330548799071908
0,342023891999977
0,335044081289317
0,336185270117926
0,327215379468406
0,324539461172021
0,326660288920545
0,327617498813454
0,317584463298533
0,317860818243404
0,310825631391037
0,311717498169204
0,308949309022542
0,309581484410002
0,301112762316028
0,309328737844566
0,301907940449807
0,300283952993749
0,293078594618635
0,297332421210998
0,294527260012741
0,292685660457604
0,284897253277383
0,290041393728683
0,286513919772697
0,290683422808638
0,281049667229539
0,285352277690714
0,276755654853207
0,277865048325376
0,274892538662802
0,279162660878155
0,27283379763685
0,267986826689944
0,26944208945354
0,270418907574496
0,262836378822656
0,263554419969223
0,259736862601439
0,265121448926504
0,254199710799762
0,256735649891743
0,249724438664993
0,25442634865035
0,247294163315148
0,253502168450196
0,245631565672931
0,246726355664051
0,250689707697669
0,248472543687056
0,240358390142699
0,246526835022586
0,23956821162864
0,245939852075136
0,238376076113921
0,245929528237614
0,232713787180059
0,235900635210969
0,234641950926974
0,233162708184444
0,23283964876
0,235520521255837
0,226544248193388
0,231428672723835
0,225818507174076
0,224681987358982
0,222365763003765
0,222252453953343
0,215007510949388
0,219478061480258
0,216146164815728
0,216295911882201
0,209392848197616
0,21470014822699
0,210831672525703
0,215022120687316
0,206533344559843
0,211186712339039
0,203513877022546
0,204804148457584
0,196773283365145
0,201129290729635
0,201463295918287
0,198952905939537
0,194716162608848
0,195994449908773
0,191771877176936
0,196983822411873
0,190127068499484
0,187186175667963
0,187944020031105
0,194229739875668
0,184157622241601
0,191219599440758
0,187211100582021
0,19150661625446
0,18508843787595
0,1862450329429
0,181924611393397
0,186713782604509
0,182113277666548
0,182901119914747
0,182795110510354
0,18152311960164
0,177873292299256
0,181939433312597
0,170574218275606
0,175379981930352
0,173913426906213
0,177306044449655
0,175965975024934
0,171844323000253
0,170292721752711
0,176308636656693
0,169140288752348
0,16977884080691
0,166093938978026
0,172263491630618
0,168678133438099
0,169054107589275
0,166277214871243
0,167113118487004
0,163092414373399
0,165418688405591
0,159673014962465
0,162263612180503
0,159377909576832
0,164821696256693
0,156512454861324
0,156951977853767
0,155448588758333
0,161106095574048
0,153642431869032
0,155670530113256
0,156112874206064
0,157644316395888
0,149259064026328
0,153852093983882
0,152914194574085
0,151857373465189
0,148202299607737
0,147394360848388
0,145451196216475
0,146917005510188
0,147259089763522
0,145638273119239
0,141630005975339
0,143978116646465
0,138917276739131
0,14183986837257
0,138812552103294
0,13867225504228
0,133954147293118
0,136746573356089
0,132652797887332
0,135784779478145
0,131878413935905
0,132754710826925
0,129135322339609
0,135272682937222
0,12998439817259
0,13156824195951
0,127282528553759
0,130533275781646
0,127618555115464
0,127272691431738
0,123242067929649
0,128642508415673
0,121785424749366
0,125662752083873
0,122377104641992
0,122477839231229
0,117556912746888
0,122137609672315
0,119098967445111
0,120574920010985
0,117066828534002
0,120645250529303
0,114915854840432
0,119086881081255
0,116777567009297
0,120184599962857
0,116648005302165
0,115211238841747
0,112561245711777
0,11550308251691
0,112171580610087
0,111975505872238
0,110515734694557
0,112168543755917
0,111647340163665
0,113718538044478
0,110741532676974
0,110581764783281
0,102660321025421
0,11138587220337
0,107805209450071
0,105784965703133
0,103736716764728
0,105178177369687
0,104018847727793
0,109657553875575
0,101718941280948
0,103626618327699
0,10252334456544
0,10682382379373
0,100069874508016
0,100492970279254
0,100873857852631
0,10417706388411
0,100154427570423
0,102867968314012
0,0972695455173755
0,0995793333037753
0,0973054983260999
0,0998076024440192
0,0941848782247523
0,0965747360674448
0,0970368515750318
0,0976963711378557
0,0950180186676664
0,097327475545166
0,0922175631134925
0,0963709924868853
0,0919482587731844
0,093581852876164
0,0926963947783745
0,0961353756397545
0,0926742335314459
0,0907723760030326
0,0889378377527227
0,0903206854059914
0,0888913571452854
0,0927727288819143
0,0912834920082486
0,091206347547822
0,0878789704532804
0,0929895335487345
0,0884328807874832
0,0937484166654489
0,0879666766877393
0,0871299454229336
0,0849265750424623
0,0863457322568373
0,0832687736521527
0,0884942411379823
0,0855091943722305
0,0856343280149349
0,0898948971465534
0,0896256790251241
0,0849532707606659
0,0883873203666065
0,0807203694032509
0,0829209466722424
0,0850819259941694
0,0866748859719925
0,0817396063641004
0,0864237999382253
0,0810958481419754
0,0819206015866228
0,0795970548061057
0,0811292190144721
0,0837007394458652
0,0861509478435399
0,0809796969727027
0,080828966864725
0,077454651986132
0,080635974426223
0,0802437357290684
0,0825838078810842
0,0789972212198843
0,0784531688337495
0,0774652881816024
0,0794378961232625
0,0753151516138664
0,0823070131349062
0,0749392231695121
0,0773705122551934
0,0739990461054591
0,0756895863263364
0,0747778521412496
0,0775987091271743
0,076464676776545
0,0747388303692328
0,0736900148736082
0,076792266728097
0,0723340612717967
0,0741426240157567
0,074134352303163
0,0758213862733402
0,0750624966973445
0,0796055565591364
0,0727364247518524
0,0771852123184833
0,0759196047165447
0,0761091059640934
0,072786376596163
0,0745397189475132
0,0714767623101178
0,076813900269434
0,0716603304159865
0,0752311979229511
0,0737107463013428
0,0727622580838329
0,0692969619312482
0,0706905069702017
0,0693165412692709
0,0730619854743855
0,0731141370173701
0,0754069155533666
0,0709106613508796
0,0741517783369223
0,068632131713204
0,0721370052531855
0,0708335167526954
0,0720458937185741
0,069633501015429
0,0717106961756412
0,0707603709572677
0,0715074279451633
0,0674068252237819
0,0710250630996432
0,0695723101585313
0,0703057875632053
0,0671057602350107
0,06814197899913
0,0668897976997783
0,0694063408796154
0,0654939596822139
0,0683407815021127
0,063887253713201
0,0674850817045939
0,062830900149056
0,0678270947828958
0,06728103158906
0,0681796596414045
0,0664151201989742
0,0663991085536956
0,0654242800367317
0,0658704344742415
0,0618005066520527
0,0654575824484951
0,0631914846118409
0,064617642475398
0,0635944532088438
0,0650224759442079
0,0633243323535008
0,0649583323466298
0,0610253196405018
0,0669234072144891
0,0630263510614553
0,064075644187226
0,0642042635146093
0,0686872623889732
0,0637483398166278
0,0648805006227196
0,0628352626103448
0,0637556190166004
0,0618670299648794
0,06318012412176
0,0603479582236236
0,0629422669606892
0,0613002603229636
0,0634547306173099
0,0631993783392841
0,0629848373472987
0,0620152557318714
0,0645842599605801
0,0635684572171904
0,0599838472562884
0,0591566113967181
0,0621221702742068
0,0614682768808326
0,0606549019629414
0,0577458871216224
0,0638977735152125
0,0587248110404837
0,0614954921762331
0,0627199613993774
0,0626194922867216
0,0598010333977905
0,0599865931520996
0,0585466243320493
0,0603595092498795
0,0580222593316171
0,0610945975436959
0,0585954637831404
0,0600463696624108
0,0562919340862021
0,0580300246157164
0,0560646578542428
0,0599647495609346
0,0584642622577934
0,0607085896310867
0,0581362137789698
0,0584200946265535
0,0557386218919693
0,0601507142298937
0,0581504124111576
0,0580008623988255
0,0561993972160132
0,0580444801816307
0,058096317798338
0,0580273449275943
0,0555999079277175
0,0589926925775882
0,0559169814959152
0,0616672174288953
0,0560960791794236
0,0577938093906122
0,0556186824451454
0,0569209191764825
0,0558316407186993
0,0599719319634156
0,0575533783358471
0,0587431519839401
0,0565418701959109
0,056936671710995
0,0572747731449956
0,0619947252874564
0,0585435130904122
0,0596427651025749
0,0556267182717673
0,0572211711249379
0,055706816162242
0,0592957614815562
0,0571408354789849
0,0596637896073192
0,0573805733244581
0,0582487745874368
0,0563644805092784
0,0611780503390511
0,0571915209987247
0,0568538413275859
0,0569150525663769
0,056166413691484
0,0541940092729207
0,060029745399358
0,0554352052598734
0,0593658021992834
0,0579280627868052
0,0569871989111349
0,0558762118534014
0,0572441406103641
0,055297605655457
0,0575093883536647
0,0548332958131164
0,0552347241529635
0,0534477367185762
0,0563271784828972
0,0561675955479093
0,059609540230423
0,0553524290449817
0,0553083984838368
0,0539996601814109
0,054666306330466
0,056445414221209
0,0578552724371028
0,0562660929680873
0,0590371344210015
0,0563438603317524
0,0568902267313271
0,056252568130935
0,0568276232288274
0,055014641599948
0,0584598823531811
0,0560272302701781
0,0594646874787411
0,0580524167638846
0,0593192994263742
0,0542166282241648
0,0569695949710972
0,0555300351484617
0,0565971184699652
0,0578401494699911
0,0571964527977057
0,0540102344550617
0,0613251032798262
0,0586651144048351
0,0598210566676955
0,0571482832881357
0,0593762206718487
0,0562959879199895
0,0581001105355503
0,0563853971476562
0,0591161397333735
0,0585975418510014
0,0593035150730143
0,0577476853042339
0,0608699790779001
0,0603025622053033
0,0605843136022182
0,0586818566599387
0,0586433369751975
0,058439642541291
0,058372465937655
0,0587147501701888
0,0591534527897911
0,0552315157075465
0,0600754067431358
0,0556633035627208
0,0598400478784432
0,0585575819383319
0,0583679371145456
0,0589564971746495
0,0599999238762052
0,0580547180784709
0,0603561270281887
0,057617320363288
0,059823232182683
0,0569824502603495
0,0593849219005495
0,0564029007517033
0,0583736168269947
0,0564215412187762
0,0591552517949603
0,0584628619201913
0,0579573758373697
0,0578181666010817
0,0586677704577621
0,0549444432731227
0,0625617832482247
0,0611780701882736
0,0595629474939636
0,0591516365351954
0,060824894209717
0,0585183579794883
0,0607698129823631
0,0588717421104715
0,0626430416636044
0,0581675871760148
0,0607260324108386
0,0605788219759499
0,0625858006988604
0,0598449693994356
0,0616385465290268
0,0607235426866336
0,0595349651905342
0,0585657617741151
0,0631666168966587
0,0578892038592384
0,0598393062531459
0,0596625235741833
0,062003420766346
0,0598521490318101
0,0627424085900346
0,0615057448506495
0,0619476483765657
0,0597669135648444
0,0625490448925872
0,0610897835197673
0,0644414427426941
0,0601091539635937
0,0622155731336946
0,061920550666681
0,0636085963560077
0,0625370847664596
0,0626566619657132
0,0631851264312431
0,0645921796715874
0,0613591137875951
0,0642037141793394
0,0592379751600555
0,0609052828819407
0,0615848608274449
0,0645915591877845
0,0619508365048306
0,061751250150615
0,0585625769856164
0,0631678609992799
0,0597197145216142
0,0624544352806075
0,0607844639929038
0,0636401707217588
0,0625155074486883
0,0659479990678249
0,0596514243163038
0,0604489705468219
0,0612768865563113
0,0627887389081247
0,0607112427209299
0,0635608034348168
0,0621731847587677
0,0631029276471252
0,0641308348369495
0,0641328705866969
0,0621900453978576
0,0637773287596867
0,0634200779148586
0,0635316728184313
0,0602681508909264
0,0637672095695776
0,0634256315401946
0,0641344844925357
0,062612836181369
0,066112719929027
0,0636483202002466
0,0646158353527228
0,0633453103446695
0,0657497046084234
0,0662787514202635
0,0655222665990035
0,0649154413079069
0,0667048648359189
0,0637430843223127
0,0666550204544347
0,0640572673509457
0,0656030620626469
0,0664268493188988
0,0661076444100194
0,0678460434350201
0,0684410777409833
0,0625830600535257
0,0680971561742621
0,0664270836805384
0,0682190291290168
0,0666501678631227
0,0664439194671507
0,0657223597188648
0,070052027588012
0,0668442859894606
0,0700289044523831
0,0668099489031925
0,0651854888190044
0,0672070213903694
0,0697093217813818
0,0659969920987766
0,0680964993150072
0,0680688258566883
0,0668129981945159
0,0663692102856247
0,0703617574656628
0,0654644346999339
0,0674393620958053
0,0675727252563605
0,0667282743910455
0,0662469276838666
0,0694719133352342
0,0657952116306406
0,0674596855919978
0,0689809765007263
0,0702553487265342
0,0670506217131588
0,0699593326541863
0,0671333205395184
0,0708964179608046
0,0693772960058906
0,0734361987063781
0,0694866139144392
0,0700319018305931
0,067973947488547
0,0729337091581948
0,0703316573677524
0,0747317051217836
0,0695411170757607
0,0698468969665347
0,0685945142783629
0,0719344181367638
0,0701031051728461
0,0740221393618769
0,0693493446830063
0,0736267211317915
0,0695878479075858
0,073255790870831
0,0710428185060617
0,0707865755638123
0,0721137581370812
0,0762638627349294
0,0722253362359392
0,0763369766602902
0,0709571431663016
0,0734592059340515
0,0662140116648261
0,069936812752876
0,0654248759630979
0,0794082675032138
0,0779606956616258
0,0835564199061509
0,0709800582876243
0,0664554079277712
0,0719375081338721
0,0833882305266202
0,0671075448157606
0,0766055826943376
0,0750309717374015
0,0785552737514584
0,0713537159145809
0,0763533772214825
0,0723771185724022
0,0772302733410475
0,0745704082851691
0,0809281237842148
0,0727135308817935
0,0824014173722133
0,0761816577563534
0,0807829137536599
0,0689415347412251
0,0771195015098145
0,0725157523903145
0,0802151633318083
0,0774338661750043
0,0811328910379941
0,0769584842697984
0,0831183492460305
0,0769463266962474
0,0832310324977152
0,0735551190758492
0,0800993625255309
0,0743033393387543
0,0762364458625783
0,0729154907017811
0,0763503296430116
0,0773847715529918
0,0805264112035697
0,0887222063613327
0,0764998751644701
0,085277841191481
0,0695110326407367
0,0824745398290357
0,0742311510105717
0,100876449241149
0,0675946815134207
0,0944218600227956
0,0614227236010545
0,111806840799966
0,0651810157203916
0,103188907568454
0,0620233510860351
0,11469163282027
0,0631254625911681
0,100810604186822
0,0659153408774492
0,101288474849864
0,0710376647889873
0,0939957369484001
0,0803152328290827
0,0869888447933173
0,086174679637813
0,0861159083653655
0,0867690703847536
0,0823384560509175
0,0894051720479991
0,0858319239335508
0,0860104950800735
0,0846487959604913
0,0858188664501219
0,0914823905728399
0,0840608403373674
0,087007448438664
0,0830579059398808
0,0871253494961587
0,0891788680560151
0,0874385491600333
0,083432940420825
0,0863729221105482
0,0874606965816234
0,0883903964812603
0,0866475405324056
0,0880830740875484
0,0879448069269953
0,0910339516638626
0,0867101482123168
0,0878116894757468
0,0884454906976049
0,0894776641131223
0,087333078283136
0,0889297645074174
0,085665020564534
0,0892403618164479
0,0904049604686278
0,0888526376110537
0,0891287103248091
0,0916041891125034
0,0906122163686201
0,0939446061175169
0,0903339181448158
0,0929242063208538
0,0904338489302521
0,0907641008188614
0,0946022492752842
0,0924597768997326
0,0940134443391542
0,0934213467709873
0,0927883266585447
0,0930204760201585
0,0945261485826804
0,0935973695655919
0,0935448833473101
0,0931798639313901
0,0941136772455048
0,0950393725645429
0,0929860607285614
0,0940696962699479
0,0943412404475858
0,0972381183405168
0,0964045283433056
0,0957910100248023
0,0966965160430222
0,0962444083339812
0,0959538678401695
0,0962662932323532
0,095831381366518
0,0957105161113133
0,096545459253058
0,0997312829861123
0,099192413870688
0,0972241322196583
0,0977919993379379
0,0982435745918219
0,0994356213066634
0,0997684879438359
0,0977751595852284
0,0965294629181196
0,0973005651526397
0,0980287700978345
0,0997120553322286
0,0988002967561092
0,0997983509014287
0,0991216068383388
0,101671171495949
0,0998333615289545
0,0997182118942724
0,103080499076797
0,0995537062472127
0,0998819570380527
0,101481613059326
0,0999829547398878
0,103212332863809
0,102635011008159
0,102865051738631
0,102890107605033
0,105185829990255
0,103160974442906
0,103891984567174
0,103754174469604
0,103655693026472
0,105469577664879
0,105401363266838
0,10475665588087
0,104749565352211
0,107280553646959
0,107022099925118
0,104852077968026
0,107120852394401
0,1035873525765
0,108452598829884
0,107164317923706
0,106548539402939
0,105922829197865
0,107783510414028
0,106836270252569
0,10988149456261
0,107004971852635
0,107537614493829
0,107289231016704
0,108509520192032
0,11058470653459
0,109978207019575
0,109568057169537
0,110477798386309
0,109668984936821
0,109491101700244
0,11201610273533
0,111480452805272
0,112630384679957
0,111369270761815
0,109839328744763
0,10999306416588
0,111252304371444
0,111996957875619
0,109934225708391
0,111836920697438
0,112735152089887
0,111899984275148
0,113223472968944
0,114179468659434
0,111085784640428
0,114552517420776
0,11211959718514
0,113367259978756
0,113425240091649
0,113847305375693
0,115033260593319
0,114653514061806
0,112220049479065
0,115492806297358
0,116651950420658
0,117176542999348
0,114285496520032
0,114224231598091
0,116735728297383
0,116785774402892
0,115140433246857
0,116670035821219
0,11506685270728
0,116048423047689
0,11609344091743
0,119487745510667
0,118014730745076
0,118332029862261
0,116666439160574
0,118165065601305
0,116849184480593
0,118707616743982
0,116915833494323
0,11885907404737
0,118515122760856
0,119668591190063
0,118568354787012
0,11770938074193
0,116883939208501
0,11939889980416
0,119189625349339
0,11857092848061
0,119827285774099
0,119839068617248
0,119388940016255
0,119527186753074
0,119889881975779
0,117536667281828
0,118238693793697
0,120086418995837
0,119194645040433
0,120689790406871
0,120268087008322
0,120002401323774
0,117380181900154
0,119188973453028
0,121467161015515
0,121879084186139
0,117321929395293
0,117756337095088
0,120037286842716
0,122053236457809
0,117893823134376
0,121874940651231
0,118571291161303
0,119451215553942
0,117176349684049
0,11941973090677
0,118763473860496
0,119328068288224
0,119884365531685
0,120888498340866
0,120447760973563
0,119150654456315
0,119764368912691
0,119615846186675
0,117715086356091
0,120482590697851
0,118549469376781
0,119491856908705
0,120677043596909
0,120101584247478
0,118492841442003
0,12197146247139
0,119485544923537
0,118787818255593
0,116610374197619
0,121895593308994
0,117944695890094
0,118677921642348
0,121881055952367
0,119543509042107
0,118336580718483
0,118859112247656
0,116927009163774
0,11987151083779
0,117312679294986
0,118782577410003
0,118395142886429
0,118073354456823
0,116679803545323
0,120437435424252
0,120313734226005
0,118797197686018
0,118232072667271
0,117942480300237
0,116089312689348
0,118953670184722
0,117987397833883
0,11676416265449
0,115939276741803
0,116816964734912
0,115583593643188
0,11571082250977
0,114360996155159
0,116473996545134
0,115756826980682
0,114853757461198
0,115035180670937
0,114116565273796
0,114277214638841
0,115701038052505
0,114843323333313
0,113700983214316
0,11037481520166
0,112053184483399
0,110537351830584
0,114768415597375
0,112214788247415
0,114076404781021
0,112898728742729
0,112479706344211
0,113131451738573
0,11138403680819
0,112613632954611
0,11300241366247
0,112557266928444
0,109549443831958
0,109627817968431
0,113573501700773
0,11104214754922
0,113313577922689
0,109682386084076
0,110118325350802
0,109486460637748
0,108256343251244
0,10938003329224
0,111005360206041
0,1095989033174
0,11070409851221
0,108429283328881
0,108469980299972
0,107161132328786
0,108540550142105
0,106928657882741
0,108076536012407
0,108553709257888
0,108408655152125
0,104572357981795
0,106684237953487
0,105048073042912
0,104697675402948
0,103869729354604
0,104383993664497
0,103020259633446
0,103480287992396
0,102595374568227
0,104288122832008
0,103129371474702
0,10480877097787
0,103236256548749
0,103553202437993
0,102581195210379
0,101747541830908
0,103469548590783
0,104165285309139
0,102782504872117
0,0987826560774866
0,101189349444147
0,100225580492965
0,0997964062812376
0,102822254155217
0,0991970092089528
0,10079502498262
0,0967187936867859
0,0985721651567997
0,0964776422800428
0,0991673195085632
0,0979582405484426
0,097968867156356
0,0949771442076831
0,0976962327349955
0,0937689647786338
0,0953383926516471
0,0946581832583553
0,097778681303809
0,0937141755433347
0,0947821414533388
0,093058578683309
0,0939362918254004
0,0919880555201399
0,0948591257921396
0,0934188630539452
0,0954794799896041
0,0918504187578499
0,0944159437599632
0,0891946988770841
0,100268902815646
0,0969565382039979
0,0956130890518818
0,0924861296229958
0,0926861409887231
0,090472169126636
0,0905192691413126
0,0916775724854134
0,0911675280867338
0,0873026353979841
0,0915458904536727
0,0901360243086458
0,0892753510672833
0,0907883454171993
0,0898107186499306
0,0894085403857028
0,0912234948613527
0,0884148909279255
0,0890887900919999
0,0867959516589357
0,086656262986679
0,0877235806099861
0,0877065219892881
0,0874253055178741
0,0874592364461579
0,0845143451979349
0,0862360702334668
0,086909792586913
0,0876408172214427
0,087314536134974
0,0836414507442578
0,0844073760765158
0,0825881633216574
0,08604545048477
0,0842948785645512
0,0835794528884706
0,0839807482047192
0,0826003985866574
0,0823462957607542
0,0815300964978582
0,082196330957661
0,0831773207754479
0,0819291139737783
0,0817984030222753
0,0815806766646513
0,0815137050348485
0,079779117586621
0,0807296656824833
0,0798092246441282
0,0816003771383787
0,0794012203231049
0,0836266067620833
0,0767467266161246
0,084872491372385
0,0825726644426234
0,0831197795117365
0,0793783239708584
0,0801035470064561
0,0783913727681485
0,0802473028530104
0,078624332988282
0,0802076620651254
0,0802321241546532
0,0793087257101078
0,0778147647324118
0,0762602544552644
0,0785908501981406
0,079189079299904
0,07745834596118
0,076531590652804
0,0779851332313877
0,0757511443011007
0,0799161271108624
0,0755168821379208
0,0772222973785373
0,0848392090915969
0,0787691834224062
0,0774425034313056
0,0743230923770837
0,0728137390941727
0,0877285228829871
0,0772702383198238
0,0803583928573949
0,0717964042500022
0,0787767457531957
0,0731813261223268
0,0795649418612948
0,0694487282815894
0,0789623964272962
0,0726342563467685
0,0775351353305174
0,0738575898605225
0,0781194757828701
0,0724991548378964
0,0737764430296208
0,0719559242785032
0,0733013490040461
0,0740457264592815
0,0762496024331207
0,0705058145570898
0,0741347842903391
0,071524875630207
0,076525623149149
0,070126517711397
0,0772166343337635
0,0751762398067762
0,076163436980924
0,0695696312991588
0,0794008046361127
0,0668808502411316
0,0786932292345401
0,0778212834893951
0,076351827198323
0,0727590884749332
0,0730234302800042
0,0707133026557166
0,072356740873561
0,074591676228583
0,076296629967816
0,0696503764746398
0,0730318886808661
0,0714715001903877
0,071412191308879
0,0708704699836189
0,0723955784368586
0,0735520539651436
0,0715857359353273
0,0728778135588613
0,0708837298021948
0,0723854697434266
0,0728940344275958
0,0680610625769154
0,0856535497108454
0,0758036860944784
0,0844759236210385
0,0731016722191814
0,0774444301947698
0,0708809421715567
0,0788910329670466
0,0685098905708112
0,0736489483038159
0,0708676460152818
0,0745545825969954
0,0691046959111861
0,0749252063882651
0,0679444648021583
0,0748138846681171
0,0682577887956559
0,0750630644250587
0,0674505056454979
0,0723808392461198
0,0711409457369503
0,0724910137410423
0,0700559612180909
0,0713489522129154
0,07505899675628
0,0772552534761127
0,079099161754759
0,0632976086520025
0,0902833685754221
0,076467811479262
0,0861308768399342
0,0711833010738382
0,077875399179798
0,0724416710797863
0,0750447919691292
0,0705765580095959
0,0733337913736979
0,0742301165347754
0,0745758996564701
0,0706433853235323
0,0772320995907816
0,0750251980071686
0,0665109843850372
0,078254176734042
0,0892261405008744
0,0784790542251616
0,0793001356756596
0,0663713147855258
0,0812089951994282
0,0848092423043507
0,0793763716175681
0,0790764066131018
0,0743385183475813
0,0774772186588836
0,0741002895026339
0,0780793326283873
0,0742072548557139
0,0841932882992974
0,0755561461003926
0,0808147176482708
0,0717008781881194
0,0753181936775099
0,0775746105429559
0,0743794047281524
0,0797627918570424
0,0857088732825259
0,0769540343358684
0,0826626333633526
0,0797609415655269
0,0795393085963787
0,077929817802709
0,0841540039746806
0,0750902280473346
0,0856747158031173
0,0831261544726655
0,0825309394058739
0,0871308465303528
0,0870201210541387
0,0823636324511584
0,0843219257688005
0,0831224334745511
0,0956946365915035
0,0680934451084283
0,0974841604230779
0,0795904786434714
0,105803919178354
0,0865206139262226
0,0900384147842742
0,0852157687559679
0,0914383627177464
0,0828385747904441
0,0857833465169548
0,0995181602699441
0,0881978641567991
0,0931775795226392
0,0810897719549394
0,0980617202689626
0,088022123551815
0,0981206015467006
0,0899672175069911
0,0959064230597015
0,0837146804851214
0,107331506721614
0,087766231303776
0,0916282854459677
0,102627346121392
0,0992835586268811
0,11729430352577
0,0935761854121977
0,099037253891389
0,103367474623738
0,107084874227481
0,105207009992277
0,0954772634528661
0,109430433873088
0,094613572579526
0,106606404594689
0,122549152797802
0,108742584141324
0,113126619556431
0,103347134326519
0,10887894810579
0,120138533436034
0,114918669026734
0,110953879537092
0,112428721207726
0,114821009558364
0,101560548494097
0,14527227473971
0,112183533330273
0,129446910300716
0,115356058275086
0,1354426275779
0,121573863299401
0,131516788965737
0,118698365910366
0,13540317767515
0,13178587362838
0,135027528774104
0,112809619411225
0,142666400756894
0,133731288088524
0,141861929624181
0,135222989214946
0,131457790559197
0,126726648996817
0,152150646988873
0,163297436217151
0,165306685909239
0,146492984703721
0,149136025753218
0,156467327656444
0,154862917500325
0,154460728095488
0,152956862960906
0,161993321268499
0,160085769866117
0,162137029133739
0,172958280866512
0,165856698927002
0,181127214322158
0,168047627124562
0,180619012438351
0,171062004436358
0,21440742924055
0,196979243560686
0,197073041616084
0,19781585547338
0,204558638958163
0,214663462730933
0,208304025772596
0,208467699359509
0,213670391448566
0,226248599947691
0,22347134585142
0,217838514896807
0,241415259032706
0,227970139431004
0,2638418259163
0,246231415732265
0,2629186825507
0,236525976787481
0,250566401230425
0,347258111477516
0,284338036212082
0,289749770668934
0,25725127147347
0,302220600736517
0,307318121960404
0,318525277778535
0,298529585514642
0,311120375870554
0,303531269210976
0,320947379911679
0,32447707502504
0,341197882825404
0,341511640569717
0,346213443295794
0,333878282289935
0,365245519242694
0,378488987002435
0,415546628280176
0,378243306743368
0,383290745117528
0,383364269709058
0,409020135138975
0,390948237327631
0,42131666563065
0,385808011057221
0,436471207067703
0,441383532708903
0,454257906176333
0,427949432536398
0,45447353128051
0,456183288368962
0,463920847222951
0,493190427018678
0,487185915551443
0,496682208916858
0,481644507993594
0,500442316152899
0,495825467043044
0,496894815815392
0,527847374052701
0,536008835739689
0,534432397640345
0,522346125779511
0,539489145969404
0,540259550336224
0,558163225974289
0,551326581524665
0,563562576650538
0,569885210167925
0,578338379771976
0,677932952043129
0,606921088150733
0,612742763507535
0,584053906901248
0,593748811605587
0,62256647818867
0,594813450440315
0,648881475621207
0,625659189218608
0,63059493662396
0,61134872046117
0,634983798407845
0,619540601791375
0,640381662372782
0,628708345978233
0,625364928153783
0,65054903189843
0,624675143834602
0,664329240385825
0,670576540360795
0,628959034782696
0,62371533962983
0,628011261986525
0,618630357894599
0,633879974646464
0,609708538541057
0,627445550765702
0,617701635151148
0,60834006220877
0,605020122390329
0,59266132105786
0,618419233089112
0,594585095765909
0,585359879019248
0,576322762080311
0,563424051139365
0,551900628167256
0,527111940519091
0,57738310179383
0,564331018814702
0,535018068310501
0,530664761164708
0,514664393928275
0,508910787825579
0,497477720710935
0,488281421811148
0,495227951473033
0,480470940268746
0,473857802828346
0,471281913158476
0,458476935004766
0,448288375977305
0,441862098656565
0,444972473954374
0,428614693054525
0,431404421423694
0,419512318543973
0,416752498122398
0,408056116917167
0,409032508092029
0,401285130808042
0,38652524535091
0,387122823306673
0,382030419541682
0,371608997550312
0,370935109540846
0,362638538838579
0,363676065061494
0,361359648576324
0,354233095218623
0,349220021890757
0,348300519483556
0,338303399016412
0,341069682702538
0,32956823123049
0,332897073969005
0,327213878300614
0,331346548254643
0,315710840930186
0,326248397273178
0,309589083771542
0,307452577148417
0,355618083912501
0,319892273997563
0,31871568383393
0,293709594178864
0,310272488702613
0,294419636966758
0,288183520241064
0,311214208216609
0,30711948702132
0,301900657985
0,287025912888037
0,279595419376082
0,29812270449994
0,287703386342465
0,29093417890668
0,28049121807005
0,263956803092191
0,307214838158779
0,274916919029185
0,341413858497316
0,310853507115722
0,302027450829934
0,2476900455248
0,292070307776648
0,276263551979711
0,276892585453583
0,255421043238249
0,258439383824415
0,268394231319961
0,262241593827744
0,265550137569256
0,255616400414534
0,247699137131561
0,261916107702249
0,265865630139049
0,247506466502195
0,259936073964794
0,256651204634959
0,250264578446533
0,259376609501177
0,293288604349541
0,270384525495761
0,243541290369566
0,243013430472709
0,22789851898507
0,244676774235014
0,246413470058978
0,249272145674692
0,248175073194434
0,231038819697473
0,236578655393964
0,224219177771753
0,25492439298047
0,219793735388839
0,245647780840689
0,242104858822353
0,232293036806025
0,229424225426206
0,220775039356882
0,25599885846121
0,250665671586164
0,240427569111555
0,211788344540134
0,248537364157811
0,230298485160195
0,240214678726839
0,227576216231261
0,212173437225824
0,225646723262842
0,230207440392301
0,215527879272472
0,231397633781576
0,217179450232502
0,234190849912408
0,220469889752197
0,246155838993144
0,243570271105253
0,222818427372193
0,217072928251873
0,208661562631848
0,217795665489498
0,214485156678569
0,198235884639974
0,240604547726282
0,201578978805548
0,220893617574188
0,213369954361357
0,219351200112093
0,207765842132772
0,210119786100535
0,202251576879919
0,210207552736726
0,216723089532934
0,24017957651867
0,199408462299682
0,222290680569051
0,20700622095637
0,217936050043638
0,197603484983966
0,210657214508068
0,197585551699874
0,206293557487034
0,205354531951024
0,212741122978132
0,202827436960337
0,215257046520187
0,187981821172378
0,235743136304291
0,201414198103314
0,213361574117301
0,201663376238138
0,218598819704937
0,229274799357143
0,216720274891714
0,216439510368548
0,203349407409467
0,208665063554254
0,212753636136404
0,19730705870614
0,221640170975599
0,21263049025721
0,21902917274524
0,202165738034137
0,210093118832757
0,204062203894617
0,20356701836971
0,218579564423906
0,203178358928059
0,251093578022946
0,221831631456848
0,228532473005291
0,206817230428113
0,205100851723685
0,206720536681611
0,208168660456017
0,209291340054285
0,196574763286174
0,211877028749913
0,210967875971605
0,209839724780444
0,211058759665266
0,20503394434887
0,205059623077708
0,203687416476288
0,207009519361917
0,209835972963042
0,200659082222414
0,218835953864919
0,193418395738582
0,212355836778126
0,238184537788363
0,218638783879327
0,213439384952387
0,199689387471026
0,218601105386951
0,204063005501749
0,206870821445164
0,217623216018962
0,215917665497777
0,212913630146823
0,205004591433039
0,210374583171279
0,198674868462998
0,214168294744104
0,211214052319172
0,212539263210849
0,214249217146212
0,187119316776249
0,239813909432628
0,215560362699676
0,230859835382374
0,205905003247691
0,220871544786432
0,206650848001347
0,210589840793797
0,202167580465979
0,210396589252578
0,203268705302888
0,209663899294361
0,207965010146986
0,20629420066853
0,211497582803774
0,204192728232727
0,20883744438654
0,213516913821184
0,207979649031665
0,20482558705648
0,207504332022317
0,20501909093434
0,200444509741351
0,212581265683623
0,207234369654878
0,213353490723947
0,196395993117233
0,208253619487723
0,217634066489561
0,212977081959874
0,205225537057906
0,202944700546915
0,200641105521916
0,211195733419051
0,191602388283577
0,207137114149829
0,210084777567552
0,215481033238689
0,198238634657248
0,212173646094992
0,204658769923739
0,207694383111644
0,202965568035995
0,209452816879319
0,203721363378636
0,210677925765518
0,211746855266994
0,206860521080057
0,207780450379359
0,204660482054387
0,21493892632624
0,216604477616068
0,207137782959836
0,211306472812466
0,197735587945126
0,21053454123097
0,207949817911614
0,210958240958505
0,199688856869165
0,209113315703907
0,19465443644601
0,211468326071311
0,21053800547722
0,207402144303135
0,208855605622131
0,200877163911621
0,203083174875181
0,196039759461891
0,200761746795028
0,197853176265407
0,204287857435249
0,199895264251128
0,198768533979518
0,197106889300645
0,198140048407523
0,195008870941138
0,198118991503612
0,199627893882109
0,19683186015778
0,199209841442057
0,197209668267135
0,198328803027599
0,195547637257106
0,199195074761452
0,194408649181477
0,196282199863369
0,200624753484792
0,198254429552493
0,205127826284462
0,194715519662373
0,204266932078663
0,197304798348856
0,198969741209721
0,192810019851768
0,197301818445018
0,19043863455872
0,195287107943747
0,192886673842421
0,197577063143902
0,195103199489923
0,197687585116869
0,19489595712553
0,195508202455405
0,194922521832152
0,19540298646772
0,192229721986277
0,194821806049262
0,193635789954209
0,194567544681685
0,197799593519065
0,197021288058281
0,200051326423815
0,196220882241373
0,20111484267781
0,198568927787765
0,197921659671815
0,199942415709302
0,194706127456155
0,198839843891158
0,195994566259588
0,197251201326415
0,196979479617183
0,193589842930044
0,194395111660635
0,193128901204369
0,19630801747737
0,19123364352719
0,194500360648196
0,19136059488786
0,192848637152245
0,19127160799632
0,189986927005278
0,190109052602756
0,193727637493354
0,18958214695563
0,193751682147815
0,190225180843268
0,19226764910715
0,191613330877337
0,18919747352113
0,188917881455328
0,191757598843277
0,188873148439531
0,19159567703633
0,191017241879758
0,190804273904438
0,191396083167656
0,188765104180779
0,191290658590638
0,190522245217914
0,187255359133737
0,190525855745171
0,190038046971273
0,188971642425088
0,190652314171086
0,1897778944016
0,19106844520331
0,192236480642799
0,191520005201752
0,192526753507891
0,191871164302286
0,191220616147667
0,193785511101041
0,191938018404178
0,190508076208895
0,190976832744719
0,19173809448775
0,194222871465449
0,193073610491421
0,193704849381376
0,191544881264237
0,192257639228198
0,1923706804219
0,189783126178975
0,190573327637417
0,190591259485777
0,192036084976802
0,193357549845172
0,191016105265297
0,192674774386621
0,192156472113735
0,191865036663673
0,190356336673058
0,190812539759762
0,190345286315574
0,190385765621594
0,192140974338686
0,190677474156193
0,190608739194823
0,19063812968184
0,189493451791027
0,188249955284727
0,191070822869269
0,190553724466591
0,18980512214272
0,186236125993265
0,188038454899202
0,189383448087864
0,188156881139723
0,189326584998969
0,187677474942124
0,187435880484036
0,188867303503304
0,188659519007262
0,187540067591737
0,185444209532909
0,186992265556801
0,189487186078532
0,188172892090387
0,188888093011306
0,189157138776656
0,185478951872882
0,188912974613678
0,188255082152492
0,188102386535387
0,186993032351355
0,186316956339053
0,185540086338974
0,185773956232394
0,187251753352219
0,186274810742092
0,185058658754436
0,183359696058467
0,184450542407991
0,185012410386707
0,183022346716226
0,184431751257252
0,183643052630959
0,183119616548414
0,182297791249682
0,181377638111976
0,181772388322228
0,18191027721179
0,182915944142158
0,182475832021224
0,182872926098302
0,181104175327784
0,181395018859388
0,183305759670743
0,181770918150491
0,180978814674863
0,180771485120948
0,180531080794295
0,181743130090273
0,180296989376354
0,181614487175647
0,182744885858369
0,180234909081657
0,17935459455442
0,178403625542502
0,181175161682883
0,180332902439167
0,179472974613429
0,182798268490076
0,183315464648469
0,183341678542813
0,182190147292248
0,181579940391777
0,184996557398019
0,184891000269011
0,184432880459461
0,186684105298851
0,188467573847458
0,190407839836881
0,191063343397423
0,192363883247883
0,194220301639003
0,194306659118664
0,196864255505424
0,199148870147328
0,200582503830602
0,201824500919794
0,203732925636029
0,203353180291863
0,204246894441429
0,203906199777022
0,205673591308699
0,205793993832964
0,206458752838344
0,207321761894481
0,205780970852976
0,204856688287908
0,206845054075933
0,204720484409288
0,202830335058551
0,200677253260842
0,201531397354476
0,198184962338416
0,197713957864385
0,197370152918156
0,196973340203186
0,194396972348639
0,196545162495253
0,195370318415864
0,19630363789305
0,194959482158131
0,193985767826065
0,195501632997961
0,196414734801911
0,197700748934887
0,200358955170616
0,199393719082118
0,202511470571419
0,20165352701799
0,202887697755326
0,206207149821688
0,204775621020911
0,21012715109569
0,209283011081217
0,208488999418551
0,211954976901489
0,21228863428657
0,215882108740198
0,219153097537025
0,219325151534494
0,221090821914908
0,224087371512709
0,225306986265296
0,228204677433528
0,232432299693383
0,23446134897261
0,234629489112012
0,237631740769807
0,240375809806847
0,235853722901524
0,23548256299268
0,237695689225509
0,235011855682844
0,233523570906932
0,234080267038794
0,231726794836231
0,228864353386566
0,22835572828515
0,227615238266185
0,226587585671902
0,221254981859964
0,221843530234962
0,223542844747317
0,227307484797457
0,225592391975594
0,230000611101124
0,233137940819009
0,234929565758784
0,238458910329035
0,24184039673029
0,240504439932649
0,2468459755158
0,251185010669134
0,252092706356202
0,254568567858967
0,258924219880271
0,260083023450328
0,262582773597677
0,265462805659659
0,266452159203909
0,26663826922308
0,269322146987728
0,273332379295924
0,27179570235141
0,277644768640188
0,27800454219519
0,280235299792601
0,284752690113161
0,288107334189169
0,290107069266362
0,293606475448165
0,292529980847282
0,298170144494368
0,302130910740455
0,304385390400858
0,304522010022924
0,30980834011777
0,304862693969606
0,311520650210821
0,310445638026377
0,311334686210803
0,309123533464001
0,308110815576332
0,302919653319295
0,297590260555274
0,297965157212211
0,291967364933058
0,284989047258754
0,285021675476199
0,282384309279556
0,281064205263309
0,277628516930728
0,273445040081105
0,27324442378313
0,274688822652768
0,273057099674039
0,27218440882144
0,2701411671186
0,273559985420533
0,266835073262844
0,270188211883093
0,272848581119034
0,276284762935341
0,273012316316038
0,27597305553639
0,276254941430863
0,278427788322423
0,276883035789879
0,278219919786535
0,276650206597451
0,276141773210236
0,27791660638395
0,272753922895718
0,274556045074061
0,271650339515888
0,266298977164748
0,270978220362985
0,265414974429405
0,264756124884498
0,262149787970639
0,259511463944565
0,253640812728339
0,255734846286003
0,250000253657581
0,248928994378163
0,24766418842569
0,242986462968124
0,239039964269776
0,236235353986954
0,232304075197515
0,233412394731091
0,227262802134052
0,226275882566265
0,219917678151572
0,218963075431797
0,214219888123747
0,215071305467221
0,208049995021137
0,202981273441697
0,197686283649768
0,189566932419699
0,189058404269178
0,184368996628387
0,178908918610472
0,177216838676078
0,172528568328149
0,169388427397548
0,167299704705677
0,162874931242552
0,163201406869645
0,164166738114434
0,15973213691323
0,159613545219855
0,160987670165085
0,164307881374849
0,164258536074196
0,167578048173787
0,16740091093979
0,170483449465454
0,169465531883904
0,17444128842003
0,176842629722904
0,173492322629782
0,172215029237387
0,177218415600055
0,173831022611661
0,176275474398693
0,179213839695609
0,18038662924039
0,178450781556208
0,186404800144538
0,187740220075622
0,187391000911591
0,189763793343179
0,191098422066895
0,189248220655962
0,195427535373013
0,196868204334344
0,196621672630198
0,19733834752876
0,199323070214046
0,20040339986629
0,201952867299684
0,203875171994453
0,204307759988293
0,20782944740294
0,206256557377596
0,207368327957495
0,208282088272351
0,207129372674946
0,210763765858269
0,213338341746976
0,213511113473068
0,213408283822865
0,213633015048357
0,215822943174108
0,220067253510315
0,218784496089046
0,22253264420255
0,222389570064702
0,225397069262111
0,222707695839373
0,228548776077189
0,227522131259119
0,23146229845993
0,229279898841743
0,232337651991572
0,232041663105939
0,234538983779562
0,234320225635447
0,235871216690904
0,238671231588607
0,239640783670569
0,2391567831634
0,241787471959881
0,239380043776141
0,246496119276785
0,23748314487381
0,246649469740012
0,24176266224944
0,240353560976264
0,244773397280198
0,244877497952619
0,250725183586632
0,247178258158929
0,25007731681789
0,251037844627964
0,247368475339281
0,256666914043327
0,255541483471486
0,251379191133492
0,262076257255577
0,264198873447795
0,259574596919293
0,260439924229167
0,264299587973142
0,26946168442226
0,270537012110251
0,271968443584067
0,272417742357143
0,279257534685184
0,277067141265622
0,28202292101734
0,283453912236337
0,287847729709166
0,288017071534886
0,302274201396528
0,295446529129977
0,297446985353672
0,299156634087947
0,299791865400597
0,30425604005065
0,299618801519154
0,30933513549972
0,3119341469027
0,310451260418026
0,320379244898564
0,315891989598587
0,31911432535921
0,327215343219537
0,330201474719315
0,32916367805346
0,331414765792228
0,336826031412797
0,341780288414608
0,346665731366254
0,346711937676322
0,358586954689804
0,354048603921406
0,350294903312865
0,362556395217152
0,357323469820376
0,3658396181489
0,372885255405005
0,371364113158644
0,365840137916556
0,375363743919352
0,385498054184032
0,385750864695579
0,392413746447235
0,392381041382618
0,390333896597461
0,388952868511371
0,387930739906777
0,403809016986398
0,405887906635942
0,402548526691532
0,405244438364138
0,410125945389372
0,418001174087645
0,414395921901194
0,412283809415246
0,420326030231291
0,419049925378543
0,432313358192067
0,423767828151132
0,429895334898273
0,424326541813905
0,433088145114806
0,431354890146665
0,437570827194708
0,445943476040205
0,449817967759527
0,446676767672478
0,44218539744167
0,456361382761434
0,475759584077252
0,463343549851993
0,457322929168243
0,456010613986901
0,470594090663254
0,473901130022013
0,483640257870955
0,484843247046898
0,484862773280696
0,478283720443411
0,478699093350873
0,484396331052236
0,501657854306114
0,501489199896178
0,491435186094529
0,515891935891399
0,515572429521138
0,503045894581922
0,527258856387158
0,506653683723021
0,525969317172742
0,529200978901767
0,535800081217336
0,537068037321014
0,550472139552729
0,534809843038648
0,567965417604138
0,555085992508219
0,547869137254107
0,561972061579184
0,559278502575666
0,559658151997976
0,583736867139217
0,566471080653706
0,568264522778242
0,568594494093579
0,5724946534585
0,579970806477917
0,586490985310823
0,59977793755077
0,61049397987377
0,596113754960771
0,618639371017896
0,588378161631417
0,622442038495727
0,616806215542595
0,610491075299737
0,628838879292688
0,633402017937763
0,613951091483835
0,653120839914385
0,656075183585537
0,663765086129305
0,635436098612606
0,660663632477974
0,647248478786924
0,656672506257625
0,667775581352837
0,648844311379239
0,645284131095883
0,682457990900821
0,65689200826568
0,70033181748113
0,681850015910838
0,702328118875649
0,679469760998768
0,724629496842292
0,697868093169272
0,735385680003806
0,738251165564068
0,727530267594239
0,719946752148107
0,766425817794375
0,719376351453083
0,728369564875546
0,72655822380822
0,775577485278003
0,701485597259334
0,778245485040146
0,745366648187032
0,782767047625621
0,786581024019514
0,816860503575686
0,739711169966057
0,782911402483148
0,763875743590616
0,787068458468107
0,759016866486264
0,801905770435721
0,770121665838463
0,78933542318829
0,789631660006045
0,801604288505153
0,744906627226232
0,795067399727635
0,781214671505513
0,814378467738565
0,847630344057688
0,807423957523925
0,819091205330278
0,839474659649217
0,790795620510522
0,824622402092981
0,801944091125503
0,953629784002852
0,863805265237211
0,90804242287231
0,784181135925637
0,905428105594585
0,862188856595015
0,899876437400412
0,894578585094816
0,8613582735515
0,855792634590333
0,884301741627731
0,899981673113331
0,864749903557457
0,863699102455014
0,93516541143484
0,932010002356585
0,883411876301849
0,900187096655237
1,03234278271899
0,828104830845116
1,02286570624066
0,898042945666758
0,946779291431483
0,855460397867686
1,04582457465406
0,882200277382695
0,962994723653263
0,882517231979072
0,993068753493802
0,849671517403886
0,948770091890615
0,927703012658526
1,09579330802792
0,962415497773717
1,03774874730799
0,898136952174752
1,14522716912395
0,900216751167615
1,21009408606348
0,921754178275955
1,15345014642357
0,975180871953415
1,09540429872824
0,95026514811953
1,00706974022428
0,971389582337063
1,02020310745855
0,932312048497613
1,06358891104115
0,897833579424907
0,998117657769002
0,875154034117588
1,11170988996076
1,01089197756233
1,19374496030128
0,911331569296626
1,70921322253506
1,11586114607607
1,25873811090837
0,91930014783492
1,30226425246685
0,913127598453502
1,17007341089289
1,02454697994569
1,45200362379701
1,06552575506298
1,03594440694073
1,14159473609502
1,05590158468013
0,984593678084655
1,16693710249743
1,19421497632141
1,43160054569618
0,986349558358362
1,19653604119028
0,980501968082139
1,15647870750963
0,848423842035962
1,8176450102213
0,987912908211536
0,95853086582999
0,881817723669443
1,03981837597286
0,850009459204877
1,60644666856236
1,00252822819265
5
1,01841905441228
1,43458112297303
0,984790414694043
1,47337056143758
0,968658262696699
2,06484551166591
1,10130866856954
1,40626400579462
1,37895185918693
1,26567028193072
1,78849321568382
1,96304458482546
1,31058242532746
5
1,92870598173961
5
0,26962339940015
5
1,4476729255093
2,0736586396968
0,769184524075867
5
5
1,17246610864315
0,991386707148998
5
5
5
0,933938739878222
5
1,64618610008016
0,599027154037551
5
1,18814472191578
0,517365520001915
5
