3596
4000,36533379555
650,420452594757
1
2
2
0,0468756871353814
0,0456139185330724
0,0534504997388455
0,0482648174499718
0,0475775342311178
0,0521843200545745
0,0427078648009772
0,0429717567708931
0,0451038131399188
0,0527203556383747
0,0467098025172081
0,0502529762466667
0,0532777967247873
0,0437196566320174
0,0508436125728466
0,0549327581605159
0,0465973443365813
0,0533751647426842
0,0380156176471735
0,0392128902624712
0,0410549734312892
0,0446087399632697
0,0429544020041652
0,0453046939962486
0,0428319481617031
0,0508728229999981
0,0480016731737802
0,0472091376261289
0,0441389762152565
0,0536460728877909
0,0510570329026265
0,0567343413228954
0,0456566103316322
0,0531411735754856
0,0471408985655803
0,0503969966910528
0,0454462008651978
0,0508763193652579
0,0456359250973519
0,0494253980117681
0,0550542788978651
0,0592756994306507
0,0456904137233032
0,0412888660763208
0,0566524672429706
0,0556253184156194
0,0456064520506214
0,0495629573017042
0,0441422878824611
0,0478590402965882
0,0528960598535853
0,0493108829696844
0,0465704767927518
0,0520009885596353
0,0443146567984866
0,0646130851299436
0,0510511509516928
0,0478228466360386
0,0467285244119521
0,0466374546132934
0,0537685253481321
0,0662048894554252
0,0450827226146843
0,0533231198549598
0,0415550237332023
0,0556462044715385
0,0379261274849244
0,0517802199927913
0,0389341350302759
0,0592798457383754
0,0347450754441421
0,0622047596676346
0,0595518595049611
0,0423273102144291
0,0555433865591419
0,0508998219530497
0,0450364866970403
0,04842007500592
0,0389318212011618
0,0546772214265393
0,0568283160639596
0,0531115577451369
0,0435631089667311
0,0462247869392616
0,0491348483831802
0,0690548185138136
0,0337653058581919
0,043532737481577
0,0643790340912756
0,0570923220386318
0,0535936521203134
0,0443571512558988
0,0482271361010152
0,0512082323195686
0,0403552077108799
0,0538555271485645
0,046775427463506
0,0501782621769543
0,0426272704613491
0,0478275869912793
0,0492492440237708
0,0261611309452218
0,0906764507005619
0,0267629172615464
0,0853670298641248
0,0607760259923036
0,0217569797557039
0,0900919037919321
0,0567593045219271
0,0621362263669537
0,040024690762661
0,0520105901844056
0,0419919617690252
0,0631215581736094
0,0243496743751254
0,05685718542021
0,0730207951265951
0,058255212426969
0,0481565125366791
0,0559989799110248
0,0268319616673881
0,0577879241003704
0,0899478715819706
0,0389918013912579
0,0546232367370259
0,0497865490170432
0,0351480210965454
0,0622827579212317
0,0818395388413388
0,0446512296067127
0,0413220432412077
0,0441054913599802
0,0479695921953037
0,0207546271192855
0,0763784305166382
0,0543561531651279
0,0528940396149571
0,0248267160827486
0,0481896950225016
0,0912654774540681
0,051710452261396
0,0584236391890185
0,036644093867143
0,0327919047978621
0,0787426747770655
0,060151579218222
0,0348296852848967
0,0629386117515651
0,065632565882999
0,0434235415195608
0,0527799016669148
0,0434498813345973
0,0522273666116018
0,0629373047990646
-0,00758095050778834
0,0570185096729746
0,124462100009752
0,0157495753072357
0,117208082010394
0,0422172914243788
0,0682404292553138
0,0485348494405324
0,0570644989367202
0,0464146202510999
0,0519614246446597
0,0297844267655773
0,0418762500978381
0,0777822230750475
0,0500487394078828
0,0450978119797036
0,0687166950505466
0,0606570292466007
0,0147326604590119
0,105835347927726
0,0590790575175177
0,0296350142223955
0,0768285165623735
0,0647113209792258
0,0409585656483374
0,0390192811687857
0,0827288014555672
0,0513142248874981
0,0532165676300009
0,0354019719096818
0,0475982136502203
0,0610786782805717
0,0594498336692105
0,0512114322761318
0,0593574494895629
0,0241549255252717
0,0650752680997518
0,0814214866169397
0,0857883832754575
0,0471647094149116
0,0648539161283118
0,00658586787493567
0,071610143559754
0,0982752933630796
0,0526780623121457
0,044922431591464
0,0520438981158031
0,0505280850419529
0,0427561614130663
0,0497884582797109
0,0531449651749533
0,0132132494220988
0,0901980346838991
0,0636740309753666
0,0554873365722647
0,0456150478154947
0,0548359543792799
0,0295416550954291
0,0893124435369008
0,0792918074743578
0,050263906782359
0,056339177521712
0,0366197939963722
0,0599101567489318
0,0742475115194023
0,0543142636404389
0,0499868361410772
0,046688565017027
0,0499947593909873
0,0532216637961146
0,0589391156257647
0,0555768519833989
0,051427497588098
0,0536632698327115
0,0512128866951289
0,0465333890513433
0,0562185576159365
0,0576632548630035
0,0484762140634536
0,0649774926790285
0,0467203624126245
0,04986546903246
0,0832918099943432
0,0592220533952958
0,061514757810219
0,0503598287571344
0,0566678694107412
0,0546511480215063
0,0575837373973723
0,0526602022992562
0,059623293206769
0,0337796566196739
0,100272588585648
0,0582717065182725
0,0679975795932792
0,0419324108949432
0,0651110732747875
0,0681010815061445
0,0552907253064369
0,057906270113377
0,0594961470332723
0,0514960487406569
0,0432180397529386
0,0918828369768609
0,0663519068956276
0,0523654713104326
0,0669801698669019
0,0786938240382821
0,0533164019010116
0,050445569724443
0,00762845898828563
0,133235912523067
0,0711779252867389
0,0198600251465413
0,117424627718339
0,0752013243741151
0,0653219919357654
0,0658226187229779
0,0127782909883685
0,17282117463719
0,115456130348747
0,0705454546056246
0,05894451761029
0,0879679881180824
0,0675170916663769
0,0742815377542141
0,0583492963746591
0,0612792346845594
0,089949260060815
0,0706506263758245
0,13688719750639
0,0380717778331271
0,0794002595712485
0,097019190479417
0,0737281760608907
0,0718307164709416
0,0665429267495549
0,061937686424773
0,0762720699925914
0,088994467386686
0,0799007992039411
0,0854301478049291
0,0633429309159983
0,102017517882066
0,0795916017082106
0,0757158437419465
0,0756705169512132
0,0991046098747537
0,0721777101983451
0,0835922265275741
0,0707401775791378
0,0946969125710979
0,0746683824837644
0,0593168444556849
0,123355720135115
0,100036037244072
0,0691543962883165
0,118793996755383
0,0910118674091447
0,0932012287887014
0,0902183622682104
0,0978497827502011
0,0890806126637082
0,0952810883804803
0,0753266422141282
0,12133676376075
0,110287104525042
0,10527881936469
0,107159127943516
0,108655068869943
0,106241462440638
0,111992170912074
0,114799831768965
0,115104624436802
0,115695329848645
0,106646524041612
0,119889270659958
0,149544123496757
0,0878292252550526
0,153863023664655
0,174736365429967
0,137147359913126
0,137397564203309
0,126867323219318
0,147140665224986
0,138995022427381
0,14601397524569
0,144821026296759
0,149149200218099
0,175377809240021
0,17340102416621
0,155230878642592
0,151140743567607
0,199171105665001
0,239805499900288
0,196386047876113
0,198723201338744
0,163111172403092
0,213451952685064
0,241228725615156
0,204649189253219
0,246569078526802
0,204221926145227
0,236033204077012
0,211460947460578
0,234707104478475
0,228809903482243
0,247061620310543
0,241161812650009
0,254512995572195
0,251975589815069
0,269810986581352
0,252131521657481
0,262447670459122
0,305064772421863
0,29259647708053
0,272440859314577
0,292145112759429
0,258963649300439
0,302705520472673
0,299621877894333
0,348077216663213
0,343389771007206
0,313854661853356
0,36963276914142
0,33139560592267
0,336990770235951
0,321672424566743
0,332051808382377
0,343791986055943
0,353440533381302
0,357073976773975
0,356718017728913
0,367869354936819
0,377123603288177
0,376673749622092
0,386187439497576
0,36983529717215
0,403324014755487
0,396255508125593
0,398439004883703
0,393151965980991
0,407023091010683
0,466493517324345
0,478299212627004
0,417478660277861
0,419621609794266
0,435513365362763
0,413238123260652
0,440768605039216
0,433522210320786
0,447104184336466
0,421051333303253
0,488816973042676
0,476719883080454
0,498783468256988
0,481837689558249
0,447837007414209
0,482004913854878
0,495380727978007
0,471679969235321
0,512818048498134
0,49234554478288
0,470500965786496
0,494817937118127
0,547150303938196
0,492428397872387
0,538688685405561
0,520828906432738
0,518222703931498
0,518744785015367
0,552098492039634
0,533090176096149
0,555918404348792
0,549246017186998
0,565731678238673
0,545186819883088
0,579313390519473
0,54863491123845
0,565696305666968
0,547975895451901
0,574065751631384
0,582321081235431
0,583651039383481
0,593094232223902
0,586922957559146
0,580470917856776
0,627390658831038
0,589346110638857
0,635453891929201
0,581287616898438
0,602861347953272
0,619761099164618
0,652323830111517
0,588742195836362
0,642523990281046
0,638695533270801
0,652638037568768
0,629699145475128
0,65385415629163
0,637694381427591
0,693815231147792
0,662088476426504
0,67982680511987
0,662287591718744
0,710933414823078
0,717296019185197
0,698349334342693
0,691900967236901
0,781011718593336
0,707487940109263
0,736240770692905
0,697655623392013
0,730832987879038
0,7087557723014
0,742772049800019
0,724180004402494
0,772822434098868
0,730808001139006
0,760568881968504
0,729990600978623
0,772613448944159
0,748452176585975
0,793992452421388
0,764234700356125
0,750060929919684
0,774037201809598
0,84437075540564
0,768657179995048
0,793010833532983
0,801955710240967
0,880479879252244
0,759689106936834
0,850272244795198
0,814198600692347
0,839623685118026
0,792518726978765
0,859284719941347
0,848896987624657
0,85641761998553
0,828873945698181
0,864361318770098
0,848379701225947
0,879118267572633
0,817797064116645
0,85970779831519
0,861484838463618
0,902145268372746
0,883295019025979
0,983810506965125
0,91759460254737
0,903129524375357
0,926514905092403
0,936432187695252
0,889089755765994
0,95370208382715
0,924525704023721
0,945897658956624
0,923260766772114
0,976336887785943
0,919140399660203
0,996991895386939
0,971309721064736
1,02466962842082
0,92138217091676
1,01790515057503
0,936160763401844
1,02176764023954
1,00735588872068
1,07432834078735
1,01174846850996
1,11120920523477
1,03300366193566
1,03412173028174
0,986658083937341
1,07091312178035
1,04021340572983
1,16700541335056
1,03790550806194
1,13145671394067
1,06597753024328
1,08113407757547
0,98570704711201
1,04042078626066
1,02645199465128
1,1113118732058
1,07425524147652
1,22601396695216
1,07821066969104
1,15972453766826
1,09473448163729
1,19451655246525
1,08188269239389
1,17348236310837
1,11625523227938
1,22169706522002
1,07575650376828
1,18127512060611
1,10823279179102
1,1337745103752
1,16357081118581
1,18163065280815
1,1077763259263
1,25467146641427
1,16112072244699
1,25147018823376
1,19316159953584
1,291398403439
1,19745043726402
1,15378899377303
1,15180151729519
1,24369604854133
1,26717640965976
1,40986761957768
1,15655830834363
1,21013541607251
1,14596905440178
1,35386592422788
1,27318292483027
1,36109312036307
1,31371950560153
1,3874028575324
1,27422264175864
1,4951074313159
1,27520416990542
1,42915236368842
1,24191055361725
1,35010218823023
1,24411475255111
1,36469573396486
1,22033721817444
1,31641427809373
1,31957707598785
1,56518615557367
1,32690820601439
1,58813748884451
1,35558603294543
1,49430833868326
1,45328479721306
1,41961386715812
1,33372295946574
1,45585449982777
1,27426663960983
1,35670485074664
1,32806078755763
1,60789919851876
1,40295024311835
1,50329672750915
1,41871191771845
1,54010723182959
1,38201350543339
1,51587316076526
1,3534493818571
1,60264857228333
1,5114128361479
1,56720428588726
1,44963442479683
1,45208021080483
1,31802629947313
1,62289442524637
1,39889444626199
1,7859436635784
1,51250300076781
1,65451238120548
1,47794796050312
1,62805360937111
1,43244836836485
1,61363574477468
1,40585331798962
1,36491721384707
1,45291353163273
1,39038689679248
1,31302318532034
1,6027927473779
1,40609440067584
1,806365533064
1,55227481743048
1,79043996867542
1,52198938233033
1,76987939701791
1,68120364438784
1,92412554120673
1,50295032780763
1,51117386684775
1,57966561813393
1,78591595478367
1,51330474674006
1,89958719607711
1,66635237973195
2,14884809216526
1,63257397313621
1,83877532535176
1,80694134234574
1,80170282414226
1,45208325905301
1,73309409021591
1,65339945917023
1,85751223311673
1,5714324923695
1,6251527535857
1,65731631231106
1,70074099678662
1,52902910367089
1,811762709434
1,53093198256089
1,97535816313705
1,60740895513319
1,62164304001495
1,70290955341996
1,9639194028158
1,519921244948
1,81290274504429
1,73073824155196
2,38518062908476
2,04895413809584
2,02934318964181
1,620551680888
1,76486724763212
1,53608767085872
1,82160982896217
1,69922524269764
1,59888937920088
1,62187154862481
1,9673529145773
1,6048804990654
2,06628539436844
1,7835239486268
1,868906138267
1,91494069890781
2,08008155914726
1,66258518731842
1,72444657388853
1,80118677063322
2,11841826297724
1,72504972134513
1,7982041307757
1,72220137594184
5
1,53211822938362
1,70142266393149
1,75069615067862
1,84034618753456
1,82504826639584
1,98962484414442
2,02408609639384
1,9269370591126
1,75318505047251
2,21386241033431
1,57421821363378
1,91809192169185
1,88441441514152
2,03485383217301
1,60105836056401
1,86665575567479
1,9250223738905
1,90311379911693
2,07639108553404
2,20542283402752
1,80091605820003
1,9962070334528
1,56037161557521
1,96146894266258
1,89880041764209
1,94206485019058
1,96203574024577
1,7266776662199
1,71906564914155
2,08874887058057
1,68458945871958
2,00678339547184
1,73392573541577
1,86456561682897
1,73857600858195
1,74229283630709
1,64528826850059
1,9640888448762
1,9583712053699
2,22615264572583
1,68216809685049
2,18536199576646
1,87014835028365
1,83792286243471
1,71489964924834
1,79204812090158
1,72415712178457
1,92245140670222
1,70313923089922
1,64884558371838
1,63124984970382
1,81527159436206
1,66124741158642
1,6783964615146
1,69969468903773
2,3613826937563
1,63149169620199
1,77494312302872
2,35932764782355
1,85707625569999
1,69640783826314
2,59021673942648
1,812809133191
2,06023985121244
1,9447485086933
1,87021224065375
1,85656871327372
1,92105652065064
1,80846013575904
2,50320145514503
1,6249247846233
1,96754403026607
1,76025509602703
1,73909193878736
1,64410076042742
1,81893289962058
1,8404803718911
1,92066456636137
1,97659513679081
2,58414914458587
1,86092780759971
1,77851815096746
1,78350603740979
1,827773475077
1,73976713797468
1,78635895170274
1,73505848562783
1,91953982784072
1,62427557474456
1,85095419755238
1,6229751151065
1,80265580986969
1,8678867162424
1,88275063596497
1,54707074840753
1,81378286128874
1,70861628336477
1,95032435880929
1,7622504036297
1,82716884839264
1,78122032147984
1,80754343287512
1,59226144753411
1,63616742070456
1,65118725425353
1,75760993118876
1,76100489766863
1,84451571076237
1,88779232113529
1,90010111503518
2,0307900085448
2,0767042805944
1,66543401507796
1,68527505375449
1,91032045347676
2,61783415187474
1,99027370236325
1,82047003065852
1,82296880200619
1,87377654398609
1,74529612113029
1,98227508231767
1,63844368947931
1,79347764773546
1,65907169868997
1,64453997981541
1,70498984133577
1,74661237298868
1,73162557388689
2,03087785202564
1,75839355120633
1,65599563820035
1,63908488300518
1,65168324406145
1,73539724739574
1,74693136495794
1,74310756365492
1,75500950717581
1,71333132637207
1,77905365925681
1,60466790753518
1,8310420673793
1,8226158200373
1,70579775979255
1,63427020852168
1,8741278608891
1,75977522471728
1,8781193051709
1,65815688419454
1,73103280408058
1,57228716116273
1,70892946627928
1,71754174725949
2,17781154426169
1,91013020373455
1,73696966419746
1,63786959968567
1,6755060702239
1,58538370611358
1,77185735975627
1,90476259608237
1,80978241614085
1,69058399123976
1,77276781344255
1,5796606354776
1,57353596353698
1,53013868383737
1,67422649201368
1,60089301770659
1,74683468104222
1,72695550356597
1,63642583093197
1,65570423415332
1,6143209779358
1,50967679867549
1,52214755634489
1,46262909091836
1,50077125900344
1,50951889791205
1,66762199616682
1,59335120800805
1,61086068219554
1,6268069783172
1,54255164673333
1,52904173622922
1,58504706198223
1,55079553654184
1,59930134565235
1,49677470975015
1,53115496761037
1,41305254863075
1,48502693746748
1,50896375658489
1,60110025437957
1,60939946099806
1,54154775275382
1,46345854265734
1,53302061882905
1,42146265554423
1,47452789271291
1,40077284722521
1,43541018343951
1,43534366184855
1,49916202485712
1,39633768528528
1,41110357479773
1,44415260339441
1,46704066925113
1,36792778985193
1,36474248188568
1,36331630008276
1,35555468747259
1,36635555403205
1,45263922702193
1,38457670948522
1,33478078170752
1,26534637203223
1,31748247891311
1,27384902906031
1,28848844335728
1,33392248385023
1,29869974239678
1,29753041801887
1,24824202418321
1,19835765481509
1,2750789633852
1,25590468454521
1,25969511128599
1,25077716647912
1,26096101128353
1,24278727383453
1,227510106568
1,20928656506552
1,23257541226213
1,19480159941962
1,20576434246191
1,15568459371501
1,15661533762411
1,16999552383375
1,19253698118975
1,16322874814042
1,18275397990588
1,14138651396655
1,14522715658895
1,17557935001361
1,18440014601208
1,12464579836863
1,1379629075641
1,09576572883958
1,11397756557885
1,10038932518937
1,09491573979852
1,07565140957208
1,11049390246287
1,08465033756936
1,07898445890615
1,04368175721337
1,06746954946785
1,06566070891637
1,0524615455362
1,01199359769731
1,01435477406379
1,00658204344094
0,987472510293531
0,986165199720346
0,998202354499656
0,9690179434906
0,959902645082833
0,961216576255406
0,976029520606066
0,967093823927599
0,95926305675029
0,933299712393997
0,950544488096668
0,948196420300497
0,947554776256218
0,932594611979297
0,914443154147974
0,900563494207511
0,913569485429112
0,905441309913298
0,921250819213419
0,891401288528478
0,89020205322043
0,864161946003173
0,869002291327052
0,862911871289889
0,87924673378836
0,859307927015923
0,834574063423433
0,812848971956734
0,838160567793653
0,829832839164619
0,837873201133277
0,804504634898093
0,823685593602235
0,818679875530145
0,808530662467174
0,789924472481601
0,783796502190388
0,793378814813824
0,794764277066123
0,787481223131642
0,790160705570575
0,777440059102281
0,779264225962037
0,757952538334159
0,764359104922216
0,74572805680775
0,73206403830035
0,727920832301407
0,746277206110954
0,732319506912368
0,713080577545155
0,706712630506825
0,715640099923313
0,702092311439979
0,703510222872763
0,688377410431219
0,68318372322552
0,686797154438175
0,694201837397056
0,68825655837422
0,682959168092647
0,665514560978131
0,664425993302367
0,657623807953201
0,659737269123961
0,644346239490143
0,641095242377452
0,635415687676782
0,634717370799947
0,631822072098412
0,632571434868891
0,619552509507022
0,623764970430896
0,619195388426896
0,615976579010981
0,601229755073055
0,595576684020736
0,602031819811688
0,59391829906734
0,576875646416802
0,587145333356418
0,586169689818947
0,574558382235808
0,573408437503429
0,583562754806983
0,567820880933435
0,560303185182253
0,554091261892835
0,55562843323224
0,553155942471866
0,54313099680673
0,534872992235852
0,547751662518351
0,542494817207669
0,537622844810142
0,526909673932744
0,526689847098764
0,509468735037145
0,509290061348748
0,499789759263813
0,497518121849635
0,50115168020782
0,503323818236574
0,491806286211606
0,50183701848487
0,499654713977901
0,485365667391402
0,4805465132172
0,482206199435638
0,475318328097954
0,47848912814116
0,472543810014335
0,473173973532551
0,46464516676739
0,461742608519464
0,460474931469123
0,460819298925126
0,451702090337225
0,445665261523782
0,446011539228663
0,444754348613554
0,431649787972485
0,436978534524495
0,445227002355755
0,432982128168808
0,429561156652993
0,430349403576481
0,424181245027346
0,428951336529626
0,427963091213729
0,421170958086527
0,406182828210935
0,412472824597628
0,407010567159066
0,40597973081263
0,404913895687899
0,406224319378439
0,404527521035343
0,399847365049329
0,393747831060038
0,397090713501839
0,39215194454715
0,390066149366571
0,388286088544404
0,38269073346492
0,370547486240262
0,370771498171563
0,37603880127846
0,37324519650835
0,367707647529669
0,366681935586807
0,365814985878231
0,368700365026465
0,3611834864429
0,361144151037531
0,356948099853149
0,35802100711793
0,350419150704302
0,346485447666972
0,351013071249097
0,354106450426065
0,350747468514358
0,347537873173941
0,339073722643177
0,344146637500505
0,340318228237825
0,332764844112556
0,326557789176975
0,340688250407268
0,336484682734524
0,332744985274459
0,332617537132582
0,329351915256245
0,326278249877957
0,328202320251224
0,323540153545247
0,322095097513433
0,316429804135065
0,314090669507757
0,314274032060447
0,323161956062456
0,316618295406331
0,30987117375301
0,309838017610133
0,314422667967793
0,303788809206446
0,301979705070067
0,298621943648031
0,302736156342611
0,304665301673128
0,299884147855094
0,29767791976539
0,291474397599285
0,28916975436761
0,293999402632209
0,285674277829316
0,290022230936052
0,286343586713892
0,279383582073568
0,280388520164909
0,277063465934456
0,27023823619864
0,279069600684958
0,275816338701223
0,270122085545784
0,27068872195131
0,267466457295549
0,261183744345381
0,259327119467073
0,261232937824206
0,268487797182382
0,262450528717011
0,258705591653017
0,256537105603206
0,259066796913714
0,254827155144465
0,254944757672919
0,254402468214198
0,249589105325739
0,251687287924419
0,252781313681946
0,250310438369907
0,251145084998746
0,24717864464476
0,249950929872956
0,245034625724891
0,243672284941115
0,242265891562138
0,247482840828974
0,244732879665114
0,241907321118402
0,239430652556162
0,235755279283549
0,234864705993611
0,233432901031647
0,229801938250119
0,236178677804526
0,230611028007291
0,227865452045604
0,231354815216815
0,229523627817472
0,229138958970026
0,228766445074531
0,229308519231325
0,226491049219831
0,224686349474159
0,224997194870629
0,224481414904213
0,217385272662707
0,21567526374988
0,220797436268047
0,213713038659842
0,214190928191933
0,21297175081104
0,211110606338325
0,211675212055484
0,21005145423129
0,208071230535263
0,21174343589361
0,207148360244542
0,204311495489988
0,202679150927965
0,204052880208827
0,201353406345981
0,20032270852384
0,196628734227893
0,195422121137348
0,195453256038272
0,192371109379772
0,189348754590788
0,192873499339603
0,191586704282091
0,190548761144579
0,187810976525892
0,187567475299272
0,185766927804199
0,185354995865007
0,182064502300198
0,181929652757004
0,181085579111344
0,177318757606027
0,177020077690485
0,175452794960777
0,173487136707236
0,177478751862406
0,173170029345781
0,171214558600571
0,17241096061226
0,172390672082376
0,173786766256482
0,174295195991069
0,169184791288464
0,170447713870945
0,169055355360366
0,164491504255963
0,165985681477936
0,166799194089831
0,16465549125126
0,163375189176873
0,160131638086382
0,161051588041168
0,159727554093331
0,161358674614403
0,159764377183639
0,159854866403102
0,156257553012501
0,154837436322422
0,154892087023701
0,151673324103833
0,149000584472251
0,154854236801097
0,154185102272666
0,154298183257601
0,152656421173712
0,148055295408469
0,147588534968673
0,148701690536976
0,144139189865213
0,148455151282298
0,147563052110228
0,144994380423329
0,146264999268246
0,142033794933013
0,143685625306076
0,143243109829896
0,14450827408564
0,14041957554814
0,137630083427399
0,141109207755576
0,136153617113774
0,138832253825972
0,137821632493564
0,139109097540589
0,137943704549598
0,133973741303339
0,134688058527936
0,134948151520162
0,130527138585291
0,132035596236916
0,133482421163768
0,13174692906153
0,130368772537252
0,130783787980322
0,134154872429299
0,131285108172231
0,128217701915228
0,12907130631484
0,126817741200528
0,127892690595642
0,127021532904293
0,128221548141588
0,124267500029895
0,122851144143966
0,121406597655007
0,124962731724315
0,127153407451361
0,124825482891609
0,123938646553764
0,122259765966527
0,12319948460888
0,121692630854936
0,117375874437921
0,117829206796088
0,118249884632028
0,118057426389205
0,119801900238565
0,118366647292368
0,117503513794502
0,121867512445474
0,118543945964338
0,118320296323861
0,114761658762135
0,113212200615746
0,117041091643132
0,117514998607904
0,116160634469896
0,115669769512296
0,114625498013429
0,11446849935379
0,113307190010513
0,112358494998636
0,109583063161496
0,111662347194451
0,113215175967132
0,110904393883653
0,109580429014983
0,108806773666532
0,106153837380853
0,108014815592666
0,111193939712511
0,110449360092409
0,110670492590963
0,112264508124841
0,106162013189253
0,106945385618231
0,109298440913103
0,107198731356821
0,104026787608845
0,103027165507563
0,106051854637337
0,106458920217986
0,105076847062153
0,106207470805016
0,103178436890948
0,105230149298034
0,107328252529492
0,102627669732348
0,0986640513877568
0,104131571107439
0,104359484877312
0,104872744888682
0,104962048989104
0,102071918492375
0,100841094784255
0,103320573698288
0,102575855894013
0,102510372417144
0,0996678657665463
0,0977535057648529
0,100931015058575
0,101236956872952
0,102318518028358
0,100105702738776
0,0995961821640482
0,100516964552657
0,0984238668962035
0,0986750829685408
0,0966745949275329
0,099343140095644
0,0992668701807059
0,0968266579022339
0,09719533791287
0,0961795471658623
0,0949252739132968
0,0971518435557528
0,0989541207322945
0,0963945933219566
0,0963908287662164
0,0976267879368584
0,0921131815327823
0,0944508384396816
0,0945693971897755
0,0925653765923265
0,0953256742789631
0,0949356615437643
0,0916231634887799
0,0927418855452769
0,0955596118932665
0,0946881604518975
0,0935762857169222
0,0946363840450102
0,090391495542681
0,0905677644496153
0,0916773409573261
0,0930285548976329
0,0912726635231708
0,0886066265169196
0,0878648200731756
0,0904308145052674
0,0897340179523401
0,0869576765119217
0,0900659849521742
0,0920899102224242
0,0901837898514468
0,0875760844995243
0,0854118576134087
0,0873871706036699
0,0895229326785867
0,0868045458321965
0,0905500712310097
0,0893759216292433
0,0867854368715254
0,0899094006313616
0,0894797903717618
0,0882831306946689
0,0860075033897256
0,0867048530239258
0,0859420753546356
0,0868954078685491
0,087635410476237
0,0858606630470533
0,0843917590853745
0,0852008979582327
0,0858973128125375
0,0891099962257623
0,0851076156103508
0,0818807888333484
0,0854736715782074
0,0860909058219029
0,0832261468968838
0,0840446853929569
0,0860867722666859
0,0868932391357108
0,0827813434456168
0,0826905422576201
0,0830371817625811
0,0802648952423004
0,0846509075882746
0,0850701050077126
0,0831292956948186
0,0828574994720155
0,0798489258062918
0,079777813051842
0,0798448711154615
0,0833586436856008
0,0828869100889415
0,0798543115678651
0,0799432639918413
0,0816642347838214
0,0799529167900896
0,0789423587901546
0,0828618926587442
0,0834418423768651
0,0805037129704067
0,0798420869031123
0,0790111646541877
0,0756045738682729
0,077283282909598
0,0789641496036143
0,0777031930706099
0,0796136810181069
0,0793735933838071
0,0816629100325923
0,0803236423847473
0,0780862124274435
0,0783604241312427
0,0792616293006344
0,0811689895129045
0,0798109718057808
0,07785195419546
0,0788037969943142
0,0768188073529693
0,0788693455891339
0,0796114514706876
0,0805484310125283
0,0816648466899947
0,0818233557340526
0,0802185985732077
0,0803095515954488
0,0823420430045437
0,0789885928538222
0,0758255852235617
0,0765932850601651
0,0785641146502162
0,0802594006831065
0,0771479607783725
0,076880874225654
0,0782753201019819
0,078576056114191
0,0796709640491864
0,080168208148497
0,0819398416018723
0,0807882021440957
0,0787971878115127
0,0791351885060663
0,0778896789497241
0,0764118988665643
0,0782746819620681
0,0779940128442704
0,080596954464068
0,0804359342428834
0,0755851867021825
0,0787016957865363
0,0765884876243025
0,0764010987689946
0,0780779658323329
0,0773051814105621
0,0761641817120932
0,0753070693260465
0,0777254352991143
0,0786420620742474
0,0784953659382613
0,0760254724333175
0,0748991538934859
0,0768202083535449
0,0750122195945712
0,0769354626964062
0,0775628028422651
0,0772760202212293
0,0776397021818547
0,0775925849058704
0,0783785541270291
0,0787184452767109
0,0763614205884265
0,077599518692608
0,0805679301404037
0,0787719703484404
0,0772537983782434
0,0791257709437071
0,0794410468057813
0,0762531225097491
0,0772047776448973
0,0783726281270123
0,077155481065287
0,0771596018776784
0,075673676682949
0,0774103837258856
0,0805033370691015
0,0783787169038415
0,0821437610314576
0,0820762075255684
0,0794910780765048
0,0795179414096389
0,0780482539098196
0,0802537684320136
0,0798034409964194
0,0780496211721677
0,0802206549153951
0,0813804063688966
0,0819303409237555
0,0814069746613721
0,0802338450650849
0,0808024240099582
0,0796262677060268
0,0802744960073331
0,0818238923938994
0,0813899983760247
0,0798533065639564
0,0805243854605105
0,0786080878971162
0,0788052551027204
0,0803190135416415
0,0800513255289271
0,0789316508826325
0,0815579778693321
0,0821936579205598
0,0810716344843954
0,0812752663511506
0,0820326118809612
0,0809397038458671
0,0802697068106115
0,0786298680432983
0,0776660331392977
0,0820886671347578
0,0812444860555904
0,0803210174260915
0,0793900250200964
0,0810269020010237
0,0801018415630904
0,0777850552759326
0,0798289024065425
0,0821640832066721
0,0821834959139269
0,0822864483065668
0,0816755461553818
0,082479398892042
0,0808910655100809
0,0805123103768216
0,0835679849811258
0,0801755594350179
0,0816399302622654
0,0843620069305974
0,0837283975396148
0,0834282454581478
0,0846545161884086
0,0841269481305502
0,0810702490769992
0,0830829941214933
0,0836891808984394
0,0823419698697618
0,0783015644326519
0,0818934988346013
0,0846990342575136
0,0835738379470212
0,0833238721105697
0,0849246997678306
0,0869122011256978
0,0824678258486832
0,0821356372339721
0,0853937496042341
0,0853763885740807
0,0867233476916891
0,0851979540379609
0,0866207123745851
0,0849997211487928
0,0840321719156873
0,0851707791556556
0,0836840019788016
0,0853592541609913
0,0878542280085175
0,0832485391783177
0,0861164182985595
0,0870999140787217
0,0822104550162876
0,0834003619391642
0,0860684236395038
0,0844024375111238
0,0844274201320126
0,0848492661673105
0,0856044801196736
0,0849960478768576
0,084565526551535
0,0839473548502856
0,0850741750951445
0,0865430103416391
0,0870749904141618
0,0831771220562865
0,0837803028664238
0,0857676885355477
0,0871971399483567
0,0865902191063999
0,0849714534231215
0,0840055493704634
0,0865599464866633
0,0869188613220777
0,087420451973151
0,0877033653779578
0,0870899263598457
0,0885157051284967
0,0876821603064109
0,0847632780813628
0,0877525470229128
0,0882075066109458
0,0885707634205309
0,0866489667211162
0,0886446381411772
0,0887925774319918
0,0876284992389123
0,0887280381616452
0,0880023978563588
0,0883117290564544
0,0896979821908437
0,0876578532716304
0,0884300318791254
0,0892423955265815
0,0910716532068725
0,0880513535722596
0,088321883343357
0,0902756013073709
0,0904684108726445
0,0912637092873848
0,0928148253034724
0,0897457883943913
0,0931992467874097
0,093240832911447
0,0913455512067939
0,0932863808600871
0,0944653128060029
0,0910768513039335
0,0918434254397937
0,0903137684463826
0,092604170507811
0,0918139191450983
0,0899112979139735
0,0913404763480096
0,0937658928193646
0,0924649844788749
0,0910702147981197
0,09305163777557
0,0924251060006142
0,0910513281543515
0,0931361096590495
0,091008815410699
0,0909268924697825
0,0913405781981091
0,0934502608972203
0,0915032163376614
0,0930048024058194
0,0927214520418737
0,0929792402387002
0,0942668110298656
0,0957815995058705
0,0946844594579242
0,0946512958299318
0,0933355973434229
0,0951886837117741
0,0959957261112224
0,0956205010306224
0,0961291051785799
0,0980873706759011
0,0942928106191515
0,0961097664734527
0,0990423945489458
0,0988528973863306
0,0946384152072158
0,0964390166043907
0,0956146940721242
0,0970032938467777
0,0969018119430027
0,0976269888871455
0,0969033394172101
0,0988880143316666
0,0959371747662785
0,0989198271326574
0,100418345905764
0,0969355932617108
0,0979916762118336
0,102411794256314
0,100448910522843
0,102716402711991
0,100108847710152
0,0990118660554324
0,0964420738739241
0,0957210063521497
0,0918253901766418
0,0977419921018018
0,103174371272105
0,108736474816506
0,0968610724233492
0,0938415761529521
0,0982906848155483
0,109622236234165
0,101651053999747
0,101239152221102
0,102580410364884
0,100951136809257
0,0994196534471443
0,103111619840347
0,0982591244921224
0,103336248271302
0,100433151777403
0,108217817334971
0,101240861371157
0,109702278093902
0,110039050241073
0,110454623068573
0,0994931020689118
0,104994287989386
0,100558987173505
0,105456494887721
0,104087659924608
0,106715104975328
0,106489395603517
0,114699178804266
0,104659582263402
0,110688934626309
0,104606405089951
0,112755553253367
0,105621062016837
0,109974320721028
0,100220443217242
0,107313221448359
0,101800496706963
0,111076754709727
0,110793185631651
0,111264834707219
0,106807276304294
0,10888413818275
0,103276580564184
0,111847611283027
0,119935111972111
0,115178580845227
0,10817890452291
0,102766564044018
0,116900212192369
0,111807066327052
0,116974084788465
0,103702061494286
0,124601175320348
0,111063155816278
0,118147085094481
0,107708902930429
0,126639997416148
0,108716734329298
0,123151023123306
0,113409489855012
0,120589163155024
0,11253534345891
0,121166245146822
0,109619995139808
0,117278943486447
0,117171312626186
0,118871778831791
0,116886455431762
0,119405602681163
0,116564985091034
0,118894026751831
0,11531872031335
0,116989506007677
0,114929149998997
0,118959573286239
0,119749475197621
0,121239622867452
0,1156570156105
0,119984570780733
0,117044854702047
0,119117881285544
0,11843467731605
0,12066796942187
0,119289233471757
0,120449110630042
0,117300745080564
0,123144589114473
0,121219463766778
0,12102482203535
0,119783175572661
0,121660017337229
0,119693869690371
0,121051357973845
0,123622202926906
0,124575093634402
0,12195116604014
0,125458535714884
0,124319855073495
0,12484886359421
0,121656889622658
0,127304583044558
0,12496740943055
0,124901529996153
0,127271656971401
0,126852474805186
0,124965611978605
0,128755257951934
0,125287883707687
0,126846550359152
0,129082604317856
0,129252106936241
0,126684132927616
0,127373375216165
0,128112746628958
0,131935564278258
0,127670622484722
0,130159781326435
0,131371735783523
0,131879779215985
0,130524022025028
0,131914215574101
0,132498642946448
0,134282860264413
0,131585375309266
0,132730139155047
0,131573449425849
0,133797325328123
0,132984124232833
0,136163211686637
0,135121020983802
0,134049281713727
0,134600636539178
0,136493949770729
0,135405252559191
0,136671109720377
0,13448810262619
0,135074052070477
0,133810988428372
0,137307754372847
0,137314654040266
0,136225967877563
0,135427971451608
0,137970719544088
0,137539307415191
0,139647238895285
0,137915263589501
0,137824183601572
0,136602289300437
0,141179307913704
0,141219689971863
0,140207883240901
0,138785000462215
0,142426674160774
0,141314620337911
0,140218594363425
0,141593152600879
0,143484138836098
0,143546427874434
0,144629112675911
0,144296927607141
0,145602305294944
0,144806076178271
0,143825519786618
0,144267010824547
0,147608166170889
0,146600785627913
0,146908809768316
0,14528924620989
0,144563985888877
0,14833803918592
0,149658793175918
0,14709012042228
0,147551429535863
0,146813849554801
0,148450046165817
0,150268644993913
0,151069471139375
0,149552546366757
0,149225583621679
0,150063942989127
0,150695740091835
0,151651107820417
0,152517581747283
0,14949214806426
0,151596137426078
0,152245049847615
0,152023593901433
0,151131323506819
0,152525590062011
0,152359124079873
0,153897651171618
0,152319490150323
0,152918764209201
0,153339044974165
0,153540909852371
0,154166564603575
0,154274417283984
0,156033823930272
0,158627285796857
0,15719300006655
0,156707966318637
0,156059610092306
0,154910997558644
0,156478159717863
0,156889482046778
0,15615886507615
0,158611558620312
0,158769868652187
0,155758156813016
0,157096710749464
0,159708009239521
0,156488327368554
0,158574563832615
0,159259049545354
0,159818710869869
0,161601034452355
0,160636968593881
0,160244352443671
0,161663325238333
0,160289959393824
0,161628422745596
0,161476536155553
0,161378740023879
0,162806852906654
0,161691489291303
0,161607610709192
0,161850733226765
0,161030445433407
0,16229677582741
0,162556251098435
0,166332549437397
0,164784165234258
0,160404393060716
0,161593352872862
0,16395431317775
0,162398110406392
0,164547278957676
0,164033271240759
0,164274305651104
0,165867102959765
0,164589000023715
0,165087138352476
0,163953635421466
0,162874307882828
0,165327205248664
0,166778993683033
0,165307039808827
0,165753597557175
0,165415458905515
0,167412617359578
0,164911198543867
0,164856734867241
0,169914878335421
0,16878187638544
0,165073395206291
0,164196706298666
0,166379255837748
0,165598363873947
0,165400048089478
0,166766592409384
0,165001175827121
0,163924089679182
0,16699022431642
0,166464762030976
0,164973148852547
0,165764166447656
0,164213035592909
0,164418305806801
0,166015697848496
0,16550325789694
0,167567050590352
0,166163090709081
0,165703974074012
0,165622656857508
0,166973636962838
0,166693463959963
0,163859251421891
0,163943466188376
0,165079584720119
0,164428276133579
0,16545492297931
0,166179049206604
0,165139261636094
0,167305456889268
0,165522492373409
0,164044758435565
0,164065442148095
0,16485405220748
0,167245030731767
0,164666017071466
0,163188930781355
0,165361796337217
0,166473342534671
0,167349071224529
0,166296963887447
0,162171831667448
0,16323210783138
0,165385652779793
0,163947757651847
0,163947153142998
0,163623223432211
0,162218995371048
0,164066512867556
0,166547639975314
0,164939534040539
0,16183832631481
0,16272043853657
0,161709491129648
0,160975990867371
0,161540621632533
0,159543107953474
0,162034731213026
0,16202219704104
0,160083330035495
0,159961212035751
0,160345949453769
0,160451311847656
0,160196782018104
0,158131152006383
0,157713526895102
0,158054202711364
0,157511841314076
0,158268197389588
0,159761637741983
0,158345906929009
0,156839645203221
0,157576832058801
0,156453456203201
0,154724063380966
0,15755562796146
0,158860641678068
0,155465395432883
0,155837851180414
0,156096247956086
0,155261227942136
0,155332541641782
0,15575163322432
0,156943868024313
0,151989656617474
0,151160662906634
0,152024089320381
0,151732237824126
0,152226242822944
0,152805989439162
0,152342642418619
0,152053334557141
0,151211725040235
0,152236072490049
0,152639245513785
0,150124719641708
0,149675054442755
0,150350198897508
0,151264867577601
0,147628098226583
0,149425845922159
0,148187898466684
0,14713861628672
0,145821910604307
0,145336492388447
0,145611556392762
0,147419396804182
0,146787981806045
0,146827877252032
0,145046294158962
0,146548108455489
0,144620674879494
0,14437965213372
0,144740631952334
0,143879936873917
0,144349685404077
0,143824141925568
0,144140716208167
0,143965055420912
0,139830135913926
0,144851011695877
0,141434061279085
0,139764203789641
0,140472749872173
0,1396934426743
0,138265983413884
0,137489599603644
0,137253400735402
0,136838289997502
0,138472940614086
0,138737182989234
0,136684665601675
0,13622801267257
0,135887374090456
0,136543812195251
0,135253176446883
0,134516084358133
0,132867072048656
0,132456891232492
0,135982894818155
0,133901042392445
0,133696487675493
0,132528621613831
0,132834191018489
0,131294820600525
0,132178603416369
0,131831544806347
0,131675361409492
0,129358115657963
0,134924595123877
0,134995529943453
0,132852078908194
0,132504031676629
0,131256084100921
0,128358111395663
0,12735538621079
0,128992282253118
0,129454416959323
0,125960157307178
0,129124389709494
0,127322176942635
0,126217387549638
0,129063450658519
0,127450065965495
0,126282901568446
0,126445289917858
0,124735366454319
0,124880800676639
0,123667087927494
0,125721827974843
0,124949328701907
0,127805025325269
0,123623636376014
0,125201403305099
0,123014541148722
0,123320676030109
0,126228213872893
0,126876399277007
0,123235931381303
0,120246010211133
0,121732964407545
0,119861985677924
0,119929305492161
0,119780269423571
0,121474112578314
0,119832298341242
0,118850759115145
0,119446806636208
0,11567001848478
0,117629928301882
0,120626923019581
0,11451415116803
0,117554208834029
0,117077200590744
0,118839896856083
0,115658541109508
0,114532596636833
0,116565836898928
0,117346824993616
0,117971334548168
0,118964298378642
0,110491919028994
0,121353435132099
0,122405663885957
0,119364123118857
0,1120390915155
0,116806781931424
0,113028864114359
0,114591304617196
0,11277109641792
0,110765441003122
0,112058180620438
0,114174934181035
0,11374418710488
0,115048086650574
0,111942002222516
0,114541325027624
0,112242529594785
0,111844695913884
0,112819279470609
0,111258930251123
0,11207597222928
0,112046281218326
0,112010816957637
0,119000284047603
0,112722205359377
0,114019190976735
0,108485200215255
0,110193916058811
0,120764429160683
0,117423543782643
0,1109771647466
0,108466823204101
0,112394767061045
0,10746431698352
0,113884402650873
0,107044455576916
0,114525916805547
0,1092285603218
0,113147562109157
0,110994001627573
0,11042700707662
0,107253743642928
0,109297254828414
0,106980420622136
0,106759925506462
0,10729200533049
0,109391386937697
0,105982052989955
0,108052956357854
0,109954050850157
0,10865554567882
0,105691801843459
0,113280108924693
0,110700994317947
0,109849397864887
0,105882891795021
0,112792389184682
0,103752530607566
0,11510588939027
0,113488636520137
0,111929207128589
0,105642022358111
0,108485376231935
0,106189703542084
0,108080777725272
0,106149902501579
0,1070128721402
0,105645714001939
0,107039793027472
0,107606917748537
0,106206791361404
0,10629471116054
0,107278714194197
0,108090786576548
0,105274568046346
0,108736812599807
0,107358382348512
0,106777756523737
0,106325174604722
0,104478218044743
0,118479458925848
0,11492970575068
0,117542998196601
0,112091661131035
0,114183248601779
0,106759636726809
0,111824683766479
0,105440934980143
0,110269278984009
0,107826745764895
0,110707608160215
0,103877725935331
0,11045079189918
0,1048520003237
0,110355831269898
0,103606035222417
0,110431047134685
0,10494974638741
0,110887319831328
0,104982816321315
0,112056913191641
0,105654796412131
0,108176194283515
0,107754760248341
0,113824438992969
0,107908843367355
0,104036933958545
0,118128445317657
0,117111324329097
0,120987760122586
0,106800912762462
0,112845925302123
0,107622727830249
0,111021853589784
0,1092098067775
0,112304510014543
0,110244639806998
0,110521660475747
0,107864235118205
0,113260397661515
0,108119606894042
0,105160109911369
0,119071759453942
0,127744237854832
0,118040958513252
0,115094631650328
0,104604833169569
0,117112575659619
0,12382650739601
0,118621497310787
0,112236228405605
0,11600519484079
0,114778499384993
0,113846913037313
0,114720284847836
0,113873404261423
0,118548603771734
0,114005845179962
0,117543871624134
0,112349028556369
0,114413972711165
0,114168927053576
0,117163963805873
0,119667815369086
0,121831205296029
0,118908461337629
0,120429190752983
0,119504655189359
0,118086757832522
0,117792812286942
0,119795723052278
0,113554585129577
0,124984451063736
0,123432985557868
0,123522630727593
0,128180815112211
0,129039092896261
0,122144999052644
0,120620474337895
0,126061957616423
0,130501135731074
0,112886074416806
0,13572711857121
0,125792439895515
0,148857995277015
0,124576048034239
0,135273695020171
0,120240563276287
0,13365215830476
0,120965277684538
0,128693855025104
0,135215681840475
0,136545031472671
0,128150471620009
0,127067527688896
0,132972469244261
0,135632544516468
0,138615317868263
0,13128303307161
0,136115482011666
0,128392527266467
0,149317378327535
0,133331390528009
0,136192545345372
0,144817578095664
0,148471734431601
0,160626170297531
0,138741831083075
0,14628728495992
0,149539375667771
0,155670226068544
0,145508395151161
0,143387509907626
0,152015244890087
0,140105304864743
0,152662090607
0,168269545579856
0,157808461788076
0,156373565607683
0,149621410784087
0,159485038156068
0,166368869248344
0,169045964020426
0,160124734149503
0,163934263939071
0,159316824613326
0,159711335631286
0,188274627250488
0,1730688182364
0,178365431188061
0,166611539622315
0,190525546834644
0,175626462346412
0,185020576726499
0,171253281951264
0,188737610082314
0,188538531665268
0,192250710002528
0,170869698430272
0,200575334286714
0,193590119113383
0,200646934410214
0,18956667058685
0,196010402760522
0,183297237544966
0,214718024839742
0,232473516280482
0,227875810881083
0,206566659795488
0,213898357519566
0,2206040852651
0,221409977304463
0,217392554937445
0,220226229037733
0,224336795196753
0,225348263631379
0,231505762517325
0,240331746342621
0,237464471153803
0,248161692315217
0,239803325392038
0,253243285484188
0,246447629913489
0,298996602915118
0,272998612088977
0,279955071308872
0,272377990379053
0,295803371456646
0,285226914584635
0,288800136223751
0,291302699937694
0,293036378793423
0,309258626855394
0,30815816731579
0,305434668281409
0,326580258172172
0,322593370931145
0,355064084469179
0,340210568410782
0,35398411630725
0,320836741297062
0,363383779677773
0,428025536569207
0,403259218505969
0,382149942761928
0,372040889894928
0,399629928061551
0,421581704708778
0,427817747999104
0,410617511251901
0,416814833811107
0,416962930642084
0,433557486838277
0,443718805190851
0,453351361456491
0,469125312425698
0,46972580438577
0,457992397813515
0,468664187949965
0,530748981979219
0,557038484814714
0,517165529599156
0,51589455638056
0,528296661943082
0,546378982815402
0,538018377860574
0,554823180658221
0,53794609999923
0,579083939994313
0,601100224137664
0,618778820875574
0,578193657660394
0,604086160104923
0,608727551615781
0,624043062436435
0,633262482828114
0,655306196128124
0,655228647214485
0,645691761013301
0,660975001912736
0,669798782458387
0,672110932770813
0,688059061626742
0,711638733595976
0,71585001478168
0,708807252185056
0,735228012276789
0,741664685339722
0,744209631853953
0,7439782305846
0,759187152964143
0,751762512809768
0,789583726493353
0,905531002164
0,828970687149252
0,797056425164834
0,794351580368571
0,805595035254841
0,821395319784501
0,8284462347668
0,835971483369077
0,841888111327506
0,833569119811643
0,81492314966745
0,835856771567752
0,825716651244999
0,858485701208781
0,846620587935634
0,83924871687828
0,861066268212764
0,842406975408906
0,89724884084488
0,942953715165906
0,885663217285015
0,84043735439971
0,853857541208077
0,848334930879061
0,864193253784246
0,834776676186883
0,860963871434153
0,841242330012446
0,824092583078099
0,795317791677392
0,812915116684877
0,869294765062355
0,810541123529673
0,795573156973643
0,776320516117856
0,772903342279249
0,776830801541015
0,740493988822259
0,750785312059571
0,79006803092931
0,751069554256181
0,7119283612791
0,721352086024701
0,699344337439393
0,697950260813686
0,678038606320829
0,673261348219907
0,662233802270723
0,660248272380435
0,642989230017472
0,642427651126594
0,628239374453651
0,618892445068334
0,619427183390132
0,609229539501504
0,59611881506348
0,582162177965909
0,585402195827699
0,564656248631515
0,564236134170311
0,567986359903991
0,55064330498565
0,544938061157482
0,532136853857321
0,527689484742798
0,531686977007921
0,518391255193208
0,523401915079273
0,511006570793827
0,503810769971834
0,495019592268233
0,494287395731947
0,484553106567482
0,47940286334424
0,472110717307226
0,476080391995785
0,464777043208838
0,465140616883568
0,451964743272535
0,462976919809902
0,448241138751156
0,448218605633053
0,466425322003191
0,465221199368081
0,457514820889863
0,427717002980918
0,441329836618977
0,418456627344066
0,423452581248313
0,441245196795282
0,450427181062594
0,433534103416133
0,418944816278587
0,410849705088611
0,430101759899872
0,419041470750375
0,416750059962107
0,404187190519691
0,393408228968213
0,418720876525413
0,428875707118043
0,48287265029735
0,47024058357097
0,431277258001101
0,380812213216272
0,421733063214707
0,406940205948783
0,40520178997144
0,377936095457162
0,383888008445344
0,386664500816398
0,388789339398844
0,386924266997659
0,371197273228666
0,362430305734091
0,373730356590769
0,392074901648816
0,36162361878467
0,380670185341855
0,387857457449739
0,36658041441236
0,370218993124506
0,424599124926106
0,383563732164256
0,355841503227402
0,353857676389429
0,346127907474471
0,364052833231034
0,360344383714062
0,366227499798646
0,354699889614549
0,345329397021958
0,34467207844982
0,338743538076299
0,366249857538622
0,334248200936786
0,351522825939744
0,343125076941823
0,347192390623402
0,324282558345379
0,34032962058092
0,361726094614002
0,376673103488268
0,345683707994169
0,314555961246283
0,345049890794911
0,346922428439223
0,349382836649591
0,327022026244307
0,318472658554908
0,327606079179812
0,332467854924155
0,323116305589311
0,322903871727987
0,319230372611824
0,330642361114799
0,320957315513798
0,363480269689166
0,353378382544933
0,323666944890404
0,309173289315978
0,304140813430296
0,316320358960682
0,304038276072662
0,302928673472935
0,324319407088911
0,300531995913086
0,322089501005266
0,305118112890687
0,322281476375917
0,305099434674341
0,303277596079055
0,295851877294297
0,302526570481108
0,319666507840945
0,330441182092919
0,299626840791168
0,312835601604145
0,298504669110276
0,316956634967205
0,295398039372602
0,306080520178097
0,292981804580634
0,303330115743863
0,296219057060109
0,305923638289663
0,297032197297382
0,305992824868148
0,288845721487538
0,331437258746197
0,302567306466109
0,311413829102825
0,292507890026863
0,33108103181952
0,316358167255883
0,319214441397667
0,31394700094701
0,308294239331174
0,306950725025346
0,306558369151656
0,296722099039244
0,3185882557306
0,31143864675671
0,324083271385398
0,299602449410216
0,317221669759522
0,297607699134303
0,319137288963247
0,313519811417929
0,315105444027511
0,346832088391882
0,334735699612573
0,336533600201209
0,310240290768856
0,314538880981282
0,304988305255101
0,314005601212474
0,313792933359981
0,296018552189139
0,319729712709485
0,316144845834936
0,317652172776643
0,308572533664741
0,308992676681112
0,307662560513222
0,310472534896225
0,30807059866197
0,30987458087639
0,304827833804659
0,318981148607596
0,296011828865708
0,322325646039927
0,336219171631607
0,336060042074983
0,312780631312709
0,308511419440591
0,318174496191122
0,308477907074176
0,314349357084562
0,316994822246894
0,321581985473052
0,317093936156736
0,309454341815289
0,320321008433185
0,304144982295129
0,328144927556642
0,315197574097594
0,323933910369249
0,320394680744311
0,299612143537907
0,341568593003225
0,339846639407904
0,339085111567592
0,31131702384718
0,328281011217481
0,310558194915746
0,322944578419809
0,309994639645562
0,321210131503406
0,313821445941414
0,318484801027724
0,316490600881226
0,313863078085541
0,320118869222712
0,312485389431632
0,318501390873003
0,322499262281199
0,320719011378171
0,31607351096816
0,31500796304296
0,309264059445223
0,310435241118851
0,324495431536042
0,319726179854632
0,322265707904633
0,305431032712901
0,313656791647659
0,325608694043192
0,325686075076272
0,313507125262904
0,309765129254688
0,314047671733149
0,320159074054783
0,300915245596129
0,312465741550469
0,317671760916385
0,326698636882694
0,306258804380306
0,318394048456811
0,308592591376143
0,316865421288863
0,311370557701307
0,317540295600101
0,311145226502131
0,322012418231832
0,318016076904726
0,318247863129346
0,313116613526291
0,317313929721079
0,321757525867175
0,332880463809377
0,31651711897576
0,317181703375976
0,310573442827595
0,320273062533926
0,314612909156474
0,321531687292882
0,306886438419649
0,318158503478036
0,300619074324437
0,316934778706
0,314744673471388
0,315828682161222
0,309394644042576
0,314945274933042
0,310104934401885
0,303535444283632
0,309007215658042
0,305976960317782
0,307375685959635
0,305629015053517
0,30165707732851
0,304456521006765
0,30144848528892
0,301806215006167
0,301235612467273
0,305529871431039
0,300848986886884
0,306145710015801
0,301623464998464
0,301374014538891
0,301965735880155
0,302632734505147
0,29589080103216
0,304917941791794
0,305415245875915
0,308179619447066
0,310931585163769
0,304181359774517
0,31039227864676
0,304289673041126
0,302882352265456
0,301691059868574
0,302830804591016
0,294765973335544
0,300843606783411
0,297123030975209
0,304119806965277
0,303717315504324
0,30239635673577
0,300370611753303
0,29674681753987
0,299048123737601
0,299400822585008
0,296981308030785
0,299822623815624
0,296791821555757
0,297246113131187
0,301973737941082
0,303100475061877
0,30096060993385
0,301179844965005
0,30528839441272
0,298748900043584
0,302831614281208
0,302444493869193
0,301335483267977
0,299347946737756
0,297042682544285
0,299511914413227
0,300296766392465
0,297601194379081
0,298407211515305
0,298709266330613
0,296179480390784
0,297888276320547
0,297175024516314
0,292795805308476
0,295488889646207
0,295564076944995
0,295505748848966
0,291187020792158
0,296701920390804
0,295743010102466
0,293811882911256
0,289133538662187
0,291635929062825
0,291811859049594
0,288354130915644
0,291390716289777
0,292389146918336
0,288869700325023
0,293770766469183
0,289982265991121
0,290636929272801
0,291939792728343
0,290116139363053
0,29070411358358
0,292432862830619
0,288192001089752
0,290492569720812
0,290224678827907
0,292238866517226
0,292004716543099
0,287986669627847
0,29015459703442
0,294056395820755
0,290438265437752
0,295447975386119
0,294875299862743
0,292844120546687
0,292057327457294
0,293555086615277
0,295236800308337
0,292235200714042
0,294312698245395
0,297950343203551
0,29491494423936
0,296573371543398
0,292764343370625
0,293121858791379
0,292884579108367
0,297730623085174
0,295967324088071
0,294566213661325
0,294442417852546
0,292911873927936
0,291718652210697
0,292889422094579
0,293755957258282
0,293131701434569
0,294198892561429
0,294620482571317
0,291507029445044
0,292187709316347
0,294411511752537
0,292598056940304
0,291962019576277
0,290897933698911
0,293255037317272
0,293457524245462
0,292406937491052
0,290518310743832
0,289083929701361
0,28886146248531
0,288677258910932
0,288005925082931
0,289275878551693
0,287094625123259
0,28800178283199
0,287982377653469
0,289496312182353
0,289516433707663
0,287541008520228
0,285931339804632
0,284694744613918
0,285616574471406
0,287496477514654
0,285692991784301
0,28754384172145
0,285748794611782
0,290582564384215
0,286221572593725
0,286619494506703
0,286445050207069
0,28566099992821
0,285685426862523
0,286388244885092
0,284663426549341
0,286436723383998
0,284169619797422
0,283770901631177
0,284600304951059
0,281635185946968
0,280869590743149
0,282224162484306
0,283820274795817
0,278481546982584
0,280348472937522
0,278226055604997
0,278105736379965
0,280180144252001
0,279059935066919
0,281244278083581
0,279380620018988
0,279759954027486
0,278901170368092
0,2789024864426
0,276070503354302
0,277341533226629
0,277287041779619
0,275624710342504
0,2769169212273
0,276417129210958
0,274276598271912
0,27571368815087
0,272326551561647
0,271513172551608
0,273386677803778
0,274531229330774
0,272911834805642
0,272646889780287
0,276902728558164
0,273732095987982
0,273485806033353
0,277034447078081
0,275713156065556
0,280449973126337
0,27990383318446
0,279800321306084
0,283204860472897
0,28443840249497
0,290483772285168
0,289775912959819
0,290426508544252
0,296214295523882
0,299152515420327
0,300181273756498
0,306591839365763
0,30600095233074
0,309483233147063
0,312414237347983
0,315666890970955
0,318003422130907
0,319615670679157
0,323905625538169
0,325574187299647
0,328508580199
0,329668842810071
0,329079753734734
0,330537918362477
0,332047405231999
0,334366064406893
0,333379003443231
0,333348195240454
0,331131566255385
0,330578944856354
0,328440626557829
0,332483108685407
0,32757342681278
0,32591465116225
0,326050156989308
0,32521321727433
0,326220786544175
0,323161890986274
0,323287828715162
0,322036798409738
0,321782399327308
0,32358300333617
0,325635478712536
0,325504509208675
0,32417167628783
0,324104773365936
0,329102411772829
0,331822757329847
0,328372972981059
0,331158592643551
0,334144838664588
0,33655752118969
0,337361278828494
0,340766188867584
0,342385917770417
0,343419991269793
0,346902093773906
0,350695717327694
0,351322139420293
0,357689349974064
0,361023549209688
0,368790667863569
0,370634369994347
0,372711889785959
0,371479082329183
0,377589521685783
0,371965365930098
0,369909340620068
0,37401155329636
0,373066494015885
0,37116254877622
0,369461633968161
0,364194522192313
0,36351365518072
0,361876549627633
0,360814281076617
0,358567946690239
0,358159206249349
0,360775692944763
0,359256498680319
0,362587077772297
0,368748516804572
0,368273206700492
0,377635917816086
0,378760497762853
0,385327894857904
0,386470032223563
0,389511277136702
0,39516836661176
0,401087190961228
0,401910623493293
0,40795220245089
0,412810924732677
0,411341828731735
0,4140282365514
0,421010643686072
0,41655611912617
0,423142474169455
0,420010910626037
0,428835105488584
0,429419429408194
0,432547308486876
0,434294291059752
0,442745692365123
0,44564378706964
0,451654663678666
0,460324257124332
0,457631310132032
0,460127898834661
0,467141012935374
0,472739553949749
0,481292349960926
0,485774911552061
0,484580575197219
0,485056680720754
0,49531548549577
0,49101918488868
0,491376386343893
0,489515806427486
0,491440583573547
0,484347431001263
0,475623931330381
0,471417930300635
0,464257510143919
0,459247342531488
0,457881007257288
0,45518364232808
0,453078605828321
0,449090239037329
0,448817136204997
0,446835583372781
0,450877345984903
0,450648688508464
0,452745334892608
0,446884303865034
0,446038941636097
0,448401455590792
0,454144019069688
0,457207500410824
0,45490749615032
0,456679898404672
0,4661594079633
0,461166667140732
0,461839975439346
0,469774996038862
0,46813797240184
0,464388902012706
0,469182048640986
0,466255846702623
0,462966919102058
0,466422615153403
0,465199297791693
0,463709825344916
0,47060801947569
0,468470110899696
0,460580128888603
0,461979761892633
0,465679333457075
0,454309398228365
0,459050611083519
0,454474282983882
0,452788515328163
0,448719390858023
0,448050609637506
0,439120048810176
0,439896675811231
0,430660275459018
0,434045260502459
0,427928321952877
0,421355499174746
0,409888150791556
0,407546470507177
0,40827584597972
0,404118149640833
0,395275405649722
0,390489065530471
0,380306944313414
0,367618718023598
0,363336480169248
0,351857872499474
0,347759589088634
0,342034807795771
0,329709120364362
0,327827388564854
0,320172797894053
0,32086924623243
0,321467888451126
0,31942779062081
0,31323231054328
0,314847899148043
0,315304342164701
0,318737769455413
0,314684750605316
0,321494316830662
0,316834866382129
0,321137514980464
0,321364430882975
0,323164207093285
0,321133321357081
0,327069333495276
0,324496856515707
0,32961282453522
0,318128460415635
0,323696642058468
0,32747804365456
0,323969323320257
0,327278074919108
0,329259062144643
0,325966191839862
0,327821659227532
0,327519702258195
0,331943964338629
0,327672235788121
0,332239696140326
0,335346255146365
0,332013849015237
0,327154253467371
0,331612392751896
0,330882789505836
0,334248584014771
0,33969513991223
0,3330356585432
0,334348390180859
0,338782038940179
0,334596777648055
0,339626568292614
0,338451501746304
0,342592914989713
0,346031313176389
0,341433627339128
0,33437328892992
0,344754107809395
0,343697058343164
0,351272407937417
0,347685957806098
0,352681498991133
0,351158236731846
0,354386704377048
0,356799081019572
0,359033747004824
0,355977670253108
0,361865794550543
0,361683186590829
0,366564084648568
0,364504598382777
0,372346779740516
0,365903606564605
0,369370282017887
0,371214106034748
0,37137154810269
0,367888977613562
0,377199052758771
0,371101678221109
0,381015643116693
0,377195613946313
0,382536916303591
0,377219899852354
0,378316370151688
0,378281924613144
0,384532422526193
0,380183868651137
0,391135013507547
0,386845051154341
0,391414658724571
0,387070781072946
0,392223127497218
0,397996422629276
0,402340182069021
0,400225902849514
0,404253176101093
0,40673802593518
0,41406722777617
0,414192035826076
0,415605821664078
0,416774399519126
0,42445644528392
0,42290875016132
0,422458505682762
0,429399871613396
0,433920143283102
0,432324370717087
0,441006178063085
0,441080477341233
0,446869176067975
0,445202928579073
0,450109371669547
0,449566919473918
0,452451212635812
0,462274203702804
0,465421656897955
0,464349201326176
0,478024670752543
0,466729096063358
0,481051267756496
0,476043923740089
0,48113838845022
0,480921604921573
0,489332865793274
0,492073669512066
0,496179005225824
0,50652467177525
0,509722847795052
0,501467558416676
0,51910232165471
0,517491864371326
0,53937231433697
0,529881963195036
0,538072738984436
0,538924466004812
0,546878918672551
0,537421513293114
0,554614100612507
0,552847146267722
0,555421336972084
0,553718704777301
0,566129114614781
0,569321821268526
0,566645836133821
0,577008296689613
0,581998279002225
0,579699104389085
0,575396057749896
0,582311622930604
0,59318392007821
0,599831824619205
0,612879783122886
0,589053716059421
0,606815672453687
0,603028373961902
0,618630514404057
0,615746029490688
0,624792154424566
0,623846171830102
0,630211455818958
0,61763064218504
0,630976290654146
0,645949765209664
0,645494416715791
0,633817800601033
0,670588389482943
0,649843112850772
0,657129818677927
0,649160702431639
0,675601807880436
0,660011115908447
0,688191709894378
0,677559542663364
0,702703174050872
0,685030267903834
0,689514314449311
0,688043285500819
0,713858639085016
0,691323935209513
0,714370388295716
0,715931332952393
0,72935456565721
0,716872625055627
0,740323177655875
0,735710295472215
0,748191924198724
0,747311544580001
0,763001129197657
0,752439337475092
0,762834849226937
0,756216060378805
0,766404327044762
0,77219158581913
0,78441465247548
0,778998827631071
0,768117504023389
0,806169214035258
0,801483018621404
0,7724149092288
0,816618482017086
0,820785300651682
0,804940066086039
0,839562200239836
0,816311040421391
0,811951777786672
0,842984682348548
0,829309281291382
0,871411332520827
0,822945020497541
0,852997149083958
0,834227877716116
0,893071221015994
0,827347878933151
0,895581839889757
0,835289136975701
0,948357907616064
0,859486959294728
0,904486599562015
0,867855773160158
0,909653606920403
0,89119756875565
0,935708275346323
0,878663819765205
0,890124397580089
0,904081564516358
0,956556904810646
0,906029762391286
0,965742941719231
0,906713898156394
0,927244758321466
0,949517694272492
0,974330880206413
0,954688358526098
1,02861871674952
0,963925142919843
1,05255455492426
0,948313231376838
1,03094905807115
0,926466871117812
1,0138649245237
1,05355434456155
1,0376193176278
0,985235087063597
1,10212235843063
1,0449171283311
1,07142326797783
1,02904532643098
1,09342700546295
0,98536796138499
1,12471532793525
1,1526636309661
1,13174115848087
1,01509700839757
1,14844519870629
1,04836066046401
1,07883553175171
1,02561865733433
1,13889561347256
1,05390706169612
1,22616889694383
1,10937731419372
1,17608365544086
1,08088768156127
1,19754709397119
1,02886749521603
1,17213165832281
1,11340792536135
1,10690438006579
1,06927725189026
1,15963705748415
1,12864154092963
1,20789681462374
1,14007125841614
1,23055582063578
1,10305301681155
1,38179243753307
1,15970193950597
1,32038362599284
1,01534497702976
1,33968173535505
1,3289266889699
1,43700530713679
1,09829018194878
1,26632479456876
1,26299902920882
1,27086049128286
1,25145716217824
1,42074043231486
1,0570102247624
1,28442534399173
1,21708392108788
1,39477118443165
1,16428242359293
1,47249288329658
1,081543554445
1,40342099803555
1,15041597248237
1,88278362375558
1,52869555263117
1,51528353252885
1,23357026223387
1,54718364484366
1,11161313052101
1,27804830572336
1,24484269325048
2,22276306880371
1,15696039256699
1,56529967216167
1,43061692375054
1,67875166287895
1,31973185533971
1,52924731103871
1,24115397934475
2,66885590857397
1,43040317104178
1,28947278011027
1,24491064799222
1,43590950625349
1,24968870867663
1,43632237331088
1,27549660584008
1,24344402894832
1,25713521766404
1,96427054720264
1,17121376972618
1,60441214022876
1,46319544693259
2,57643119667992
1,16951018485416
5
1,25284030715024
1,59849625096925
1,33317995100736
1,76343846031327
1,44175945444517
1,80690514166994
1,49260568355164
1,30705581104139
2,13394813613754
5
1,57530211255251
1,03920014586105
1,0726689367732
2,08527823456471
1,9222215745952
2,23586989754567
1,42867174527033
5
1,1322718368081
1,49322863329812
1,33413690363297
1,43510155225771
1,34904498769597
2,09895919302156
1,05909497383444
2,03861125028554
2,00212701581689
2,11477952404814
5
1,26022463031781
1,17621808269587
5
1,33729006275435
5
5
2,18974509616622
0,874729943026239
5
1,3005874788534
5
2,27091318543887
5
0,931538206144714
2,11097058202736
1,01570232477755
5
5
0,863564954494148
1,6293750501604
1,71822327179409
1,10226777998243
1,0882237698881
5
5
5
2,99922240137099
5
5
1,33295204594636
1,08981445480215
1,07100523424911
1,25182678851576
5
1,16403507285921
5
0,897514594155579
