3596
4000,36533379555
650,420452594757
1
2
2
0,0528552971672489
0,0671538142969405
0,0585655146423579
0,0600339168284799
0,0577276875208781
0,0662441083928074
0,0522238139189376
0,0546219128437197
0,0492192835415689
0,0705200937703711
0,0589472037184797
0,0580105391080473
0,0566774901675954
0,0509888329880297
0,0550311726850673
0,0662882169840831
0,0491746320485221
0,0671429002788876
0,0531943051276431
0,0542418278376594
0,051953743119393
0,0456877383623079
0,0534745060004053
0,0572063094810736
0,05252206728853
0,0621717412504595
0,0536552529041807
0,0586778746815974
0,0483618624595432
0,0664260980456356
0,0598518458988157
0,056523113063043
0,0545727834919823
0,0720256628421508
0,0608095264570548
0,0575402880814598
0,0493071644568538
0,0618995042540598
0,0538838570982964
0,0626654396119068
0,0575826230586618
0,063246500294385
0,0551565021497921
0,0634246372529063
0,0612336573882095
0,0628007274644089
0,0614176354711995
0,0605739813043132
0,0502354860031739
0,0578684523393013
0,0600448124855724
0,0632606469951618
0,0642204353730915
0,0663653069912368
0,0541741333385505
0,0766026264408347
0,0651162968215102
0,0588092440874853
0,0531039492017824
0,0541660178465652
0,0597727788362366
0,0725095065361956
0,0516495784793959
0,0603277395821828
0,0433626627164591
0,0669646266101808
0,0551758335271388
0,0595944836985639
0,051001967302204
0,0741548029911425
0,0352657583518064
0,0750102955153823
0,0652186250386821
0,0551844893177088
0,064005357859664
0,0660990397215723
0,0509628796776646
0,0611234712365541
0,0445790935218658
0,0655032994309104
0,0625450240786679
0,0654376039196102
0,0490501468049275
0,0545659426151513
0,0548773633570762
0,0874682520030931
0,0395547189877234
0,0581703988067166
0,0670736865293256
0,0634344384334116
0,0550524169433617
0,0607234671648463
0,0480461018477364
0,0630539613971224
0,057841857642447
0,0582671375522275
0,0483402014019659
0,0632177768554912
0,0400574635543578
0,0546561638831065
0,0448281638164166
0,0464992980668029
0,0970461766523534
0,030449774487234
0,100949794090326
0,0632267778954155
0,0323941727211124
0,10680484273615
0,0618193764917813
0,064619244179647
0,0447201084393514
0,0654429481525219
0,048803306937879
0,0705685840986425
0,0295516311743518
0,0806250073234212
0,0794939023053208
0,067546287606294
0,0531093288511283
0,0693988495990373
0,0214644899161626
0,0770669915720935
0,0949236902683649
0,0534853686363536
0,0650105423525799
0,054982260821801
0,0352214142502423
0,0806639095710448
0,0845083811711001
0,0627125711101481
0,049785602316008
0,0558512482546429
0,0434151390010995
0,0314284237870075
0,0838037965732556
0,0599278599623122
0,0579132138471572
0,0318043094297333
0,0534588765339295
0,104644756345497
0,067967477256974
0,0631548490636457
0,0328672007463048
0,0428201287633908
0,091238146070742
0,0678285175034339
0,0369621768665378
0,0811111068069377
0,0700678511213134
0,0560394920878545
0,0513125258867704
0,0465921611075341
0,0599142328635313
0,0744883736182503
-0,0162623823040738
0,0901632961031688
0,0924245095680621
0,0427767096189831
0,129791286788315
0,0433293828017444
0,0687880282861011
0,0507041099128541
0,0631314077914719
0,0496544391037797
0,0619422944523438
0,0423143693769245
0,0539784301266014
0,0881235766091318
0,0467101528535659
0,0495657619699148
0,0763470484252193
0,0677040434187175
0,0191465401178317
0,126380986172464
0,0635269554984655
0,0441776343656181
0,0822325646947712
0,0756543367424145
0,0394008683824872
0,0518379719453093
0,0858733466093151
0,0594953867931222
0,0508218549026717
0,0481640221892673
0,0514651245101393
0,0694211986656603
0,0598401339829478
0,0606168427977957
0,0604290406009632
0,0288173099873293
0,0467335812240219
0,112091755729788
0,0842513393768353
0,0548323936616583
0,0664589015432308
0,00780223522902415
0,0814476493750936
0,0930163511767187
0,0574859914159253
0,0581468674114393
0,0507572375022796
0,0569543545389682
0,0459235122027662
0,0569144598261979
0,0537921013129089
0,00868520552249239
0,107965631928192
0,0714794398584563
0,0582966186679393
0,0493776650355585
0,0580079995174748
0,0187704617490595
0,100215601961299
0,0905840866658888
0,0542338207518993
0,061820818189535
0,0310865833254879
0,0737809280379064
0,076103003677011
0,0606561333052853
0,0583084715509201
0,0551108335423047
0,0497803438145717
0,0614402258970017
0,0579981300538036
0,0618082006294344
0,054590356922047
0,0624252488233281
0,0573117968252903
0,0501840801626436
0,0684128547490767
0,064617163388782
0,0520445823664759
0,0732841381793847
0,0435543437655317
0,0633351854508856
0,0813280659386298
0,0689247099896491
0,0673180276161897
0,0570606911104481
0,0642824096148302
0,0585600111917392
0,0629049616681341
0,0548401469042179
0,053821134061163
0,0383858779546003
0,107340084529201
0,0618893892577972
0,0704588164675801
0,044179965078639
0,0755073013795483
0,0742185762992202
0,0605152236852469
0,0576014388697177
0,0678057374161567
0,0484029357951975
0,0515927503426477
0,0930630412546782
0,0747364756459418
0,0469816122658352
0,0731214145004162
0,0772417308341597
0,0623431794177009
0,0521907555863724
0,00941888499059432
0,167621051837543
0,0624825396376055
0,0255772750692864
0,135383904077363
0,0769216604741389
0,072125471648739
0,0644107695354228
-0,000417297694760525
0,169778236828042
0,127642907539631
0,0765400031061507
0,0615073659312976
0,0967439849712557
0,0641309994304087
0,0791036474531947
0,0573560370654365
0,068499931409864
0,0861780603576744
0,0920089307508897
0,14246937454526
0,0377235623682731
0,0980401063897714
0,0897124174330317
0,0830630262403154
0,0710522219519022
0,0736031671349553
0,0573122229344929
0,0856994850422526
0,0852128799580238
0,0870784686384848
0,0883795412209686
0,0655666211266863
0,109480132776944
0,0867506747922292
0,0806100176921826
0,0732681816179539
0,0938412783926831
0,0742620562275032
0,0895224502523427
0,0673155813008556
0,0959173057798661
0,0724523033330003
0,0595673070637176
0,140661677008412
0,100872175968
0,0798029544155142
0,118566282514949
0,0893026640890925
0,0939272458164816
0,0848338040837295
0,098980489836512
0,0860134891657703
0,0950333258839867
0,0695873199045744
0,13422479395672
0,100658718401088
0,103559489536783
0,0960645723425738
0,104027693921359
0,0943500344892756
0,109840070155827
0,107985501859457
0,111421431366692
0,111766141712119
0,0996138344849375
0,116338970003315
0,162448935452729
0,0784220831040107
0,159422900771332
0,16124924167118
0,139333256306001
0,131186272637697
0,125582213488196
0,136507185275
0,128371510473102
0,135505586508986
0,139282238486824
0,144522257913853
0,165615708700601
0,161429232003233
0,149568263473433
0,133303401821205
0,195821638384786
0,232418716890386
0,189022955869301
0,185269897703388
0,140425279881193
0,21353075967726
0,21594486518355
0,189957769157914
0,225152064157382
0,182288303460802
0,220589548977709
0,197615553270411
0,228135725079114
0,208633960464357
0,234729264097319
0,217665991142843
0,239932657010628
0,226153993426074
0,263023193730203
0,228412720301667
0,245536131118998
0,29514255140141
0,27605451790507
0,247619178380397
0,276726208540904
0,2320653997978
0,292250751198064
0,272484180506261
0,347885286328428
0,308607920194092
0,312699379126358
0,341927680072425
0,318436383815146
0,312707270642316
0,305218552875268
0,320871744200777
0,331846429204255
0,33106138876256
0,344506864145638
0,32757445111573
0,344825183215373
0,351818211854746
0,356215994798747
0,355738685340327
0,353399886214641
0,398146845134212
0,37267953781547
0,375016300327108
0,377022419102244
0,381337797411079
0,439217321214556
0,446631996790675
0,407113380267179
0,398444526747342
0,414435077579967
0,401468918613196
0,421247327294664
0,411338754219284
0,429621460629469
0,402551886960077
0,489928345993497
0,447734702614729
0,480715135553791
0,460022365998182
0,431131828546708
0,470186933602619
0,460104399621416
0,446712148301478
0,501910827445472
0,480036900577444
0,463277849418638
0,49499620599549
0,523227707628604
0,481545936805669
0,531892322709965
0,493096756181307
0,516082732294203
0,482001440871614
0,521196492102349
0,510172474761907
0,551155591842655
0,524499712854622
0,560731374253897
0,52210859388556
0,539935165051455
0,510338772825735
0,602100366701984
0,54032222565264
0,572031823074952
0,568810833157254
0,57976674044987
0,586502310940796
0,561540734330239
0,576621003797065
0,61482421727355
0,598519756632822
0,643267005943121
0,576565988333975
0,633761260842862
0,572428395282474
0,631936156105171
0,632824379298121
0,650602811692751
0,643618543902467
0,658971948640927
0,617842677770852
0,668900460183088
0,652176185243417
0,679451742231015
0,635355278743876
0,681597518638608
0,641306834814706
0,685916249513785
0,649070800939449
0,694718847640475
0,713903663707096
0,822104881749494
0,695571601000584
0,774167656197226
0,699069156168826
0,719020503431545
0,682345998472992
0,737118949410758
0,680161406739696
0,807726976616987
0,718096471653403
0,767289628395605
0,714322809208526
0,762554472776059
0,720257708120263
0,795379544613224
0,755355870983049
0,757957396410184
0,76935169687738
0,806475183526436
0,760093451748736
0,86028208524374
0,764832209769147
0,849699949520596
0,7588845146489
0,869043812556267
0,817459618465089
0,842374522547976
0,809841361911437
0,849557394801298
0,808939608120289
0,855138788789017
0,80252270580288
0,859817019996998
0,811624417286528
0,927456868131692
0,844393368025557
0,934737268850073
0,898381023273237
0,910168764179385
0,843426172819937
0,925306594007423
0,876247634957368
0,967302239655362
0,853031043662833
0,993708961976093
0,854334101312949
0,959943409281461
0,897821428197094
0,992982621169904
0,897360674591722
0,989615282866504
0,922096819963091
1,05259656120408
0,989073947494429
1,05173317180115
0,94068376826636
1,05963046014433
0,981078942051998
1,07950488658231
0,939684124370691
1,06574629398377
1,06146103895197
1,04464734020994
1,01770035758958
1,05458382966184
1,00475665308606
1,14324751491934
1,0144784683973
1,11517323909348
0,929298802870521
1,06245704251447
0,990636027834835
1,1765021872246
1,03637230302383
1,14841729398549
0,912003653637788
1,21104977710232
1,0387389084951
1,18927842521624
1,01086197034596
1,24631753372578
1,12698140467904
1,18404612591422
1,07409813301801
1,08184361447757
1,09775338771259
1,17476366017413
1,00503479665019
1,25743922403705
1,0297859039059
1,27198001871494
1,13707904592108
1,24204492509678
1,11317025435007
1,28700335924889
1,17725027023365
1,38038819393928
1,1009822941161
1,2878362388851
1,12210835210519
1,3596200302384
1,09131978942075
1,3782499257887
1,20319235266215
1,34911074380181
1,13260674767719
1,19355631676365
1,15239579007663
1,38351592648758
1,15417166694097
1,45827658827208
1,11227864740982
1,51221930105931
1,15440932915772
1,23559285314607
1,20144525429584
1,47306181478991
1,15382862160359
1,34216476137936
1,25613120093403
1,48564466732207
1,29665251878857
1,47363473702547
1,38540729764088
1,42044303811647
1,23172603643995
1,60260205714386
1,19191677783912
1,5435181568937
1,16626688578667
1,71888594194903
1,17430437453487
1,65901710052275
1,30673541375932
1,35720607597962
1,34802823830327
1,92352170509338
1,30624896029933
1,34036469031678
1,31227147065464
1,67252082071932
1,3166942647508
1,7264300186447
1,43848327114927
1,75358103687254
1,45964219164804
1,49724384878919
1,35798440187766
1,44945281888328
1,38479441643854
1,77612096067219
1,35510920604513
1,68488724925665
1,27756423559872
1,62674394158462
1,54468508510499
1,73726656725655
1,43254766830878
1,94330812424145
1,44133484218758
1,91718179116353
1,31566937357079
1,66853860765633
1,4037237821882
1,5835952378925
1,30763580955487
1,68592877449362
1,41574544497759
1,76198250202946
1,5043440833163
1,79203574723454
1,63294836647019
1,71352975308143
1,45037175758113
1,95062841048825
1,33826316606789
1,58571208197504
1,44627604698648
1,75027320903942
1,46447926195753
2,00130353398275
1,5350986002038
1,82250968478105
1,62545765871158
1,89604090816522
1,41800424737796
1,96951941384361
1,55801964190294
1,79267997764359
1,47931274036062
2,12097362927257
1,66670737787051
1,95828126752265
1,69024104612419
1,90182411859217
1,40698285038054
1,90506516367074
1,53572942339852
1,62239761652134
1,65361751133995
1,98092277353344
1,59023193623547
1,87816371477033
1,54371424100624
1,93254153857046
1,51971447461952
1,92868887501319
1,4291853913533
1,91445692246103
1,579463522909
2,2332484702876
1,64629516661855
1,70788922317
1,58600565565085
2,02810479236743
1,5885248014891
2,1125424011523
1,65928010245116
2,05504377976227
1,92273902429767
5
1,50356505902546
1,80947040787292
1,586279854529
2,00624669655888
1,49189335984072
1,80799694346491
1,57366976416279
1,65366811854527
1,6557775469097
1,96178274949921
1,55807377966836
1,76008441902913
1,56497903105174
2,24007948561553
1,79728090319041
2,39372582130494
1,92487095761055
5
1,69126993891135
1,70303490924548
1,66090319187184
1,66946819505757
1,53369251889642
1,98663695520064
1,65999130765266
2,21300133631147
1,51329757230992
1,83177239549817
1,59249720964015
1,97835048452307
1,68867852271121
1,93970215981007
2,04583361958638
1,79771759730255
1,62599981494106
1,8456501918871
1,70802488240637
5
1,69053988571031
1,91494673511646
1,7254957322011
1,98771565636521
1,83692909901062
1,76238194587316
1,84255600676642
2,63720231660845
1,62761363270003
1,8652322285386
1,72520998322993
2,37635654209812
1,57392392247948
1,82550088618981
1,69193217538342
1,75667924464765
1,54263238101604
1,97411216392048
1,64637634946428
1,66755733217227
1,6682757573418
1,88524566969361
1,86077781702126
1,85567608523094
1,52978093244132
1,84499819580185
1,56578161555017
2,12919183456734
1,75280224998461
2,06496196215456
1,59090590747354
2,16792325905469
1,82326972447623
1,7320609419752
1,65748333315459
1,70725937153038
1,56548855176407
1,96086882899572
1,62967266618885
1,83947149819566
1,68630681057879
1,69093631675946
1,68876420641548
1,57772493765547
1,68126402524621
2,17437039575691
1,53631316747723
1,72259567036132
1,61738998966926
1,79727845626418
1,79916526399701
2,13395184549824
1,72362345276912
2,28283904486605
1,80025259427826
2,03821833744227
1,63107721298353
1,86701588873065
1,58605313183194
1,85573430884177
1,58482126460484
1,92876114639525
1,62787487870325
1,84841452975288
1,69598230980481
1,96742896772771
1,57423073225613
2,24916423666362
1,8974198135056
1,87832294776771
1,71817702645855
2,50171331457697
1,66557075591151
1,75327707770472
1,64228145728575
1,67549989804308
1,76511668503273
1,95077075943548
1,92880996121379
1,84746112853576
1,48208888003727
2,48608926461511
1,62387248951651
1,72980460643409
1,6563339448887
1,87056650731966
1,70267381628986
1,60882242009033
2,03205842237639
2,19628532132125
1,68426991797957
1,67907046290327
1,65768944171107
2,10254240211216
1,55814457212278
1,75092336584105
1,75767807968371
1,72425645912385
1,55064725518585
2,02977759979897
1,77643417297643
1,90497599382972
1,69060878286044
2,18033813069839
1,57539928213358
1,703383927162
1,68921419694962
2,01541145762389
1,76124778248288
1,65267337930026
1,63651899240563
1,71822896049387
1,68538188147168
1,73847210630559
1,61005439260313
2,00482646847623
1,59522085024152
2,04022271443458
1,58707144715042
1,7714190275154
1,46926940756546
2,17630062145792
1,57832528071457
1,73950529246522
1,50079567358078
1,79356040290927
1,55328916231321
1,66269878994169
1,5433862690344
1,95460944161002
1,43154301252918
1,79363313491733
1,63069046531822
1,78573821108872
1,59511625318931
1,69552571380623
1,71194716764984
1,68580784204943
1,59118967864229
1,84210355037231
1,52313798702898
1,63855275332032
1,58810041975652
1,55519049898078
1,44704225294241
1,9067220000795
1,55025942569189
1,75355185976107
1,49648910743317
1,65523518784193
1,41018417712961
1,67809079450448
1,43390370979095
1,70747732304885
1,50334311024085
1,49598175715714
1,46225254349521
1,48689089029903
1,43093040515429
1,52409222061594
1,41333736931942
1,5210527974864
1,39409969239353
1,46577449835517
1,50774841286731
1,57525095655435
1,38981006070145
1,4689467021674
1,35200975533633
1,41824659733039
1,3392983769804
1,48417660629279
1,42802844624995
1,55012602419453
1,32190129906977
1,3705274756016
1,30912580668964
1,46207277042338
1,42383130105795
1,47362516815095
1,31138340459935
1,32270799898066
1,28666746754117
1,30441940910638
1,21717620406946
1,45239487633861
1,33264539952999
1,32111963251758
1,30462558128672
1,30878386231629
1,26400722380551
1,3407962191151
1,2676804121672
1,32526555539443
1,21895522834779
1,3073449307321
1,25656854535273
1,22547394294654
1,21754894301027
1,27922527094111
1,18977697053111
1,27566864078654
1,174990734884
1,23336283191391
1,15621392343281
1,26619074520783
1,15326893307446
1,19716987140055
1,15551420427663
1,18546207093163
1,18611783820745
1,18861970864723
1,1330230196648
1,19341679129407
1,1425217579417
1,16186121137909
1,10804427579923
1,14340582847364
1,08311828224456
1,08328069728494
1,04410336436217
1,10461183590548
1,02901573197568
1,09892112597443
1,05850028908626
1,07758685840399
1,0216423347744
1,05425869279751
1,04082966628331
1,07590028057274
1,02250706071009
1,04771746141259
1,04143888091237
1,03215053988016
0,974854358107359
1,02320248752154
0,989233925968179
0,975145182292347
0,955578269472732
0,981318638800867
0,934822429913153
0,967441488967094
0,97099162161977
0,976476057590643
0,948039889774967
0,948519093926158
0,931968987764491
0,960980378942856
0,901780035630914
0,915210435914992
0,917360506485357
0,933207211267225
0,879885368519967
0,923960105761599
0,879224771611606
0,886895171751307
0,887205255590285
0,897619168261882
0,862620828876119
0,887338020178074
0,836779176531276
0,848574362327652
0,827835327239086
0,831502662338842
0,823203329048427
0,844046263870502
0,808424600541631
0,836344604980974
0,800348760308874
0,833899568499592
0,793410066069238
0,819379755453814
0,800663719215997
0,801621143760809
0,791745181600503
0,790496019373333
0,77314040977985
0,791526986365185
0,757588110656014
0,782396696674224
0,762953693796316
0,77878232577651
0,719712853845369
0,739773076874873
0,715758112691871
0,73237265118196
0,723341968961841
0,721455142788501
0,708423949698306
0,719712629024678
0,698617594912103
0,709579917519281
0,690836896185348
0,69775172724564
0,67826742318387
0,674472972932737
0,690123856965326
0,689400466830534
0,662201497969201
0,67335382858418
0,653957831936751
0,677341545746536
0,649728589056428
0,668954336484465
0,639439868435442
0,648390517318232
0,633489127552906
0,643165619731178
0,624422048952379
0,633059329103993
0,614057571660161
0,613410130602886
0,607093717812207
0,609330446608102
0,619569174185432
0,613376788568776
0,592865509538892
0,617336057196767
0,586933876438369
0,590873894399218
0,590592919646255
0,579775197037938
0,571727079748482
0,570787509195248
0,565578850913791
0,573988848170258
0,55815538322338
0,565876660192555
0,554995520257408
0,556409552269988
0,531502384587572
0,549413397202173
0,530856979470757
0,535567220197189
0,528987205182062
0,541851912225482
0,521222315392267
0,526531184294509
0,514687096187252
0,517346903315004
0,505510386428793
0,505336382520793
0,493504096979379
0,505956089420208
0,492959338473049
0,506904679615594
0,487106405614694
0,49814500400292
0,492174730766103
0,48214181325063
0,481079129273433
0,488358065917187
0,47534383961872
0,47583484432821
0,472828459194854
0,477244913892367
0,464057785231497
0,469048910438226
0,454813232937894
0,469748463320878
0,454130483740093
0,46428876835744
0,452340065689826
0,448171432299589
0,444684905427029
0,456483172652218
0,443606619684238
0,453155181688427
0,442006569284546
0,448372682182236
0,437506292321248
0,439522016216089
0,426115272700823
0,440200070940461
0,423370349110347
0,423908988952901
0,42685420146074
0,429178944673337
0,412233398240465
0,420868231302954
0,416811289085563
0,421510687151658
0,418747371753405
0,423712145373206
0,411594319491114
0,420268781180531
0,404180100512087
0,407976183605339
0,401160449125145
0,399170479457692
0,395527152874776
0,402221283227671
0,404142852836985
0,406662305942621
0,389821465208282
0,39829983464715
0,392214083216363
0,397494588602013
0,396159743941423
0,394514013781403
0,388868197786556
0,393721070467546
0,387717422088586
0,389092350491898
0,380485737099191
0,397238920019783
0,388125664862495
0,389394750120789
0,383923119094449
0,391690173929782
0,3778783791234
0,37812995827242
0,378106118536019
0,39073686299363
0,379634519045307
0,37868336787982
0,382665249979644
0,383551336196196
0,373311243280653
0,3752189077292
0,373421512801388
0,381600398501609
0,374618818194289
0,376617286588075
0,364704041303493
0,366267596137316
0,359406770628086
0,369689123234938
0,364520129465753
0,371432882287984
0,355446203522263
0,359439061478078
0,347434735225959
0,358455050269774
0,348918933835705
0,351908735669084
0,343546747859349
0,349585489298533
0,345094449117113
0,348613707692958
0,341190325263354
0,347347469873616
0,330913489897542
0,346585968510141
0,340244434416697
0,334720404526117
0,329992944542534
0,345561385184832
0,332381574385628
0,336641213109957
0,333315668999145
0,333731624052891
0,325082252987774
0,330545901438112
0,329485963752032
0,336068691343944
0,326159806777276
0,326016068700677
0,327722009936794
0,328579609924909
0,32461965696303
0,329025609482744
0,316705337906348
0,327274509098026
0,319902188312738
0,319322072151219
0,319302262200558
0,318102004880308
0,316147724438186
0,318921472043517
0,311417518861853
0,315212318880022
0,311708361533546
0,319767757164694
0,315742472749918
0,316491970807992
0,306971921419222
0,315322068394708
0,304380468698863
0,311191269255612
0,308190053580445
0,308696592553165
0,300320184240373
0,297850983796025
0,294431672628517
0,301044866153409
0,290752564442984
0,295815990518394
0,294303621680783
0,29260003199156
0,284946785800545
0,296468594900968
0,285185886043624
0,284658728794409
0,28052382227695
0,287960156843491
0,280451458205949
0,281238522394685
0,279313375508373
0,276249026498198
0,269808334427973
0,27319231946433
0,263335366278286
0,26190263441504
0,261981901497139
0,265098901464824
0,258051108480614
0,258137509747667
0,25160678082205
0,257400976612659
0,258123313466092
0,256144625537517
0,246957716546532
0,250551170873052
0,248236330972281
0,247278043597262
0,244695157085338
0,247929242838782
0,237103193535977
0,236964157005299
0,238476784430069
0,242245820076732
0,234587857208438
0,238820457375846
0,226748141931776
0,23203031553447
0,227633377128262
0,22826895496754
0,224858512593032
0,226642656330005
0,224306133306226
0,221695530036095
0,218733362116809
0,226964597601118
0,220356562153331
0,223564622742978
0,214285883748671
0,220828362151962
0,218226274958242
0,215660795084144
0,210089231353359
0,212345295820009
0,210958777722825
0,212857798659687
0,20895207918436
0,208650613332996
0,201183110919675
0,207498087768814
0,202840953617421
0,202790893851579
0,200314165110073
0,203201184228289
0,195801935007347
0,199293546005431
0,197474116390468
0,197141184995106
0,192664329762321
0,193895132069713
0,194465813329959
0,192089571180408
0,185304208778885
0,194379435645923
0,187480207216268
0,191013385791941
0,188001113706455
0,188228876466562
0,185620345545027
0,191912893920159
0,185388301991442
0,188349230663981
0,181347083630754
0,179749308098821
0,176500997061249
0,184860525795322
0,182110417991854
0,180972988285512
0,178176174750225
0,177793781059855
0,17158455551846
0,17904352649857
0,172383830782278
0,173157519185241
0,172839528121716
0,176554487423355
0,16919060976115
0,172702140879844
0,169112465689047
0,176463715159339
0,16719848592
0,168786843472076
0,164505739178371
0,168003520175058
0,167453221591998
0,169471317479652
0,164040809849998
0,166925947875106
0,161125812829208
0,168277502107359
0,16328991112492
0,160768598020784
0,160737614316646
0,165023202439035
0,159799278295133
0,159246605640625
0,161132068368681
0,159982868070239
0,154203484866298
0,160384991851778
0,154992920073359
0,157311365986268
0,155313198455062
0,159418233892902
0,154311149048832
0,155680504035394
0,151337623600615
0,15824248934368
0,153501982180279
0,153668199723255
0,151882617606619
0,150879012371344
0,150940444788254
0,152722634993707
0,149412837773698
0,152238060879035
0,1497953381283
0,147354361467145
0,139518239469824
0,146165572041768
0,145425071477749
0,148849332195954
0,145903763940976
0,143869143066033
0,141993345511371
0,146891837630073
0,144516626348328
0,147718730753026
0,140600657465389
0,145082057148311
0,143099458670973
0,144221497779582
0,140306589820306
0,144344145890556
0,142803620675669
0,142331188900174
0,139245416160184
0,141705264942566
0,137026422451599
0,143247782438177
0,141577454228457
0,141260836749631
0,134922386704915
0,135544302025107
0,139216346708355
0,139145639420084
0,136879075270608
0,139119541451527
0,135354634814733
0,1361536304682
0,13606399662206
0,138165490736344
0,134393568659258
0,13563445084363
0,131627777598464
0,133333002861148
0,133362232820691
0,132420795877781
0,131176447194955
0,131736003653462
0,130684754669123
0,134238510726517
0,129704254963521
0,131676009278506
0,130185411399965
0,131481626483791
0,129162279615924
0,133469464119358
0,129584618340532
0,130561698056759
0,125391587274316
0,12849813949117
0,126609005520828
0,126032997141844
0,122903321883592
0,121957003404456
0,125278588207788
0,125157709936125
0,122277285637342
0,126428572860978
0,125673803425014
0,125373209744334
0,118472941088707
0,124571430081209
0,120628583543461
0,118874395755554
0,120854058968476
0,119896992060081
0,117736881239242
0,118291336410463
0,115431395818119
0,118467859643023
0,117073088466804
0,116013608340822
0,118603573457309
0,121379771879519
0,115493321283258
0,119064932868876
0,117458507753622
0,118390119671887
0,111162706277069
0,116253641480935
0,112988302432083
0,114641336381881
0,113785310151173
0,113395269025339
0,111199370982065
0,11468816845193
0,112813671412452
0,116525917265804
0,111647135234761
0,112827139906412
0,110970379945014
0,111237857742135
0,109411383914434
0,113696284348053
0,109712642756369
0,110640638912995
0,106258982314926
0,110406170180842
0,111955928747388
0,111788025932858
0,107431533830963
0,110255877640314
0,107131544984201
0,106900316806578
0,103332593556965
0,107330160018279
0,101998780899446
0,106534274306345
0,102585209624521
0,104245952946659
0,10370335288556
0,107255504832242
0,100706336425758
0,103026300023984
0,105295361082632
0,105306458969896
0,102193577738699
0,105578955873131
0,0978230447878336
0,0991838167801309
0,101694673570433
0,103028941698421
0,0995012069200282
0,0995781064451441
0,100688661605334
0,104310546941217
0,0987242924101601
0,100700937782142
0,0996395263383477
0,0989720072003727
0,0990782348871027
0,0995048884492878
0,0980162964874325
0,101140059861405
0,097995018902157
0,102248865953935
0,0991232175311086
0,101429088819406
0,0974076883684795
0,099782990228391
0,0951332913563909
0,0987148327199332
0,100559289290302
0,100566624681991
0,0937894041101866
0,0963543154993295
0,093974916332418
0,0974795262240722
0,098005841591829
0,0993340198327048
0,097538828542641
0,0980433636731106
0,0942861153196522
0,0974677427877371
0,0962567170918577
0,0955080450025943
0,0944366184298457
0,0979936947378646
0,0972284841096155
0,096408277482561
0,0957153789620132
0,097496322706937
0,0971438766796303
0,0981048410046489
0,0919792909337894
0,0962078505860034
0,093119356051708
0,0961601216072587
0,0954527287519021
0,0950537796604606
0,0920521208047894
0,092931783977486
0,0917599034617507
0,0958330493410248
0,0928322747400508
0,0964498809798964
0,0938842502702999
0,0929585782953763
0,0916920558543404
0,0965395375064215
0,092999948088926
0,0949644752798989
0,0932755390276481
0,0939313957455466
0,093716915485024
0,0958581923518926
0,0911571291043908
0,0951294327274928
0,0958267689119692
0,0950927778551757
0,0918292637619054
0,0931588670118414
0,0947340193800047
0,0943038941549468
0,0895663782716794
0,0956109020726822
0,0920159579826813
0,0937737161449402
0,093411791415068
0,0922209184265114
0,0938810403642346
0,0962219769595936
0,0931356769828064
0,0962091398606428
0,0961079560168337
0,0936108474202466
0,0911186261039002
0,0954348571579485
0,0923695902178744
0,0968080050466905
0,0938132980892559
0,0942602070034025
0,091241000914435
0,0957423170355749
0,0949911044476791
0,0970465438316792
0,0938803352520778
0,0948449269314541
0,0954132624275858
0,0956519346826721
0,0919773295268826
0,0919783984057812
0,0906979315559292
0,0942165822859406
0,0935670445592716
0,095718217747287
0,0928613694758323
0,0960473501305726
0,0939792836043147
0,097619330418613
0,0937329293855992
0,0927103990425876
0,0933767705177682
0,0936201653034487
0,0920548705716289
0,0929392606408471
0,0902292425553621
0,0933798465740844
0,0906218761422824
0,0909581937778563
0,0896802718723256
0,0945282074074828
0,0909601170807129
0,094539154020776
0,0914413925285197
0,0924209143158915
0,0939443854514545
0,094806824833114
0,0930194282660495
0,0941393377352027
0,0908717246607578
0,092960238102344
0,0911987113389945
0,0939948368494497
0,0943022850795962
0,0954539450006949
0,0930055141973835
0,0969182926670691
0,0943850612982627
0,094671309354805
0,0923625870774031
0,094785721367375
0,0948163100615787
0,0960655705561616
0,0930215084056265
0,0946615797630531
0,0933512931719027
0,0934784281339948
0,0929949112534175
0,0949907609995068
0,0925356806083962
0,092070602253512
0,0947232158155618
0,0977200530930612
0,0948337264619217
0,0954980629059907
0,0961127090188249
0,0950589353323178
0,0923358942209904
0,0953974904208902
0,0912294663763494
0,0948756184755327
0,0958596689572983
0,0954932063704892
0,0926456877747536
0,093390128039414
0,0907286024956288
0,0929372287368809
0,0960174335470687
0,0964623460392637
0,0924347708386291
0,095159515138465
0,0945249356196433
0,0940199922753995
0,0919346020579036
0,0938094132186211
0,0923682322002406
0,0947578262963168
0,0927815359844419
0,0927309661122631
0,0943699322572113
0,0932172261639663
0,0903619145984422
0,0936090409132484
0,093367937095248
0,0925539112565807
0,0918302154714521
0,0962034869734439
0,0926568395762567
0,0945938549268382
0,0920580523152886
0,0944621699341405
0,0933434762523147
0,0949124109362257
0,0933095154824996
0,0951773425780723
0,0936572338357593
0,0952320476422533
0,0944524268044418
0,0964034357534331
0,0952037501519117
0,0974021245462581
0,0924633679354881
0,0958327342274219
0,0964018803439908
0,0962049969318009
0,0968831444486064
0,09728766484881
0,0953745389996217
0,0944800324658905
0,0933720497654248
0,0967090659885733
0,0946888703206354
0,0963651847659225
0,0963891054219769
0,0957851834727346
0,0983855476562765
0,0994230795937938
0,0956266078292527
0,0982025792626644
0,0967171124048778
0,0979109061038913
0,0958679810369395
0,0981820818676857
0,0959052584411479
0,0958484340143264
0,0961004545091356
0,0971067139484706
0,0939179498976205
0,0950202402094541
0,0953793398200084
0,0992939350155727
0,0970177476542107
0,0988278698703382
0,0976772252366317
0,096789881730886
0,0953257608918446
0,0961408786287137
0,0935232416033034
0,097408710241959
0,0973482888324827
0,0978168325306437
0,0977349818487904
0,0997169891922085
0,0981314460610049
0,0977906394650508
0,0964308104849551
0,0981562337497567
0,0981436881357357
0,100021485785536
0,0989360375303611
0,100291738307082
0,09818039355081
0,100347327112151
0,0984631052381852
0,101047797373964
0,100154623589344
0,0997436454673017
0,0986731366683881
0,0998201487192294
0,0990996029922716
0,101309987692163
0,101667387014684
0,101085228937683
0,0998194251825099
0,10508716995322
0,10073169559623
0,0996983529590261
0,0969745690260701
0,103651420738898
0,103639547333605
0,104355517407313
0,102647617561244
0,105580626198167
0,10130413740743
0,10220846543617
0,0977343976331966
0,0962215078373555
0,0986395290949939
0,108730723183143
0,108388340179794
0,107916186787551
0,098136525650597
0,101556471618005
0,108318458967987
0,102430661222127
0,10053062712579
0,111583709727692
0,100888853769712
0,104315451237176
0,102796881647456
0,105677914781419
0,108115417246008
0,105401253651404
0,105459639655744
0,112046210464391
0,106235860313173
0,114562441845502
0,110247124511593
0,106359005024781
0,100627996051809
0,109064100335112
0,106004002799774
0,112039247663331
0,109134956505879
0,110737340562379
0,106722226136632
0,110016955336045
0,106770538608106
0,109830615677284
0,110041005312501
0,110195825232458
0,105068506459826
0,10432686012747
0,100950288096825
0,104693309491798
0,108035266137526
0,117076440027879
0,112607246387687
0,116983624226427
0,109057798095506
0,106613803892693
0,110806549148931
0,116942833198196
0,116203434963583
0,11105039387275
0,10763719128546
0,113544978084176
0,121438193712452
0,109237883418693
0,115295286121045
0,113876092209222
0,123533571907541
0,1064368218866
0,116982903350725
0,113996000668711
0,122063603925154
0,111637416012504
0,121500690103856
0,115188031442033
0,115238296535527
0,119560119478549
0,115813958536391
0,118748094145279
0,113729178592926
0,121563730082276
0,117723813262776
0,117694742604613
0,11660768314143
0,119452727634462
0,116558763653951
0,116510899282082
0,11790691717389
0,118778601863182
0,122627513680343
0,118891234520222
0,114786102857693
0,118165393391342
0,1177600122465
0,119856502496912
0,117232954315447
0,117761167183243
0,119446029203613
0,121427690083012
0,118565038580356
0,119149592876817
0,121099843889681
0,122657331589942
0,120014945524594
0,122655195913293
0,118945061881199
0,122135272719991
0,123593129971343
0,120998448801071
0,120661335439729
0,125392150413584
0,123825170702629
0,124646121021917
0,12239739753396
0,126544806520936
0,124719103089441
0,124833114592624
0,126903310051713
0,126766208922418
0,124774875181037
0,126850248386288
0,125495426470294
0,126109336894134
0,12782766247139
0,127692604307816
0,127191729649033
0,128730333122466
0,127500433201775
0,129311341853157
0,127376964142128
0,127621902079656
0,127879681929229
0,129548000925617
0,132113586027422
0,131966658353053
0,130318276607231
0,131121027109314
0,126539844410905
0,12949488238426
0,13155875418723
0,132363648229903
0,132733470729463
0,134176831278872
0,131747709005479
0,132016878333326
0,132732852038619
0,134441081106319
0,134508926492701
0,137930312052034
0,13449728044724
0,133624522494469
0,132360750001166
0,135941819546534
0,135380388093717
0,134425436462773
0,133706752313147
0,136384556538986
0,135330804660926
0,136160096326385
0,134809888055688
0,137509737064489
0,136408919532599
0,138373247960148
0,137709640055072
0,138482487581644
0,13653377536917
0,141796636287575
0,139266643633756
0,137532079071943
0,138492994734829
0,140777682403924
0,140644759216737
0,14151635161953
0,139261592003194
0,144656958913246
0,144720417586775
0,142264230707175
0,142489304941833
0,145083568478602
0,143575719267568
0,142627405311016
0,143767456403437
0,142286996054303
0,142954205775575
0,143318631637584
0,1438599502833
0,146523179673173
0,143233559225506
0,145048437260887
0,147434762743572
0,148003768480654
0,147926567698843
0,14716067201907
0,147221486615306
0,150204105161409
0,149290439956363
0,152242526981866
0,147976154562983
0,149226426817146
0,148221426467316
0,15158982484684
0,148398364598909
0,148974657974587
0,149875424831095
0,15137703971196
0,149768557556834
0,149461182380927
0,15018402626978
0,150958299740063
0,149887707567083
0,152749739480311
0,149985975395129
0,151786296069328
0,150989943533655
0,153032457429288
0,152177279539376
0,152811255146554
0,153828427283037
0,155461315022161
0,153704475982047
0,153864842789374
0,153409077293444
0,154576744624355
0,155719737007992
0,156429262210363
0,153949854975423
0,156944430208429
0,157138659216361
0,157264887700147
0,157512222587045
0,158333625872961
0,157076409883696
0,156655307462533
0,155318855663341
0,157450080693722
0,158045985737763
0,15861078513974
0,15657593667511
0,158046310851944
0,158805682320112
0,160100707308497
0,157821512130439
0,158488240995858
0,159856190888746
0,162064880396624
0,158966049636323
0,158787847022716
0,160233064097174
0,160207704733183
0,159721252725986
0,16063913481925
0,159925596378964
0,163984542908373
0,162053062796589
0,161972836770395
0,158903657203598
0,159467077326439
0,161517414005306
0,160953780696875
0,160200621445681
0,161913744000483
0,161781311165736
0,161812495232542
0,160898744567603
0,162456549795803
0,159410678885761
0,163845931119263
0,161196945077712
0,160845993935273
0,16118648910768
0,161482206155896
0,159927593866739
0,160875934762248
0,16201443376892
0,161158129298054
0,159891298267218
0,161786124638831
0,161304177841824
0,163601946518747
0,161841767550184
0,160371512957472
0,160497908727423
0,163325420893587
0,162212253313978
0,163162666592586
0,159732608459305
0,160369549054129
0,163842046823278
0,162852734660747
0,162924582481354
0,163787985410128
0,160178659353415
0,162831682220287
0,161264805566129
0,160450645527703
0,159602511390058
0,159987408284405
0,158482077928382
0,159831351982424
0,16023501904946
0,161014941282749
0,162396381008482
0,16192285153229
0,157280168501849
0,158989488863337
0,161687840405856
0,161046075118304
0,160368688832054
0,161840788948081
0,160645418250507
0,15922738771029
0,158175848079033
0,160864826277425
0,159233598159399
0,157662542937293
0,155659555906782
0,159270167548759
0,158923643373973
0,158762233605515
0,158003150962387
0,157981626284197
0,156955626716213
0,158298235413431
0,156860512626517
0,156600395194227
0,156790848057141
0,15605471169684
0,153604426072815
0,156840752937014
0,157454936060319
0,157616022727111
0,153557359900888
0,155447178440144
0,156521949400009
0,152762875038736
0,149928099273164
0,152961883915861
0,153418276091038
0,1543053529114
0,152603473212625
0,155310861359773
0,152405601042473
0,152106062589673
0,152456660286937
0,153979023916075
0,151299774207327
0,150833243328997
0,150353889475651
0,150010702773999
0,150782998819043
0,152126962326835
0,149801314376283
0,148300802172536
0,147415543913947
0,149808240312177
0,149352207140927
0,14738327608418
0,145956649103793
0,149713287597866
0,149649966611322
0,14755952305766
0,146196549756078
0,148695063402303
0,148086840366382
0,146915460037684
0,146926599057091
0,147533543659481
0,147349632776994
0,146241168344899
0,144251883924684
0,144349198075155
0,142404099967814
0,145774508505425
0,141853123907349
0,141778495226156
0,141524929346588
0,142649633032572
0,140893423642794
0,14130229526915
0,140211213117717
0,139844442766366
0,138790569198613
0,141120611958331
0,13944900578263
0,140769479186562
0,139135427646034
0,138563462739131
0,136075890141837
0,138749162661941
0,137409971784229
0,137224072773121
0,136660314202234
0,137003345207647
0,134544043781045
0,134471206652936
0,133907146774943
0,136181369578807
0,131576305058251
0,132950126450023
0,133814504486535
0,133990231988385
0,132814415045303
0,13228218369519
0,129220810469443
0,131764433976066
0,131868480261925
0,131129918788469
0,131423986976748
0,130527987122067
0,128297854042975
0,129973159161344
0,129488881339548
0,12764643597141
0,127576233053136
0,128609652362237
0,12621430480224
0,125708115302569
0,12921229921769
0,136895466357417
0,131389143442176
0,127791640868579
0,129393174828196
0,128149116817202
0,124765740320545
0,126865993502959
0,126927289399199
0,125007709323106
0,125587156469561
0,126964732928091
0,125275200255593
0,123225486462883
0,121984480069475
0,121471386922076
0,123563961236927
0,123522146750333
0,122450936975762
0,122765245752405
0,120909115982478
0,122845054100459
0,12142473984156
0,119687936857743
0,122109538906751
0,121436459032495
0,119394013667311
0,123648945439259
0,123432827331248
0,119003210650149
0,116962342356902
0,117748275535654
0,11832920798874
0,121641924506287
0,117648761058873
0,117234877598514
0,116377724084123
0,116701561974755
0,117279793978034
0,114991460728592
0,114874868409163
0,117345939562751
0,114272361562695
0,115157219070949
0,1136944921528
0,113571837935924
0,113141087684473
0,115668311387719
0,113151248434076
0,113653106119031
0,114521903057064
0,114188365058108
0,110838471632403
0,11655537569341
0,120856601470524
0,118506101844082
0,111019234860985
0,116746701487119
0,110353616036326
0,113264879516213
0,110895319553059
0,113414783599369
0,111416826556443
0,111662249320491
0,110337412858794
0,11159285990516
0,111122203380359
0,112207345071652
0,108302957270223
0,110681669108511
0,109199537012334
0,111355482303437
0,111787067560061
0,109752315314969
0,109746026049452
0,120287248605439
0,113546275288868
0,112309324488871
0,106235054608308
0,107218220828977
0,118590869266772
0,120349672200378
0,108734266000697
0,108499725162436
0,107838639744085
0,107613453253205
0,109467990166462
0,106895051079892
0,108590279452316
0,109940026024675
0,110626642643807
0,108952777681066
0,111471573274467
0,108082612983626
0,108907161100373
0,106474819897716
0,106497158056925
0,108288795677638
0,107206113768875
0,105710889065759
0,10625644603059
0,108174059768867
0,105673862660346
0,105391855702482
0,108747938448619
0,111268705071037
0,107943153580124
0,10621544054332
0,108125057668692
0,102696770458529
0,111704292183575
0,114182491862906
0,111811089192951
0,106053264161743
0,107494131751946
0,105320030844296
0,107271529241584
0,107305272800074
0,107777317801824
0,105347435144314
0,107558098704762
0,107891323359718
0,105276394383526
0,105946532768019
0,107380865023518
0,10587895138651
0,103652684448738
0,105721678163697
0,1047422361892
0,105919425903141
0,105684686247704
0,104504224527435
0,117096093145338
0,119130062252944
0,115070205075
0,113391435037273
0,111915545372564
0,107708830669232
0,110737485850058
0,105227967328755
0,107306786622472
0,107644140212783
0,109944960539019
0,105445846303484
0,107763659357183
0,105223741709349
0,108407509083173
0,103752393370541
0,109349404228124
0,105402046142493
0,108756584781422
0,106548529515668
0,108137520276152
0,104963620384649
0,109527429688236
0,106840559203734
0,11732326554362
0,106821719683187
0,103968216223661
0,118205626129256
0,128307784761594
0,118524404065204
0,108939422162049
0,112014575921751
0,107415879417323
0,111156075642646
0,106386306700109
0,112992341659498
0,110530161097103
0,10856778381014
0,107258024767664
0,111815299631991
0,109425164508869
0,104653417848998
0,117024223576899
0,13184303734802
0,121223664788952
0,115654705312744
0,106031862153267
0,114190703389198
0,125565333728288
0,119642221970423
0,110037050757919
0,114513259280896
0,113311121125732
0,114382442268844
0,113526616205291
0,114250717256133
0,118792871842912
0,115600934939169
0,115771327225213
0,115222355503948
0,113586683985541
0,114429021583271
0,116168698576675
0,118757773160249
0,123697048093103
0,117647090079279
0,116572334702785
0,122631360729687
0,118398854638207
0,1169387818388
0,119926804743115
0,117188546121192
0,122904028970382
0,126327993385328
0,121512235067789
0,127489880573578
0,130200113785612
0,120915124414832
0,120543222009367
0,130052132039324
0,129310893130781
0,115716996752297
0,127168475123425
0,133279662233725
0,146431921081872
0,129160110970801
0,134057608799861
0,119812990186825
0,132875832234853
0,118131133380542
0,125230458787514
0,131365049471058
0,139282420713444
0,124955315851661
0,129346270591746
0,128044787411975
0,135540005746171
0,135108308130025
0,133788804187948
0,134342558070572
0,127902298296628
0,144533926627302
0,137415032125945
0,130635184166384
0,14881355458873
0,155466275780156
0,155053838875764
0,141294358561585
0,142760821475034
0,149505825533427
0,156291497844891
0,1439262496885
0,144304777083078
0,148273696967136
0,139403125137657
0,143718276718264
0,169592779765383
0,160254026348871
0,148871837124995
0,150595942529326
0,1551419582396
0,165743789320989
0,168370412859354
0,153123702181233
0,15936282067701
0,153110503497392
0,154557577468674
0,174517589608827
0,176798008986142
0,167490271101461
0,174223451112023
0,183953387371472
0,171127071516369
0,180900938364486
0,169839473171701
0,179770584325838
0,18374710490964
0,182829087589045
0,165757928925565
0,191042151675386
0,192301408204871
0,193244288967053
0,179784140258495
0,187653443312428
0,174132086189025
0,202355694735958
0,236012643675278
0,225327398740726
0,200115243502317
0,206116954739745
0,211809793612591
0,216692862552527
0,208812015573258
0,214227673939836
0,213972099588529
0,212466804179845
0,218912744293766
0,228381619380702
0,229546044169219
0,236443520671474
0,230809930072357
0,239790560238172
0,243816147421503
0,292564971756557
0,264981279186572
0,273520284876831
0,259591741495906
0,283730208055037
0,271492063549466
0,275249257982687
0,2756160891264
0,28366750370716
0,294223794727412
0,295619376403862
0,294311589085705
0,311180932011925
0,314315591208924
0,338111782481456
0,329741948109059
0,340626225494729
0,307065910951576
0,33938977445351
0,412639661705574
0,399430837084577
0,356918080175086
0,363188400321394
0,372062672299709
0,422828413440799
0,411382316646261
0,38974062798199
0,402130104816808
0,403644447564853
0,416196193775735
0,430951778612703
0,439780258118841
0,452521648019669
0,452904220426395
0,443823260580962
0,456424545573361
0,534123861959213
0,532382710322427
0,506925644761471
0,497976404689731
0,509382088069036
0,535414302330602
0,524381137035939
0,534036539353709
0,526359587823139
0,552987128005621
0,602891077807602
0,594711462349976
0,556540499228579
0,594757825351038
0,609112902462996
0,617650933892448
0,608083275930376
0,6720053626992
0,637667350332667
0,63823121557452
0,655778512575704
0,649144062760733
0,670962156048485
0,704448522799036
0,723415277231443
0,701496200480649
0,69984904434308
0,710926199394009
0,717807754287765
0,745197113787665
0,738670856170841
0,753189231445955
0,753596629056306
0,782895508541578
0,918110753792196
0,827131810279499
0,783982650912985
0,779497791637625
0,789480914096464
0,80549440185921
0,815152265008955
0,836204680601195
0,847954610648026
0,821725403103018
0,817826873335639
0,8409536190248
0,835922342626013
0,845859687330153
0,829026923373936
0,829942827012116
0,862278408062776
0,852131816337787
0,842304956296269
0,903429060930003
0,87238322979867
0,840772050148973
0,836467593639723
0,82218700725507
0,824399041098535
0,808584224307373
0,835951687902974
0,831180459649132
0,843504828378758
0,796308840226699
0,79187889894907
0,801774790149569
0,812180576326754
0,770185127279979
0,768217998126136
0,767032974378397
0,756361096153682
0,723871642851632
0,739921753884924
0,76381116448291
0,728871869202451
0,70138353350958
0,710337436289457
0,682143886376652
0,680777979639797
0,657694363939798
0,672033929989749
0,648208893301953
0,648884084597307
0,638960837301049
0,635049796526393
0,613226585100387
0,606549045931768
0,602841297881911
0,598507204987138
0,584137581619515
0,581977452541077
0,571688355855139
0,563239834180528
0,554533590063217
0,555906844454469
0,547062477850622
0,54177455624083
0,529460750309104
0,528849856159996
0,518234248601301
0,514632011632489
0,515134796252515
0,510023563479487
0,494311829726873
0,494610482195007
0,490857233143263
0,485442850511778
0,48877092690912
0,481347222617598
0,478769345573574
0,47260023046117
0,474308641979004
0,462358547709041
0,47472143235735
0,45740761016028
0,448693542494285
0,473046336898943
0,484904841891622
0,460805121780186
0,443195855626483
0,458861640788053
0,434957519305483
0,440349813822493
0,45729365282536
0,47647568011852
0,443650441650965
0,43869064809524
0,430993379203621
0,441122835728618
0,434114116187462
0,435058627646925
0,416299783775034
0,419828639325444
0,416764802958494
0,466909098569296
0,47269614548129
0,492114172839037
0,455130061686883
0,398909540247954
0,427763378800223
0,432266320872985
0,425106706695606
0,39167225167581
0,403082776751265
0,402825617392357
0,418806680779578
0,408859390025749
0,390851558108027
0,380183876060773
0,386759444204055
0,410387043345835
0,390009208450286
0,395237241342725
0,3988357421124
0,388972846351958
0,397072959936325
0,454996347449
0,407855019483502
0,376985962991236
0,370192064303014
0,363670399143595
0,37154771475214
0,383294522412008
0,38528318127401
0,370344697508482
0,362727962467664
0,355975599924054
0,35252251716288
0,382276230306738
0,342804997198078
0,363282655244698
0,357980948669893
0,362408513588113
0,333290778126284
0,359617698725629
0,366935204685062
0,390663842605352
0,359260260767005
0,336050056501142
0,356779149692692
0,362999023984514
0,353469765573862
0,342168475215953
0,332820855312466
0,330348661545932
0,340897563410281
0,334299502113152
0,325254314962694
0,329036282928238
0,34436289639396
0,343585938014395
0,374225265090427
0,374446742841736
0,334242679388761
0,31710886000738
0,308050498661613
0,323866980382324
0,306479915756233
0,307420579687652
0,324242161344022
0,313308794728038
0,321624180614937
0,318918002645058
0,328686495002915
0,309704166265112
0,312602505599419
0,305141644481534
0,312415608424249
0,333254899139697
0,344453486932989
0,313305403291254
0,313445151231804
0,3113566475736
0,323135798373587
0,303781557369552
0,316476200359422
0,304685939244163
0,317045658342078
0,314704381857351
0,323756633626968
0,314287179776155
0,321863631823057
0,305790049483347
0,346943068496273
0,321815090456339
0,330933714569027
0,312508600767345
0,361907022634264
0,340478043863483
0,349106629280953
0,338761736806827
0,334682562330368
0,339940729999114
0,336465772078035
0,327844944821879
0,346764739083971
0,355579739762104
0,362983104130186
0,33435606000425
0,357457963597542
0,337865715983655
0,353702108140877
0,355148508029046
0,375063638162705
0,379702851483012
0,389965953762593
0,378845839731511
0,35270705066973
0,356095508314381
0,352225748563418
0,361827826217052
0,352775065780893
0,346584718426146
0,358294031581909
0,360958985819033
0,36737995467318
0,35294063961701
0,357418917218102
0,354134581113874
0,357778037315318
0,361691523043767
0,361423234210212
0,358539279368695
0,366734650809651
0,348224874615398
0,368178983111097
0,393186032027245
0,391981571862126
0,360558382938647
0,365104510832294
0,372073022798533
0,365315399868571
0,370873510568182
0,373601326138359
0,380863033397455
0,373657620042569
0,366474400136412
0,375024853882647
0,363692688444313
0,389776133541397
0,379465012929491
0,390769293494189
0,373003376584903
0,369340001118497
0,388004208222549
0,402080056452198
0,402899849123154
0,379979305588612
0,393883341857457
0,374740239633006
0,387632936403892
0,372490560931115
0,384129965032417
0,374620083525014
0,386088517229296
0,378830712357208
0,37946250167656
0,38096811393466
0,376653739099235
0,380942546641416
0,388583158043048
0,386280495373807
0,376788418041604
0,383239984313648
0,375186520255669
0,376456018832116
0,388879497068215
0,387768628388409
0,385035915405217
0,374226775608604
0,383198519521538
0,393144314942372
0,391652567256419
0,3786817529746
0,375911460567025
0,373783092506703
0,380489323642888
0,372367448887656
0,375940868162299
0,38429040786799
0,39193912917072
0,373927329854344
0,384477029612514
0,376572830070879
0,390475959436708
0,383456543279208
0,392985149772942
0,383783248518369
0,395531502087065
0,391076610663318
0,391590263615902
0,38956944795328
0,398366370609477
0,398786358605321
0,402979812152779
0,394406956687154
0,390792332866513
0,38318086840884
0,392535721158876
0,392286455602546
0,392287978317445
0,381231967625066
0,392085158172624
0,369152545365458
0,388096638895242
0,389879421861019
0,389706330493561
0,378329041423217
0,380151437581208
0,368197469843698
0,370096107113532
0,370791855484337
0,36773676646148
0,36880105275911
0,368719443251157
0,363728637322931
0,358535323097809
0,358039135837757
0,362216272798562
0,362600927303817
0,362923474903337
0,361749978009132
0,365487386311828
0,362794271244096
0,363081237104506
0,359036863010964
0,361985888194339
0,354788465277729
0,361069546088401
0,365553721584916
0,371029194609699
0,362557426963573
0,36296826133293
0,368492677229622
0,363639002713115
0,36030951785926
0,358122461235267
0,361902410271998
0,351224428587068
0,360520156355551
0,352579722866172
0,358709617418685
0,357773001257331
0,355573012011827
0,355823160760878
0,357245003762044
0,354185479289109
0,359036137982695
0,352164407421151
0,355165746458401
0,353931697164411
0,354827316426866
0,358878418402511
0,357482752079377
0,355935821799466
0,357634800415129
0,358974442234842
0,355575791188999
0,360484100276103
0,358563863180337
0,356891798703301
0,356151848201128
0,355754122517556
0,356643387445575
0,353260476692345
0,352563155587618
0,355562791725457
0,353476102986779
0,349517476718111
0,348449272511128
0,349147688654339
0,34871409154683
0,345867059805572
0,342481259160689
0,343899634012055
0,339647066589814
0,340431532867424
0,342567627730061
0,342188753444531
0,337253363502342
0,339320417457865
0,338057410825379
0,334148285787717
0,335149655451566
0,334906292862031
0,331572031253638
0,335946125142958
0,333570809769997
0,335506464024181
0,335570261438275
0,33182149557197
0,331203927372791
0,334194513405811
0,330924301626825
0,333808379492146
0,335545029912112
0,330125898868622
0,3334019683393
0,334752770554246
0,336329133384654
0,336255292888141
0,335350590819203
0,341939103729948
0,338219690730608
0,340372447564797
0,339936396259281
0,34144963607507
0,340409894490173
0,338772640294353
0,342356840535863
0,345979278382421
0,343352432648847
0,345923251518351
0,342288517601178
0,340921391349354
0,3408807516774
0,342194452368641
0,342949688150437
0,342664881472601
0,343540655887597
0,342777679510172
0,342568950005898
0,342331092226758
0,343277330554707
0,342985770269293
0,340674714474816
0,339966199348486
0,337857137277285
0,338278514847399
0,337512192332864
0,3392392344891
0,337414196426916
0,336575148102139
0,33616168600706
0,335281233247435
0,332961709930768
0,334407227970048
0,332293643434468
0,33134742767496
0,332403362157906
0,332191083742705
0,332738821869158
0,331126021372889
0,327529085554143
0,328176212144649
0,329380066761582
0,329667216535398
0,328336265088942
0,327487730707103
0,326981293745874
0,330256812056334
0,32798310678032
0,328477192215996
0,328583869141956
0,325352616198245
0,329615393518855
0,325761920696863
0,327371503458312
0,32553510153223
0,323722455888012
0,320922582634021
0,320179632702049
0,323164690975219
0,318792677422248
0,31712750965339
0,316650872615804
0,316729917870343
0,315256197723141
0,312295839620474
0,314280412454046
0,311439791534162
0,308193923993932
0,30988360414276
0,307505734755148
0,307188126006885
0,309447508686379
0,307987658954462
0,307947447597111
0,308244802452508
0,307822676737909
0,307285357851552
0,306805157698633
0,307092510838409
0,307020427073771
0,305656494279797
0,300215655246217
0,299918064724955
0,300377656508397
0,300223766822891
0,299820961460512
0,295221222654743
0,295547964499418
0,295024574155935
0,294953444189514
0,293739051495777
0,296333357214945
0,298964260191832
0,297153189522524
0,298282444991272
0,300730811715582
0,301882679467322
0,306045487240693
0,310037303626666
0,310197095727324
0,315659170291926
0,317823878321784
0,328476836032765
0,332581152749856
0,338102635893345
0,344220707193111
0,348167076156038
0,357675118222853
0,365072689427032
0,366846048637312
0,373134516470021
0,380863916551845
0,390245842617452
0,396755308844384
0,403108377666402
0,408027440702137
0,413899865388234
0,417099715275288
0,422150674124434
0,424508884212332
0,427217333960885
0,428346253455133
0,431918093198296
0,433777388831087
0,433330949876937
0,435984171780684
0,432522307812999
0,430164060898623
0,430595814008429
0,426610077403885
0,428677074526891
0,425455669959413
0,423456247501597
0,420190434311269
0,422539018983095
0,421639132507274
0,422644636205868
0,42144066738121
0,425263883551808
0,424938031163456
0,425577653268822
0,426888249004564
0,430434141043419
0,432758116286219
0,434128413581489
0,437642270705082
0,441948925287968
0,444747741727071
0,449147571016843
0,451337838097046
0,451865362645688
0,4573443127732
0,4655637767911
0,470509177563962
0,477225763761432
0,485336480769414
0,48961475651322
0,500110488941349
0,508215198466698
0,513372879628216
0,518103028227903
0,525844833549678
0,527601074447355
0,526658209913035
0,52880606844413
0,533700009484816
0,530655781292568
0,52555997522658
0,52227313489455
0,516251165444618
0,512266871889153
0,510558021264137
0,508243848873665
0,501411166446048
0,499846216117481
0,498304554443802
0,500354010192616
0,503330100275013
0,511285606550879
0,513701205841871
0,520217077158857
0,525416765526512
0,537110573830773
0,543127826361787
0,546316587194516
0,558967284262489
0,567164219416937
0,572539166594246
0,580723680361419
0,586810185208887
0,593765997678479
0,597697332971962
0,607909921259694
0,619023318026675
0,62003109450639
0,623499778681832
0,634437476848202
0,639335688066671
0,648570273646706
0,655966382686849
0,668069316373795
0,681358938312695
0,693562528184947
0,697923013474223
0,709111647697003
0,726250955891159
0,729036187888834
0,736406558515736
0,746824968826512
0,757734154749307
0,762866338079415
0,764965078697456
0,771801929385332
0,778775888039149
0,779371444996525
0,780201010716485
0,770659117438649
0,760520129510045
0,756813543552863
0,741988760928056
0,73828966943136
0,72799174358845
0,724670375206566
0,719416505793785
0,712551304268992
0,70354143117345
0,706052417028303
0,707628594767954
0,696695305068448
0,698603807050991
0,700757852795704
0,690964219033733
0,701910128331142
0,701050543570029
0,706871009737092
0,714452196912788
0,720404682618657
0,723769718350386
0,732159867612988
0,733874362847369
0,741145183308477
0,744114881251285
0,747382020456046
0,749407767349979
0,762575659145135
0,748858271162153
0,749692582008898
0,753046369001419
0,755988272519901
0,758432699443618
0,757835741342102
0,748809853791626
0,747803366457751
0,75256552222873
0,74516519213141
0,730030745645355
0,734152758668095
0,72354346178891
0,739794518268475
0,722263980793245
0,726756798011015
0,711482314040622
0,703694223244001
0,702530632248731
0,695136922033205
0,684144632627132
0,669678997070537
0,666995981541908
0,677111156820091
0,660383296177626
0,646069134073104
0,640204379991196
0,620321554543294
0,599905282175797
0,590171294375113
0,585070982338734
0,556296945492177
0,535165139757728
0,519921736357123
0,503470865264841
0,490878787057495
0,477352766627431
0,467700585469452
0,455014808791315
0,443110758211737
0,439442756772213
0,440745514979167
0,446248915419411
0,443546019828677
0,442128709168941
0,445135066675141
0,440141270374905
0,443004177687138
0,443212104059999
0,45107983219167
0,446123095628123
0,442854360987732
0,446889367001425
0,449356833608592
0,436115211835472
0,436156062226623
0,436406020241179
0,43526658764748
0,428091614098197
0,433792575012174
0,426873969062172
0,429494355327375
0,42482212310462
0,418020904331951
0,413284481359338
0,411496052580299
0,405228317532493
0,406196473675466
0,397666637762252
0,40067825620587
0,398900844568653
0,388554256586396
0,387788523895068
0,389120311304714
0,381798625218524
0,377888819816268
0,377830021667822
0,375639138047763
0,378214092937804
0,380961928718735
0,375330164152676
0,374054557074726
0,372499307473027
0,377971796573722
0,369310992768963
0,378415035903628
0,376991848507833
0,374128764488123
0,375527816312705
0,379326196424031
0,387563965087173
0,385537995737366
0,380715325757903
0,387557168971762
0,382626771077791
0,383548218722629
0,389192769249186
0,391903656900545
0,394001466648318
0,394368106678815
0,397485057647035
0,405697295612149
0,400977491407358
0,404153313979187
0,398702588553309
0,408761904362891
0,398747874502798
0,406367890056234
0,401624685056675
0,401373819604937
0,403641426101562
0,408517214362099
0,406536065102884
0,41517642287853
0,406514609321898
0,413512950135215
0,410987009437114
0,415154088182414
0,415971884990708
0,413711694336467
0,418218177785979
0,42194658476708
0,424465811288158
0,428612825936521
0,425761615302441
0,434252643177119
0,434153883613731
0,435923935447231
0,435552825795917
0,443854114406865
0,443576567650572
0,455089476490092
0,449952431551516
0,457015649324267
0,452909510213789
0,466863268412702
0,467272221528972
0,472073368250003
0,462695557574239
0,471552767827351
0,475671751835908
0,473691286064189
0,474289596401816
0,481097938455762
0,487523491422641
0,486605101266914
0,496951018367476
0,508300995379169
0,499682145396151
0,519654287468226
0,506327544565853
0,527118001490901
0,522756472908858
0,536666671533739
0,540722178711141
0,549919486105799
0,557227467413693
0,552844378885357
0,558957628274531
0,570581247203685
0,569891764715416
0,577207073725501
0,567755942584518
0,587720218802332
0,569217052605292
0,591334162775298
0,5719237697253
0,574248921319452
0,582863776958512
0,577931286141986
0,591785082395055
0,610703559373188
0,598024364190891
0,617564032594259
0,601481973566054
0,60921316486689
0,609102014977176
0,62026177151367
0,610250988112259
0,634247568600029
0,612576604944284
0,632556714308775
0,62524907845539
0,638136650848189
0,630398650141001
0,631156798657848
0,632092537269043
0,636049151268317
0,648113886398922
0,64380141696563
0,639975291020267
0,655815216174392
0,651192226058312
0,651256609978065
0,674484693648134
0,669668051945588
0,665668793956046
0,671524689670358
0,672359298542126
0,681712881155809
0,674411107156604
0,701592006043101
0,701444540341762
0,712404154576438
0,698098395661955
0,705385487856512
0,683131285332914
0,70342928014795
0,717849673917302
0,73900334706127
0,751376107399787
0,730566438102437
0,732044415487758
0,737563449844179
0,720035232906778
0,777259991482942
0,723882822863646
0,758333726176389
0,752517697189239
0,766403257192454
0,766427152636988
0,808471296142248
0,756905929536673
0,74674484533587
0,76571622458219
0,797082602495401
0,792912232701765
0,814808421449721
0,820409592136423
0,829204202605015
0,769668934925098
0,822009385812769
0,800331573048657
0,854295065781601
0,804348180000237
0,844591087359711
0,825080978785135
0,852007345566141
0,798286680225649
0,847603862057568
0,826772834983803
0,853082613310559
0,847131965042051
0,914640129729088
0,874524284143914
0,91206453505208
0,864337074913669
0,892969336145817
0,862145692811773
0,897198012078399
0,899705239882526
0,93695094054707
0,892484483066057
0,886911693400289
0,903630767750662
0,937577437489202
0,942123911907669
0,951375698747728
0,921903479861489
0,959699349637933
0,96853761659513
0,954420792058792
0,938300777047479
0,956110918115951
0,946225109899611
0,977135254733828
1,00973242466663
1,00535566127899
1,06142331061356
1,05289951189922
1,00033166572457
1,06165389341604
0,998878295816846
1,141299980719
1,01658726076014
1,09167832349993
0,994442139582016
1,10178223461614
1,13757453509498
1,04436998260916
1,02047291848245
1,13481396550707
1,02324898902077
1,1345749646572
1,11054716486663
1,20521788560429
1,03566123970055
1,13190574390005
1,04420682384059
1,18959670956763
1,16846587151048
1,10810023477357
1,11126195977302
1,16126112941416
1,09991257090737
1,14239187516247
1,18520958822357
1,10357650727033
1,15344317360773
1,39988580459404
1,12259688358574
1,15227646345033
1,15490253170069
1,20785385684451
1,14449384646125
1,24937367752713
1,08845804254518
1,17050499498891
1,07400994683147
1,15618169116211
1,10897550173595
1,17118618755019
1,16729617137901
1,21791766126957
1,29563681659627
1,25967434169546
1,24100231769985
1,23481565710286
1,28685318924054
1,49596290756844
1,38727411593925
1,35955763517232
1,34795576487581
1,40517576656076
1,15169388154451
1,32313589136748
1,12969657645286
1,32448392279497
1,22520223146294
1,56421793560596
1,24273686169798
1,62683406980564
1,18212018669607
1,81559853450169
1,19392862309553
1,33548997585572
1,22718397634719
1,6465997680911
1,17595982256982
2,07685815535461
1,26580028314367
1,30574846882925
1,24276014524483
1,15818710549544
1,4795825041086
1,57368838495797
1,63348197812557
1,32745131798647
1,13099248000851
1,39831980383926
1,26077036394201
1,55749361977228
1,45127157450993
1,32573587765459
1,8240584749968
1,52824801083859
1,11300447920988
1,59954074986254
1,28945652581281
1,66194399949003
1,12729088966259
1,35654954521468
1,36447912487805
1,5569784121073
1,4402398495979
5
1,35247202974923
5
0,898154012820594
1,74280505560071
1,52983997260353
5
1,46787669501558
5
1,10830914223581
1,44600803367875
1,21623190899727
5
1,74789682702977
1,5117554367688
5
5
1,36672573333468
2,29369178108551
2,5749073946758
5
1,13409169495759
1,23917146045409
1,11341641401471
5
1,48917423315157
1,55228849214241
0,930387764789517
5
1,37174480028468
1,47509583913137
1,44110890857718
5
1,45113272688458
1,53342285800258
0,672171579413748
5
5
5
5
5
5
5
1,65166141616969
5
5
5
1,35273956348323
5
0,894275404152497
5
1,83334325383798
2,19744961385984
1,65800345750852
5
0,580500743786032
5
