3596
4000,36533379555
650,420452594757
1
2
2
0,0572370598887358
0,059398025593048
0,0638811228366084
0,0631188881118316
0,060797272137665
0,0716134710426096
0,053692369435793
0,0567598051334713
0,0577109860024725
0,065772353548223
0,0561315384140286
0,0638491171587718
0,0620466460254164
0,0520669699762022
0,057319687144504
0,066226988196711
0,0563949312977104
0,066649868596981
0,0553937920218906
0,0551075716567614
0,0543495510129748
0,0532900108758823
0,0532937218304308
0,0618280491042496
0,0600714020452827
0,0647213124691084
0,0586724964612733
0,0562053339083982
0,055635225510395
0,0669324115843956
0,0614918029564158
0,0669140787653885
0,05621374813933
0,0685130838318218
0,055375683272855
0,0614874217578753
0,0483957437440078
0,0608695211070186
0,0594192865977542
0,0649257793152117
0,0602684932747331
0,0695682013955614
0,0574500354884107
0,0574186981594583
0,0583309105855808
0,0622196053220026
0,0639390850350754
0,0641405603359652
0,0521858963390943
0,0557092625745226
0,0600181005350566
0,0620271958034906
0,0603556106348336
0,0641452059125081
0,0548937091636007
0,071160001825936
0,0581885710324999
0,0679338739530567
0,0507473701742567
0,0568137646887545
0,0667622126636162
0,0774420159897689
0,0526234018568776
0,0664877501649601
0,0523029157171832
0,0654219475954641
0,05300417247323
0,059862092192667
0,0533111844016482
0,0729901230093098
0,0420986334443136
0,0773758054034533
0,0642629021770461
0,0617465461347793
0,0559884658617156
0,0634338013156787
0,056897578004947
0,0617697092761979
0,0462342014960523
0,0629658017712314
0,0610759627299189
0,061951389200256
0,0533612368894306
0,0488335149969065
0,0535973710613356
0,0887679617277514
0,0446845545165188
0,0611283081908459
0,0763038482789707
0,0703170357530096
0,0512899644936725
0,0590548872116888
0,0497712062779499
0,0678877393182401
0,0528219235032582
0,058256304490442
0,0459574485135868
0,0660234496715869
0,0515649465015938
0,0610223930047768
0,0386216485677824
0,0563322153081012
0,097664111499816
0,0380082484611865
0,105059209866442
0,0555384847484767
0,0478454863283055
0,0879399883203679
0,0749339284959538
0,0647332508355243
0,04676834052718
0,0591893900266785
0,0559372360329144
0,0708534231597746
0,0283050898867464
0,0818871105536863
0,0724728152653562
0,0696837235413495
0,0577528392723831
0,0645066510877794
0,0283804121754698
0,0926241716164141
0,0775490443778753
0,0622015860178577
0,0659369353335695
0,0607318034759373
0,0306239560848895
0,0841600107759969
0,084600696246208
0,0644192039693696
0,0477138263238425
0,0589418934757571
0,0457894068836437
0,0484686207165891
0,0863404448227472
0,0583927367774468
0,058435920278996
0,0323539930806586
0,0614685487178737
0,104578689761789
0,0606415445419984
0,0662627651191376
0,0366875372103204
0,0487751076136261
0,0871785515097204
0,0710183853317467
0,0381759637202913
0,0860441818749809
0,0593686090217374
0,0525529878309203
0,0485174871831415
0,0508849122780989
0,0600767073585365
0,0754609995956735
-0,00975400422463417
0,109772443911167
0,0918709693478827
0,0613037427591256
0,120951353608796
0,0519055439710894
0,0676041920045172
0,0512171920454168
0,0604909696143296
0,0512318965404587
0,0639566447037025
0,0407500616628497
0,0615302761472054
0,0892813097698712
0,0503391435672532
0,0534529738831827
0,080509379613438
0,0670124621648109
0,0260565333148842
0,130086795636047
0,0615550496980528
0,0512613958947598
0,0781976203674342
0,0714563369943746
0,0329767105971994
0,0562438435749605
0,0903546257645942
0,0604962931823167
0,0517768765577891
0,0533402420927629
0,0551863198592017
0,0677339969852341
0,0550264830085839
0,0617275822309528
0,0580644332261955
0,0308253360701947
0,0531064787507757
0,110410743590203
0,0817344179214184
0,0581714069776055
0,0664148023714716
0,017496119242001
0,091613072383344
0,0953057351694177
0,0589603218220341
0,0570832964816055
0,0486263949126333
0,0558533661184188
0,0468028646954655
0,0619125135315093
0,0489501544526723
0,0158728525406668
0,0976251216261243
0,0692106991688074
0,0624891038534384
0,044782595422731
0,058630759471179
0,0244596618553413
0,102282038719068
0,0887957874317044
0,0562090008052088
0,0550549164379572
0,0414986977793345
0,0817854605677852
0,0780600547231809
0,0602152315273096
0,0592740930120424
0,0535614926313829
0,053100266628591
0,0644416119986188
0,0595624668338011
0,0588733470137004
0,0550700668185449
0,0627334878797229
0,0535464390885687
0,0559761506030043
0,0723615887139718
0,0674388954930505
0,0514876990003706
0,072818477474236
0,042048745341244
0,0586810865771819
0,0754781740545176
0,0606925257777019
0,056952895029834
0,0611443177289292
0,0594300736852884
0,0588578178996242
0,0586942346798061
0,0581511344555318
0,05058021741204
0,0424405096680238
0,0970130359602553
0,0602730072833171
0,0754540449507696
0,0441072268353484
0,0777850806865435
0,075202075848485
0,0644767374515859
0,0589084479780423
0,0706823502959282
0,0484174322037163
0,0522225158168464
0,0914810923210992
0,0744382355614708
0,0463982822115726
0,0736502833128832
0,0729506751207235
0,0646740205848867
0,050415051000331
0,0272112947739351
0,149050068485313
0,063582234718979
0,0406122778492486
0,116902376873012
0,0772288153736023
0,0815734635466566
0,0565666128210806
0,00629244332959278
0,163115641948988
0,116723626225493
0,0799889442717218
0,0613979200931384
0,0891146766561817
0,062565697900507
0,0789505167445033
0,0576186362698569
0,0759116034239115
0,0888749487315559
0,103120906103732
0,134168797237073
0,0383378811706083
0,0942604610853312
0,0962072501530784
0,0806648885178675
0,0736731393096562
0,0760601589004036
0,0575072859431888
0,0892808395087483
0,0813203767373331
0,0894866497375346
0,0800253235845522
0,0706195084174211
0,100176420392319
0,0854959453516369
0,0742513491795835
0,0781453270752938
0,0951641683410896
0,0766119326694577
0,085392804912701
0,0686804358113602
0,096491734313572
0,0630581568325916
0,0651817102985731
0,136181318486176
0,0937764673708555
0,082826391973948
0,117528712862366
0,0852123242917154
0,0907634730748367
0,0840114960366566
0,0952733678376289
0,089172125911989
0,0804078691659789
0,0736933049738464
0,13703912568333
0,100359362754718
0,0993072481867778
0,0956762714596556
0,104763270985959
0,0980076070254869
0,108300881042182
0,099818348021765
0,1067915168055
0,107024040210814
0,0970021673569474
0,111986418234515
0,148866554593381
0,0722590850014167
0,153201823664145
0,146888546259891
0,140056412490556
0,118776167019516
0,123502007099847
0,132368898694104
0,127070301994172
0,135396146715327
0,135036617300821
0,130765351613239
0,161797595133614
0,157519972691637
0,13823961497043
0,128216388509275
0,199153766568838
0,219222375244249
0,179972208169739
0,176216324750573
0,135234553260285
0,207426770634471
0,204911495309839
0,192154847508645
0,21725942067239
0,185756045291636
0,204277692668567
0,193439500307449
0,216730021830782
0,202469219597102
0,22353621967717
0,208947096134512
0,224468713128892
0,222185159849
0,246867509159118
0,210443342171785
0,237516039043393
0,274542934502021
0,26066916668555
0,238862817707248
0,267262703939918
0,221740869400389
0,278509931327253
0,248769556961809
0,334861969951973
0,275057117828162
0,303244550444283
0,313208219807835
0,306948316306207
0,295642863381201
0,290532272283449
0,304379165820401
0,307712833308638
0,311919505069906
0,324822245587542
0,318395999063647
0,335013349479567
0,325182511279379
0,346241095581678
0,338526373225633
0,348904215978948
0,372028052180247
0,353529648625728
0,35915023205209
0,345404026240222
0,369200038726759
0,426251858212711
0,431324073340047
0,370328017587814
0,381625322480717
0,390095523716927
0,39351096779783
0,390975925823241
0,38158188823519
0,420087831660462
0,387958036806474
0,455069396777566
0,427707162061143
0,456494198452526
0,442778893079445
0,430576508150272
0,451429171088269
0,467181078047562
0,428309800104235
0,477298045132031
0,460216484240673
0,457858419453164
0,467779912308681
0,483260344275052
0,468363229460273
0,512149481841125
0,482866604458292
0,488448564097296
0,461991426612571
0,500072852184545
0,486934844406224
0,53566921465164
0,493608380257494
0,522442094033649
0,512824436183017
0,52830113209829
0,526567798092108
0,578934671100068
0,516282010757515
0,56426232255186
0,531905545361941
0,560668659830522
0,539010831186769
0,545185718506869
0,581272186233702
0,569809283928548
0,571852009656681
0,63241418636235
0,535758678056828
0,590903246445579
0,575494136998929
0,625142437912275
0,599567816221604
0,600284617165084
0,612368167129423
0,624114651741386
0,606964175645502
0,624311919305433
0,594964410774488
0,656631741392637
0,613201204488076
0,679910790397879
0,610174200870537
0,636897359827237
0,64544717880707
0,654905976144926
0,644138653887937
0,723723816622078
0,698859818939126
0,749428312507384
0,668191490049087
0,73726962014814
0,664300214737188
0,70761323711677
0,666198342043886
0,738384413715346
0,69184111874818
0,735764106786364
0,717524123723183
0,774938672775452
0,730185842847387
0,797970597478414
0,698194935490178
0,766711558630635
0,742615198360285
0,777585554413534
0,733161864023218
0,805679396237531
0,741943552674067
0,821880045241023
0,735269595477689
0,790072388016337
0,807931468843295
0,852366016091496
0,790230778359641
0,883239520888137
0,770490547370742
0,849018260759897
0,816023463719256
0,905189380064881
0,782718261065115
0,83670797116445
0,799646085968175
0,967765617175788
0,843278569475147
0,925347888385832
0,814725479209588
0,878616771762813
0,849267261171817
0,895033989165377
0,821484872943293
0,926744416699834
0,832511802694027
0,9606340661974
0,853349022401902
0,954737647460981
0,863236177755389
0,983989322094328
0,873675935746394
1,02327012150568
0,861831969045196
0,974932366775318
0,883489097707272
0,984657171450336
0,951760943886457
1,0288414794972
0,949024374411234
1,06128850553122
0,929892762578677
1,08187363224528
1,00712030282046
1,01858916028227
0,890034350251604
1,08700567574211
0,969640421929831
1,0780728750015
0,961933897293216
0,986710335431132
0,969890685083364
1,08610090650833
0,944456478190322
1,15398884361748
0,944570583242575
1,09198017115621
1,07445536187399
1,02185327636451
0,988606022243148
1,14754641542238
1,06198430415494
1,10797283941746
1,0242417396085
1,16885229454473
1,05196477899598
1,11882407328723
1,04972873865079
1,29041569533404
1,06817905762568
1,2228187106818
1,04704701899785
1,13759119560674
1,02511022021245
1,18750899754778
1,07511834856516
1,17606400835571
1,11149613472204
1,42577667842283
1,06747387598141
1,25761761630218
1,11940722733754
1,2383685702274
1,0606251679273
1,2666397705424
1,13004674867713
1,27804195183252
1,17413463363567
1,34201125060915
1,15952294397691
1,39629878857519
1,2908481445444
1,28911432711703
1,21203531630836
1,32911903120696
1,11947760793073
1,38548185256912
1,28408503705387
1,33307140095474
1,10328269954575
1,33453860685311
1,2399942284775
1,47471931865885
1,16662901737461
1,48921497302919
1,22889856901624
1,46171483938094
1,26581411154383
1,35935963732838
1,2304577208263
1,35816062248097
1,27920256149152
1,51755804752129
1,22502765162931
1,44994109494224
1,29725940398547
1,36888240622688
1,33862728195196
1,45807964580516
1,27745465712952
2,0002216873783
1,27329024049229
1,3985348531159
1,20378746293923
1,46653765310471
1,31460762397527
1,8215698301881
1,27220199383428
1,61618231199081
1,29535651801274
1,59959040370221
1,3709453334343
1,64023129483347
1,34822625262013
1,50856130103541
1,40472995574817
1,76801609604481
1,46377940487059
1,89064649295849
1,34223803921408
1,6452267638646
1,3763196734313
1,41500871020962
1,25843205432505
1,41343684637913
1,26950348188758
1,53528997514496
1,37600322510493
1,71544728959942
1,4729762398409
1,51283544285036
1,27307367823886
1,66099801784508
1,39931080087512
1,7245208007137
1,53040123373658
1,70670286628352
1,35231718057283
1,62718915260234
1,36565410330048
1,96658466187648
1,52036247987142
1,61167325498748
1,67294466457745
1,98791596129336
1,47447392640467
1,78532941129228
1,46914895776793
1,59382447557294
1,45678461655989
1,80691200235607
1,49700876110526
1,90725810243108
1,48049159201642
2,14897174213875
1,29927410345678
1,88708976791142
1,45123521734866
1,92582541623403
1,57585815193342
1,89850920258277
1,40191665148373
1,7678079036663
1,40248006024649
1,82212704166021
1,43467985933454
2,36781319424365
1,3580087341712
1,61292550272678
1,47597349784879
1,80459356393515
1,53043446639299
1,72465013169197
1,59848289251651
1,58858142577344
1,56318043817692
1,96040090225232
1,50769936543228
1,75800491098826
1,44968144770667
1,81977084158416
1,52837291823355
2,17927798882962
1,6104185372436
2,01733173433093
1,55606796514757
1,67582083024729
1,43778319787039
1,87899055259358
1,59809969569108
1,66289011145137
1,57220183182789
1,77715092245895
1,46635935005981
1,91516842075796
1,44295042448442
1,78580659650799
1,44365639147789
2,32479107645183
1,63571149644796
1,92040666612491
1,46239925939126
1,87972479724405
1,5718671830229
1,98657524694673
1,53376509152668
2,40714968632975
1,53300246462387
1,63123831594605
1,48311061295248
2,41923648631735
1,50936055690849
1,66118594783177
1,54261265941776
1,99911973988644
1,42503206090684
1,71634129393841
1,41708567274392
1,76790812077262
1,52460830384736
1,58937596750784
1,63232811962127
1,79364326258864
1,64486191716556
1,77676042888455
1,41633095244233
3,39144576097197
1,55916572683088
1,88205922270628
1,62076319663465
1,78089293434362
1,53513299780715
1,79208881413648
1,56459286118785
1,6654525306776
1,48557004974013
1,78500928477761
1,50801949000876
2,56052665809639
1,42155120966386
1,70930824320786
1,45435443886518
1,91848541592259
1,67234631033568
1,81357592943122
1,57361989079936
1,74102898395088
1,44758598726181
1,88977701662754
1,63616400938409
1,73585268195269
1,57994012156216
1,77736155778002
1,71275116562318
1,87766809653084
1,55445414055847
1,9358668966969
1,59825236978393
2,16908439708499
1,50732878692422
1,67261692682902
1,46084310104114
1,69069762053328
1,56263244436455
1,97245093336796
1,43336895067475
1,83019809891889
1,57484696060689
1,88387232147392
1,67003842471292
1,8960644868436
1,44514316253441
2,13142321901794
1,6641204412388
1,86327114671882
1,65303498134801
1,65509051760551
1,64941649441203
1,84298961841332
1,6280282989021
1,72186845294601
1,47487269518388
1,65205901967306
1,54919531603082
1,59799170872699
1,61070428295396
1,54118232880953
1,74871167674473
2,05282898298637
1,56823102256242
1,82794245660309
1,59303194335571
1,70788697846442
1,5268959684159
1,50420519085025
1,63585441983774
1,74511678825293
1,78751487311422
2,26859135854798
1,52394791854095
1,71697048193132
1,57116786906708
1,63840456031434
1,45857653321156
1,53105374376017
1,70073282205181
1,63187602310241
1,55125159594669
2,157279339066
1,66102117574232
1,91248545840951
1,50607903891559
1,6992137663137
1,54154193618647
1,91280164367972
1,47478423079034
1,85024645936589
1,55138586212638
1,64813431900908
1,48954122414114
1,60640260587951
1,48642697243027
1,70314845074546
1,45487594738215
1,67494918254397
1,54711046155243
1,7722139196678
1,49281343645927
1,68058527222866
1,49282556625248
1,98081809925723
1,61089397154718
1,89716450309977
1,50225566740805
1,80388041852349
1,43474585579339
1,60668462878082
1,37597015077359
1,82933160981186
1,47443137088696
1,91651418463455
1,31182739689532
1,61379623890558
1,46540995400303
1,68254969503481
1,42622056975627
1,55183145367568
1,37750934348461
1,54591386394246
1,41010533273359
1,61875634470018
1,5715841257175
1,97867619651285
1,38218404268145
1,58970957704134
1,44552882550739
1,50682363396117
1,54032042356766
1,54412080402187
1,39730047714509
1,50749490784043
1,31476156268258
1,58525769982364
1,36766779875385
1,4809619327725
1,32858711245468
1,57572501437565
1,4482234393981
1,50504793334511
1,2811129317594
1,54420949660008
1,51946363930523
1,53845061665758
1,34632481408224
1,47207354289056
1,28783506192508
1,39107337279492
1,25563372316128
1,4709168918293
1,32080095975889
1,42880320543403
1,30594878823851
1,36387611004835
1,30582742650221
1,43623641475914
1,36758041242659
1,35625985531499
1,3239536653559
1,45890963073582
1,26124215841173
1,34709644435139
1,22135846839242
1,35910442715305
1,22384755392907
1,37900544849684
1,23590553637107
1,31160777644462
1,24390766733739
1,2978932379098
1,18755260509918
1,29772220347172
1,18032265347127
1,23555013262714
1,14818658960465
1,27098590209512
1,19140363240579
1,20304092182554
1,21463753131056
1,20254430780025
1,21041902397115
1,1838928320863
1,1641303187859
1,1686344159973
1,13807035248844
1,21749390924553
1,16113256162538
1,20432108696864
1,11507895953367
1,173462725945
1,11770824116641
1,12648820010735
1,10581710097356
1,16410529245611
1,07207031010264
1,17139048245914
1,05899519503505
1,09031973198194
1,10857115692444
1,08513383616966
1,05703616108012
1,08498900086402
1,07252771965609
1,09123270132964
1,02807193763087
1,04398402533663
0,983852344190053
1,05727995188103
1,00423582120793
1,0067588097365
0,977386939861792
1,05174541680113
1,00294752869627
1,01248080137225
0,967267288822823
1,00014244250367
0,986381420757024
0,997849300099543
0,938736027365484
0,957824625077865
0,923935161088245
0,963331704314181
0,92390455123411
0,939466270848751
0,912352600883995
0,953838272352072
0,923706651617498
0,957857258758513
0,89902518770853
0,918953817051018
0,90654733913636
0,923310986350901
0,868459580387368
0,904650963105232
0,889176732474373
0,898552775083633
0,882161509242516
0,887644860842706
0,856067662225409
0,855853170319039
0,836228743557537
0,85797067210682
0,834194909894736
0,833904933871214
0,82274543038365
0,841752492118765
0,796079875566678
0,828849443560673
0,800401305796112
0,81031544139125
0,757568295029691
0,805739422963738
0,779021465803673
0,799410521672424
0,76137224564515
0,785986238629888
0,752990519335516
0,77802510139377
0,745606290628331
0,750801703257282
0,74415401298307
0,755404487030714
0,755468109836672
0,760477056566816
0,721013828778259
0,736563035708351
0,717203904819487
0,733168556414908
0,709905716093681
0,727930539880149
0,689707614195722
0,718399071679549
0,697951933020609
0,697773973267872
0,679880463265451
0,692467709641039
0,672349594163865
0,678620445679924
0,666795102941916
0,663294479283716
0,648882339865228
0,670667205105206
0,6552447761719
0,65844626271521
0,645330634691432
0,643222663754654
0,625491401750601
0,647620695336704
0,62102417929904
0,627762409199225
0,613828315061733
0,610925045136638
0,605963970538773
0,622610917775665
0,598953021494116
0,608587027431831
0,589599906944267
0,608160548341937
0,581325016025797
0,585267456734362
0,583786820768062
0,588950915202425
0,563014181259759
0,577019631337435
0,564710881476747
0,557027089833612
0,557618900380611
0,555778583548802
0,546518510059856
0,556408643352867
0,537754863360157
0,546484961155156
0,536989980345084
0,538106889911798
0,521461609820006
0,536952085168809
0,516694012174931
0,527801336814728
0,512682321781613
0,517349141956924
0,501355657918344
0,512694834616516
0,498315276242034
0,499540672711345
0,489308066564562
0,505558048530582
0,482409922914276
0,504150144138908
0,482016906434936
0,486631755980848
0,487160907640738
0,486236538012776
0,468956927006003
0,485112549401269
0,464922532672254
0,471469160208394
0,450575200289085
0,466392788959007
0,447194721582552
0,459547738395044
0,446964692768078
0,452237325333135
0,440327995679906
0,446417512851239
0,438858553360811
0,448939005379706
0,432371365541244
0,441211518612451
0,432468228562255
0,441695081126462
0,423996837218824
0,434953874421253
0,417772897012421
0,432296485283529
0,424022540824472
0,431072753329092
0,420404972009364
0,41866347529576
0,414212225521462
0,419835583254036
0,408328280941266
0,407876564870817
0,405819279420809
0,418333093769439
0,40334364088035
0,41416031322816
0,407626401364619
0,409459742441215
0,392535560157376
0,404902783824817
0,383686663724945
0,395479892036824
0,385837900238437
0,395671631594371
0,39015150355992
0,396008216353303
0,380396882071321
0,397158746292278
0,386825086822347
0,386411488849528
0,381405284942179
0,385513473392633
0,376105277370953
0,381125984315404
0,371660754782671
0,375165602211442
0,376373550706099
0,381422002915527
0,366422402520022
0,380686835961527
0,371429955595696
0,383897553554878
0,36595414388614
0,371247426984236
0,363183577495348
0,378798547257785
0,366656508702917
0,370185288060747
0,368931982291376
0,373356067905995
0,360011577648416
0,377660571660312
0,363834000565485
0,375530031289479
0,356997150262856
0,367903604712178
0,367025794691436
0,366192045355779
0,364159474848139
0,375170988374668
0,353373326438449
0,372553973554246
0,351328726713439
0,362395811369234
0,358268928942168
0,355898012083475
0,354174363808391
0,360605837524872
0,344851416987049
0,358766882927381
0,351810554240175
0,35335577653097
0,337602010611904
0,343604843621635
0,340612270962551
0,343363584182826
0,340911098381735
0,336701020102302
0,327228296924642
0,343005165269493
0,324826340865599
0,338261676762309
0,323104263662444
0,339115562720921
0,333721700294903
0,329462335953747
0,325022017804936
0,330787407886345
0,326202301565483
0,325576031089746
0,323534618458034
0,323962264757655
0,313390175881061
0,324235495884223
0,317993971678952
0,315325845749769
0,307324623534169
0,319180245486993
0,3153915660533
0,315795969039131
0,309389617734616
0,313728472474544
0,314646681198882
0,315784615130651
0,308194829003787
0,312288543439603
0,307789233456398
0,317936297907677
0,307474760957541
0,313223385236444
0,307526843791203
0,313151668323725
0,306081504997479
0,312682071214383
0,3016136867933
0,302293954598853
0,29117160509923
0,30860268942718
0,295321437687013
0,298533592497965
0,293599226092831
0,298638610431462
0,290585553818083
0,292818657690195
0,289777049775875
0,28713314267353
0,276834536989596
0,288841144247694
0,285294041331503
0,282849997662517
0,277536441517909
0,287600397127658
0,278613719726898
0,283924541367699
0,271624195323027
0,273194329911608
0,266693062350388
0,277954118316564
0,269781777847095
0,268388207017564
0,260372058371537
0,264884967668642
0,259443146277199
0,26234062054784
0,25511053195536
0,255547301758309
0,253229431370899
0,254671384160722
0,246663779477236
0,254634412381272
0,248203632333897
0,24553941420731
0,235923826241973
0,241219113760244
0,236757439616772
0,237376638722373
0,229958827947563
0,239569229306507
0,233134151615747
0,23338184779454
0,22197133632859
0,234719088439717
0,224250053247075
0,23032774975518
0,221360916355621
0,226568109663017
0,221134119232144
0,221628259808342
0,218299082403948
0,224104775418766
0,218955287357026
0,217830794622418
0,215003332569825
0,214793765831211
0,205884532148198
0,214288322705079
0,206988183938177
0,217266477830995
0,208336657116473
0,209337406100539
0,205509469211338
0,207219371381628
0,199092589847856
0,205239139309083
0,200719944597439
0,202057312953806
0,199255257684695
0,198997785024828
0,194764454037429
0,199648313991469
0,191219115975893
0,193983464592036
0,190516064302863
0,196034867667616
0,187193882385212
0,191006552695603
0,183438397037886
0,191053282926967
0,188269115112708
0,189945770338621
0,181092975605618
0,185274642734159
0,182252703231998
0,185685686430071
0,181098239740393
0,182591392614498
0,180645646920811
0,183189581299331
0,176776752075368
0,180425103474709
0,170370455463489
0,175791365570899
0,173976309676053
0,180299257833885
0,174052103037384
0,172699335567073
0,171983741108432
0,173578238210646
0,167537054371397
0,174675245108584
0,16733692281184
0,170236370550358
0,166322771373765
0,170670813085306
0,163826620969096
0,16939975715357
0,167158924599966
0,16876971858335
0,162653906414083
0,167414016687156
0,163431156665507
0,167555487909247
0,163194692569025
0,167970877911484
0,156757337368167
0,161376725440909
0,153093597085227
0,157938922610457
0,154751060515966
0,158160322080573
0,155887944117247
0,161770170414519
0,156658853031691
0,156067075160096
0,157996125380713
0,155272135459599
0,149143641096617
0,157393557710324
0,153461041241879
0,153288715507727
0,148453322907989
0,151707609593865
0,149958503411258
0,150168083781335
0,149438050750814
0,152593190091478
0,152703033967824
0,151931558673857
0,146953037439461
0,146732811975113
0,141035894864262
0,146971687172668
0,147564321479382
0,146934275879899
0,140940322207092
0,146807475429202
0,138995372930249
0,143542719359272
0,141848976920175
0,146067009040097
0,140490372188842
0,142876456652482
0,137962536897157
0,142379067858298
0,138164678566633
0,143449636963367
0,134922302448036
0,137524222724066
0,137971716992043
0,140058661200703
0,137593208213717
0,139410426507562
0,138170226172604
0,138348881420174
0,135940022468172
0,138915690234993
0,13452994226158
0,142886132723059
0,137596899243422
0,138580818489789
0,132038997415828
0,135369415987449
0,135229763685621
0,138887070779558
0,135228250896102
0,137567631038049
0,133799402602915
0,134608021040654
0,131843136741126
0,138793239785376
0,131919314580893
0,131785905436382
0,132058107867232
0,131816087017071
0,129441884105874
0,132789496423221
0,127108860261554
0,131406073411045
0,126027110774596
0,127233263438433
0,124438462936457
0,133485107931158
0,127408096995099
0,129923030182663
0,125287996600816
0,128001998891055
0,126032161239052
0,127980137958102
0,123412323221885
0,128179057757373
0,120908933624656
0,123955579155258
0,118333621732348
0,123655901746913
0,121549222405954
0,12406073263535
0,11983959662235
0,123092512838264
0,122617611495783
0,122980533769156
0,116213516164922
0,121316844046848
0,117601336657735
0,116600763890796
0,115244032421464
0,118836326301157
0,11672462662131
0,118794771337043
0,115380709014131
0,120429495049919
0,112627943098051
0,113288791064574
0,115285815541009
0,117698976790083
0,113800828800559
0,116749201041858
0,115872845882385
0,116524827551065
0,111032887194949
0,117475093674266
0,110625373531882
0,112431514889426
0,108210104580454
0,110280769976646
0,10882566810462
0,111680774576538
0,110319428574461
0,114039808225058
0,110919626914597
0,111283955286079
0,108844741166713
0,110690672367496
0,104945503019081
0,110738538306574
0,103444815763033
0,110305155079955
0,106600786491254
0,106565476452808
0,106125785796311
0,105782295747518
0,106350720254167
0,108524149393499
0,103163032793548
0,106695661966985
0,102203169613291
0,104328185861988
0,100517330516207
0,10355135040861
0,100722258314573
0,100810333082631
0,0992525349973929
0,102103130911689
0,0962182235957589
0,10247486533694
0,102050033339895
0,102557916314804
0,099438450686415
0,102898653754915
0,095924598961909
0,0978613812900003
0,0973352271515582
0,102397909700278
0,0978723901952246
0,101598919152575
0,0980626236853988
0,101437845764934
0,0963378907109275
0,0973135994465646
0,0949555722044142
0,0997202968722176
0,0980943644026883
0,0954678420757324
0,0939205088688305
0,0969444955801579
0,0937813510603638
0,0969045651145444
0,0958128252556454
0,100097268717164
0,0948421268487579
0,0970348920309359
0,0925688060663344
0,0964898083935867
0,0971435403257165
0,0954217431111076
0,0930063815643691
0,0943701622584466
0,0928714384688666
0,0960209734611119
0,0904217944466922
0,0969099011048648
0,0961451462951684
0,0979695483764348
0,0932216532149639
0,0934486508348885
0,0936889533016409
0,0963767555021796
0,0930470617836867
0,0951397502507107
0,0910657509148382
0,0961005661635338
0,0941210415652141
0,0941515252447654
0,0933286879442797
0,0961668231888044
0,0901769244418592
0,0931335440660279
0,0887624904414246
0,0911135267394646
0,0913283864203636
0,0958410768472708
0,0882139439818838
0,0923573754719695
0,091500042301616
0,0940515473297255
0,0908611757024866
0,0960820653905615
0,0892902084704575
0,0911231903424938
0,0901827060396323
0,0911804825034938
0,0871580476483124
0,0915418564081305
0,0919209220404559
0,0930089778625315
0,0878394791014299
0,0925319656097595
0,0894896395188959
0,093681062124582
0,0883183421214261
0,0890541788283284
0,0868841911478274
0,0919795065667392
0,0898835262680116
0,0894036168586498
0,0872847797885454
0,0921069707917608
0,0898137631279828
0,0920814159160042
0,0880749827314128
0,0912458467271944
0,0903350572770421
0,0936785868116163
0,0903985344962804
0,0939968979776624
0,0889905263413907
0,0906499691239102
0,089470358957455
0,0932405987899631
0,0870643503370028
0,0933159066551423
0,0899582234303068
0,0920016465003013
0,0911608089130292
0,0905930313309936
0,091211671367917
0,0915765124486357
0,08849232394157
0,0923663949311423
0,0902396977120715
0,0948055387276067
0,0884850053658438
0,0917977622246721
0,0901883301486072
0,0920067135047812
0,088297251859428
0,091184055182648
0,0886380722505296
0,0934183131639657
0,087060984768511
0,0936366851683583
0,0890141880016573
0,0923433628395254
0,0903119052109109
0,0928375744597576
0,0879783685819035
0,0888834585114135
0,0882541301305246
0,0913343309489465
0,0884085421051587
0,0904384193771368
0,0881793857723732
0,0899357308953048
0,0849999706096075
0,0888655574184099
0,0883630868678653
0,0895238020592165
0,0886415076506643
0,0923242152541595
0,0887974120511417
0,0904546547417699
0,0893526336991088
0,091509076146034
0,0902522345983866
0,0919604841583808
0,0893492957036107
0,0907366559422375
0,0901949165313221
0,0899264713610524
0,0902313558482343
0,0921981214346985
0,08587081700605
0,0900224213592159
0,0881867971443611
0,0882385979808846
0,089351493116367
0,0913380345964871
0,0878886164295678
0,0896329756000559
0,0880161983610465
0,0913994394728305
0,0878368417084611
0,0906544394226757
0,0867398054128529
0,0908864945270601
0,0907278104072071
0,090849474133373
0,0894817405608185
0,0927519370411033
0,0856688179284874
0,091980444432771
0,0897409402494725
0,0905458949657469
0,0903112108715024
0,0902471682516694
0,0885084016304896
0,0912024464702427
0,086020257211823
0,089878437284567
0,0871116471166363
0,0904856814686483
0,08655278696557
0,0865185142874759
0,0867700836983466
0,0883221475744236
0,0872376571325013
0,0893743214597557
0,0888670288214094
0,0923305229867106
0,0886841031112311
0,0894669364880895
0,0884292987433854
0,0884851619881294
0,0866651319082535
0,0900280180702872
0,0877181709990587
0,0877274378106608
0,0848156704509813
0,0901222459891748
0,0879367848470701
0,0897996588202567
0,0887608638112393
0,090844514635204
0,0875390317333648
0,0906525711599351
0,0897309554551921
0,0924362356052299
0,088703979963251
0,0886446402430276
0,0877589130423712
0,0921379793575995
0,0900765504869353
0,0904100172077
0,0868560811321947
0,0904466131246605
0,0899610686197147
0,0894684693952639
0,0890640947003085
0,0943841922927758
0,0898684912650373
0,0886581459575006
0,0868710863256795
0,0918653982669919
0,0878006288976574
0,0926618716230516
0,0900075164186786
0,0898216013039396
0,0930444063534123
0,0938911744523562
0,0904506177995899
0,0939876205536999
0,0920734417910005
0,092347134546533
0,0894775930444618
0,092982516741634
0,0919790800173449
0,0927213557520805
0,0886698891512198
0,0905134863373106
0,0890441177044875
0,0929295688480916
0,0883873817298548
0,0910779757507599
0,0888632451409558
0,0907061618326386
0,0903463346103778
0,0925667394336544
0,0896729698656158
0,0917504384892536
0,08834891011211
0,0929907768735227
0,0896006341464128
0,0906486755776035
0,0896980536666257
0,0941854478876868
0,0888071651727868
0,0910274053077871
0,090892077446243
0,0963676190120377
0,0919655519763174
0,0935269865398454
0,0933257107358495
0,0951046154322939
0,0915196101852992
0,0938616639195031
0,089771875681156
0,0965923429831585
0,0910633156004688
0,0926701543206484
0,0931104848821143
0,0947920390553381
0,0921360180542888
0,0955003475948859
0,0927710615007455
0,0971572686373506
0,0934048260724419
0,0981426095243311
0,0931720113858592
0,0977096682601347
0,0933607354298104
0,0981325752793886
0,0959407312403633
0,100340580602286
0,0989642332986241
0,104138764034377
0,0949023795752824
0,09693553339155
0,0907628869610694
0,0914185647296265
0,0878157756933927
0,100529514942828
0,101777280173229
0,0999234661777547
0,0838633899925603
0,0990271929961628
0,098153735995816
0,0993366995454823
0,0913314186714878
0,106598999151291
0,0943894801608289
0,0983005861827625
0,0959465841623598
0,100487404973201
0,0954905402061758
0,100285092973951
0,0956765815516627
0,107173302568236
0,0943464218063744
0,109542155541463
0,101755194187956
0,100725344066158
0,091885358547793
0,102786963031678
0,0945402234867895
0,103693523993061
0,0947026467415227
0,103203815191396
0,0940310609972224
0,105428393342532
0,0959759708819085
0,108281203715616
0,0965959459826299
0,110010302052945
0,09550987321867
0,104300784097416
0,0909670500900373
0,100395825537567
0,0924521936170854
0,107298608631574
0,0955391611516744
0,114307664638636
0,0952319073656028
0,101754057517164
0,0983870234365393
0,11435472820834
0,105955689360269
0,109657234759826
0,0972478245447914
0,105358198516652
0,11259767042162
0,10461801418305
0,108121908253136
0,102709250834054
0,117109066145219
0,0968263232316285
0,115689679997339
0,101921736357407
0,118920471217233
0,0971876649300016
0,120648801845045
0,102330399833775
0,111295152472913
0,108615279856773
0,108834677114185
0,107126159752889
0,107381008992883
0,112054860969879
0,105726951383043
0,10946510632247
0,108535452625803
0,110232415663491
0,110392702987341
0,107439075021407
0,107802939216839
0,106076077314813
0,114967536361219
0,109915615821882
0,106335508035311
0,108482788514799
0,108746309104042
0,10823836705339
0,107998277704744
0,107975018159951
0,11076252652058
0,112221779984429
0,109749639446547
0,109197409323935
0,110010179336672
0,109410006167804
0,107982256332246
0,111703294568717
0,108255446012598
0,110888237270357
0,114378361308338
0,111195548247696
0,111862187128757
0,114756368287583
0,1141013781802
0,114550403885187
0,113513044072456
0,114449727128182
0,11397002160603
0,114779098605878
0,115211739414912
0,114855332258512
0,113507417017804
0,11514606537442
0,114544138114102
0,116169323544764
0,117827704072213
0,116246581052025
0,116414676681187
0,116945098476191
0,116806506549594
0,119433080291938
0,115485693572938
0,117275380899507
0,117629265184865
0,117394217533817
0,118601635818419
0,118063952597891
0,11904787650989
0,122232383715336
0,118653397834405
0,118023154143255
0,117549935244927
0,120362927106869
0,121183348619101
0,12271930726979
0,121175894276497
0,121059031567311
0,121378923378482
0,123711938129322
0,120629061086834
0,124613040967709
0,121985899347676
0,12176833720203
0,120116139023134
0,123247105119906
0,123935788581332
0,122098449592899
0,121206033652849
0,12338532383221
0,122991145919089
0,124708643792042
0,123810937900784
0,127011198529946
0,123506437173218
0,127963277460982
0,125319952345045
0,123629051690564
0,126578571868428
0,126906124705952
0,125487252073869
0,127472135894347
0,127484854164024
0,127684335457606
0,126288990710404
0,126388346683921
0,125113605315168
0,129095796344234
0,129909517046827
0,130955121709207
0,130593570209591
0,131693428537711
0,130803965578366
0,132236374504966
0,132120711230774
0,12966051305614
0,130688068087734
0,132977131739485
0,131411823254867
0,132578612907198
0,130576081223215
0,131887214922129
0,132580400230322
0,13566123891288
0,135808545342487
0,133864933383378
0,132338548047667
0,137241114529949
0,134275066507678
0,13505165437175
0,134284917461293
0,137147069719171
0,136596107033326
0,13776339735156
0,134877304220117
0,137390214648733
0,134761224171726
0,136610087765765
0,135556718754235
0,137181523584773
0,137868382149873
0,138558331808794
0,137523663499988
0,139949630039328
0,136665654297884
0,13844336667689
0,137564412849431
0,141116314302514
0,140239488902075
0,140898877578215
0,139234738038817
0,139988791550002
0,140710570230991
0,143141629335186
0,13857211161088
0,139424669831929
0,14043627763592
0,140919699288332
0,141392043344134
0,143151400392587
0,141245248712448
0,140820544331993
0,143090928064925
0,142361666102694
0,1408112408486
0,144077761108988
0,14165117501877
0,144243445576931
0,142826626830351
0,145958641251603
0,145146051819317
0,144413806580123
0,144139303933697
0,145759280362581
0,142756858259487
0,145313486166072
0,147013295718949
0,147173502000587
0,14699024345023
0,144679209140205
0,142681012525389
0,146242240895682
0,144156584412832
0,146584067508964
0,144183143490391
0,146266012122542
0,14491224251208
0,146562484568327
0,145107396819834
0,146251954804376
0,145296952290889
0,147769054611497
0,149032899860671
0,147233231379398
0,147570004025457
0,146877087219532
0,144199190000744
0,147226955198924
0,144094446795359
0,14982073464058
0,149463118331117
0,146646838876381
0,144616317369633
0,146454683410809
0,145381449012332
0,146856705011033
0,147632190661712
0,146353704386422
0,143122600858428
0,146444697273787
0,144154727311592
0,145733508130223
0,14591174734205
0,147442539783872
0,146570773024539
0,147572668596845
0,146399469830911
0,1473175053461
0,144600044772275
0,144884266943553
0,145667450877021
0,146402572445365
0,146133229152642
0,146530731824247
0,144871235373494
0,145929754020264
0,145557644544581
0,145982927825339
0,144238143608962
0,1465745259996
0,146609960900891
0,145413888709285
0,143022510913274
0,146237855183773
0,147282283895845
0,146481348814483
0,143992289128463
0,144326916284783
0,144829170132507
0,14433001543166
0,144801112568934
0,146324407136071
0,143282213929983
0,143578722992153
0,144231505972185
0,146494362084799
0,144838476080786
0,143763797406966
0,142800526760145
0,143389610077249
0,142937694979666
0,143546580005043
0,140417384163798
0,143358990673359
0,140374701734035
0,140258329603668
0,139509659167736
0,140054883884378
0,141304127842043
0,143100951883798
0,140483080477138
0,142353202787778
0,141858492117816
0,142232122633468
0,140405923926559
0,140593081660652
0,138922520420947
0,137574806679805
0,13544062397448
0,13825235184861
0,140229254132556
0,139593481189583
0,137136871989104
0,139283890249638
0,136307457307536
0,137482947700294
0,138228743964377
0,138990690146311
0,135343639982504
0,138028650980488
0,135783218195737
0,135044558483319
0,136422872058243
0,139520240750427
0,138204920736275
0,136629018335466
0,13502812133551
0,134577827608893
0,133623259966223
0,135288710926965
0,131761895926171
0,135587387663468
0,134171254210281
0,134299508200356
0,13294072110381
0,13281832207447
0,130827296860493
0,129511009858375
0,131455948833263
0,133546274641147
0,132053687390667
0,132155893831546
0,129797252140773
0,132214933536202
0,127968720023898
0,129918631336492
0,129440988932967
0,131770097190729
0,129069503394842
0,126958579461937
0,125390258027042
0,129920860577818
0,127998886304114
0,126780942970413
0,126933802489879
0,126252887266983
0,125130895435449
0,127438765984639
0,12674731308405
0,126683704017687
0,123223442747485
0,126459431661928
0,122584510718967
0,122955898364321
0,12493440241898
0,125317046581455
0,120893595379411
0,12196973861973
0,12045252242046
0,121983656230419
0,120516818686935
0,121270808065224
0,121316402309399
0,122324244328673
0,119136168818637
0,120124427596142
0,118393675898581
0,119400433852257
0,118025790670733
0,118126824009829
0,117051059299207
0,118329151015437
0,115020008374285
0,118249756247111
0,117416068480627
0,114881887316175
0,114835761004345
0,118232850820664
0,115989184272347
0,11557470581692
0,116419912351313
0,122734502906732
0,117712662302421
0,117278507244675
0,115573446694831
0,116410240201967
0,111312889553929
0,113173360221752
0,11407367019302
0,113119637055706
0,1156840726975
0,114032394121226
0,110770248541525
0,113792998755485
0,111023825972586
0,111165157344778
0,111901188496131
0,110704250064442
0,109208629573264
0,110135655342191
0,111040928982222
0,110703928747927
0,107956985130299
0,11061937901484
0,1113734594748
0,108585064743431
0,107483441060858
0,111680965464028
0,10884196634083
0,10925761377139
0,106590237078023
0,106971184848043
0,105711580071572
0,10653183923269
0,105814382593153
0,106566023461037
0,105622713962999
0,104891052700247
0,104671326454919
0,105070904426925
0,104547265413786
0,107084305268499
0,103413349519706
0,105855235451236
0,104892359826585
0,103232551835836
0,101461718551124
0,103047718108762
0,103533199354187
0,103793591741575
0,104415535637291
0,105084348079721
0,101380017354581
0,10745062672038
0,111873595275848
0,105972736509021
0,101302221030093
0,106476288695768
0,099012772396276
0,10342191530221
0,100726099590196
0,102941533051869
0,100051458041764
0,101221194640836
0,100746534244173
0,103303400239369
0,100579785479189
0,100708462684066
0,0987325419309956
0,101308293196016
0,0989629711944002
0,100670025009526
0,101655411682414
0,101326600939365
0,0991045181713101
0,109159522687979
0,102684246538556
0,0985843505417472
0,0960551534250859
0,0960489196184635
0,108385736508912
0,110274971549632
0,0959701189757937
0,100056614896329
0,0984688536047849
0,0987781270604559
0,0971359800922028
0,0976427011091378
0,10040747889676
0,101774930227782
0,0993608655903009
0,0990184904180688
0,0973549699432887
0,0960840936861845
0,0979273291151714
0,0977049622504057
0,0950797710105908
0,0966155625640942
0,0965186598393718
0,0954051951301031
0,0951410473825531
0,0973311311488744
0,0965823569045341
0,094149050012844
0,0962498192739292
0,103075297338952
0,0970993095066058
0,0971760004655532
0,0978349430024423
0,0944393687422492
0,102221470224413
0,106964729735877
0,0986476737286889
0,0959805927862139
0,0969426325411267
0,0958616622811286
0,0965991566733079
0,0955637595584403
0,0973484776819483
0,0955539949496483
0,0975062206262589
0,097454356172662
0,0951985194947089
0,0944258684922276
0,094760859391186
0,0953287243357561
0,095899381076367
0,0966484869927743
0,094503277606493
0,0966280415054633
0,0949836674870156
0,095404765489949
0,108410369491951
0,112983940651792
0,105310840701706
0,104375379815233
0,0979823931189567
0,0980178048526686
0,101680329913776
0,0969525494770987
0,0981241743905343
0,0990153434983042
0,0992365172859447
0,0953564266260353
0,097189659812037
0,0969010738222202
0,0957617144239609
0,0934228595054007
0,0979685525719276
0,0932067784189842
0,0960407324422326
0,0966449403117183
0,0979521901652334
0,0939464661265197
0,0979887825132552
0,0979049972765169
0,105643105284303
0,0974297318791447
0,0951830027276782
0,109036814490515
0,1175417943079
0,105728088929897
0,101388472080784
0,101834836477866
0,0966533777925223
0,100112727115449
0,0974941944047648
0,102698245191402
0,099241720652824
0,0980404459860271
0,0967412913065012
0,102547749171361
0,0989043832215886
0,0932026156107715
0,10459139832084
0,11915903519256
0,108949503297999
0,103899483786734
0,096716025156598
0,102814600766154
0,117731115670574
0,107686487363144
0,100588939600025
0,106540383809272
0,0999596032763241
0,103162128337562
0,102035451968679
0,102777957817454
0,106535917921548
0,104557131612673
0,103479383553715
0,102506270099236
0,102351875757751
0,104079272621852
0,104709765744728
0,108067830562602
0,111960236612551
0,107756825505627
0,106433106432416
0,11167216300237
0,105684982632692
0,107420495984346
0,106364950716427
0,106846617259802
0,113158421984384
0,113807835975982
0,108350969185479
0,116398693016351
0,119224054901407
0,108637254118543
0,108731620977865
0,117298044918147
0,115490604104699
0,106795916423525
0,112881595445989
0,124096515441515
0,129431468485858
0,119444981513327
0,121042979382012
0,109999681453095
0,118260493757791
0,10681278481588
0,114295599846247
0,117379868454624
0,125532513660159
0,11015506286491
0,115317462747006
0,114439062997522
0,125207011448547
0,12134567172035
0,11837290706737
0,117400562791831
0,114984689952267
0,128271186076889
0,124690288760453
0,116024921591393
0,134835412722444
0,142929496051171
0,139046188817088
0,131401523688332
0,128568264049309
0,136867208923932
0,139935027195967
0,125157544414147
0,128805327328355
0,133401537010522
0,126024688654829
0,132077123069498
0,156507981217614
0,141988906129855
0,131995885619641
0,135602843717412
0,138007854953589
0,14729687535547
0,152550943196563
0,13668280540557
0,143470442542768
0,137804752598875
0,139181659644771
0,161950625693588
0,166225761647851
0,148903708518768
0,161311185273573
0,165520783859435
0,155894959911322
0,160747402704692
0,15206642441546
0,163606530187819
0,168846714108042
0,163393160649617
0,149925464664345
0,171667836934447
0,175353889732541
0,171719389908651
0,161394231381155
0,168196089465912
0,154998294278654
0,18477250688079
0,215901285952368
0,202477293940916
0,179698771428848
0,18467785688673
0,192128452603679
0,19544118844255
0,183095219722808
0,188799252395891
0,192968469574342
0,192051117804601
0,196690418929929
0,205739537630132
0,205845402349461
0,211217895247277
0,207418321940054
0,211121803762916
0,218102695965457
0,26658423571005
0,244649335170406
0,24647004680961
0,230787616634258
0,256258230014869
0,242521262280202
0,245711940455599
0,243443447617682
0,255962253478766
0,264915052405871
0,26305180049155
0,263112404292701
0,282949069855373
0,281895862517682
0,297799470550471
0,303116839722205
0,305783016071691
0,277815061747568
0,310230883010397
0,371243280557971
0,365311420856882
0,321689614946423
0,333057397050625
0,329858417193495
0,388479783514645
0,375955280477705
0,356992727109236
0,365082811228027
0,367730226413899
0,377580318615549
0,394023726148045
0,404255949738502
0,417478384650602
0,409771667114382
0,410295539361808
0,417979554716942
0,480616209322334
0,485346139438128
0,4703989319674
0,456315090250196
0,470071338610156
0,490805332924969
0,480172378374527
0,488238886119872
0,489300248831172
0,510343063012129
0,562004635106209
0,552195546970224
0,516692290297538
0,547425701483254
0,553407991968081
0,568147111492824
0,577148332062031
0,617817643669488
0,586885730935848
0,595003073084493
0,606218759549415
0,605130507897147
0,6114871828785
0,641991976966315
0,659278461824422
0,647324858332082
0,656869331572589
0,65626325850893
0,662368792283268
0,675548006176533
0,676739583671273
0,695718689782805
0,701222060638265
0,729204842647986
0,823629782062183
0,766561485202427
0,729820116659043
0,725521302759806
0,728119279774239
0,751180680827328
0,775173294177553
0,781934773331389
0,782984485615021
0,761529177353999
0,752257484630963
0,761604836180492
0,765662724160381
0,788103282283378
0,780950132221624
0,773147708104673
0,778931917276384
0,784672464079739
0,785829293731393
0,841547581817668
0,777154234447344
0,763299866167559
0,775827290265651
0,757201926611979
0,775344985526404
0,745385578878785
0,749750367925082
0,760230455114345
0,759307630221131
0,721922881350304
0,724944210382897
0,726753536499408
0,736286330919461
0,714879014473249
0,706835055794065
0,692165715348572
0,679166707497214
0,651906807676023
0,680683343664409
0,723298878315152
0,669436963518545
0,621508353091014
0,636722420120272
0,615357077153855
0,610262811742092
0,592411437994962
0,603745867566027
0,584339816372982
0,585084563869354
0,579893394621735
0,565778847963022
0,548868052590348
0,553200392337465
0,546820658859123
0,541343665957729
0,526469447870856
0,525330593370661
0,508012792219283
0,504141239300703
0,503715502693889
0,502760505528592
0,490497255882647
0,492910507036524
0,481691488090631
0,477408637911258
0,464350668046559
0,464206707275257
0,463207015668466
0,460244807046824
0,453758285812482
0,450423390141706
0,448452316438467
0,444314844404391
0,440108487456087
0,438764827860463
0,437311415518915
0,433687687787767
0,432841359455752
0,422102706286473
0,430346128330752
0,418779007065629
0,416616717311535
0,449197307625797
0,453352394983269
0,425413342011703
0,405814850820173
0,416588930217157
0,402917688589601
0,408104882935022
0,421506260136534
0,438965669351034
0,404505344280653
0,404265888708764
0,394924264646587
0,402316916820887
0,396620101549637
0,405547261021895
0,387519217479417
0,394700268368134
0,393049321500429
0,454186529574577
0,460637664211741
0,469907423705449
0,414874577322911
0,370555449388384
0,399584008155407
0,407757331852504
0,398564573727129
0,367494448833013
0,37966916365485
0,380742900561721
0,387806666945123
0,374160458385468
0,364496748019555
0,356768016360628
0,365587621709605
0,38574753190306
0,365608022275583
0,369823989993489
0,381048583751715
0,365614119770106
0,359681590022772
0,434504296881209
0,379273014923245
0,347509199301342
0,345577847520418
0,334501476617654
0,353101837727708
0,360397762750623
0,357022342275442
0,344924574305533
0,336946447834911
0,330872211959016
0,3268716657378
0,351808243780299
0,321939311777201
0,342744935952932
0,336567815027968
0,339608425882564
0,309480733516915
0,341142218989486
0,348771200975658
0,367943175824946
0,325813858478089
0,306325485154257
0,327929420614623
0,339054525623323
0,327034475957114
0,3109616813193
0,301775035473915
0,306959409816694
0,317109558112958
0,30772356632173
0,299925999864634
0,310962124824545
0,316132007371559
0,313733438601934
0,353693265941913
0,341182506919951
0,303156969543796
0,288323265787259
0,278084991242309
0,298938272448411
0,282078864487773
0,280901924064144
0,286818231781551
0,288286095079359
0,288031986182886
0,292942636127694
0,301790584800363
0,276999623919778
0,279171265502497
0,276070352081268
0,281729567313748
0,307817562876965
0,316146778948484
0,287250538611473
0,284161426867321
0,291310933857411
0,295616819013465
0,276184244026167
0,286442896922707
0,277899706274145
0,285168885113262
0,281475974625181
0,293497203942045
0,285640997170842
0,289674001728742
0,280642086480875
0,317836172901767
0,298997022307269
0,304598729056592
0,284605257293767
0,337579754887359
0,321760147581555
0,32767220802295
0,309008129365883
0,303471038177531
0,308503316083349
0,309268894678296
0,305410458498865
0,32532035411296
0,330844385097074
0,333312460104716
0,306520862733501
0,326490468232985
0,303573740894713
0,327377092459745
0,325163287183096
0,345879184894412
0,350075021100836
0,370574968878533
0,349511396473081
0,323397479708333
0,329154501742729
0,326922707187056
0,334689858659506
0,327096345481946
0,317789606809143
0,333250534124943
0,339455661118047
0,336567729664315
0,328869145143737
0,33255407475475
0,329780694989545
0,332445229795299
0,331986409862648
0,328896745549104
0,331499244867029
0,342379042437643
0,327346026061908
0,342453105286217
0,358935855946478
0,365533226913705
0,332758098375538
0,340344507057277
0,3434169602682
0,337619118971597
0,338764889717522
0,346402443796572
0,357779888905427
0,352306567437827
0,341975185706923
0,352837856442747
0,343395401505042
0,36396214133717
0,353896489878046
0,362099583531027
0,340687019445915
0,34228407020104
0,361747867922779
0,388010402573325
0,372578016862855
0,351629380560557
0,365088236393935
0,346429626876364
0,361025004279686
0,349453703903417
0,362540415511932
0,351070708232714
0,357047131233155
0,353365389812762
0,355917501237931
0,352228103684083
0,349931965543967
0,354333791299088
0,362827755751075
0,362537304648727
0,346048544699955
0,357720184786103
0,348526022995458
0,352136499055517
0,36182795855283
0,365353239670516
0,360148842786323
0,347894514524027
0,359253307442437
0,365477281490239
0,364367391993071
0,352985255507312
0,349626380455078
0,352313298237247
0,356240392772211
0,345900406627597
0,349814332053363
0,358409864154843
0,367046611958221
0,350340777740733
0,357997458340626
0,348376692079459
0,360710134969149
0,352792997818632
0,360540796335067
0,358491713068032
0,369618186767226
0,364177780854509
0,36471440793649
0,364236018307446
0,367700509482187
0,368881082767159
0,372927291643964
0,363246922813654
0,364862451974306
0,358969760461501
0,364367391089568
0,363962565064438
0,363980802174862
0,350444937187586
0,360842585492879
0,344573524508909
0,361150032338736
0,363106732585731
0,360844210079092
0,347747679076132
0,349960306040663
0,338403968555113
0,3439520865432
0,339275725692594
0,337899427417705
0,336844365928693
0,340504850360739
0,333619691233817
0,335533552867305
0,333239924917408
0,329374853633723
0,333106562923968
0,335716635077038
0,332539290149094
0,336139413936273
0,331494582827352
0,334788420956199
0,327772319948296
0,332643825557869
0,324434302704165
0,332273053632243
0,335362701757185
0,343904302859522
0,338350368613001
0,337518295169285
0,336707196155369
0,331843734829817
0,329598462084339
0,324943631347215
0,332079960359109
0,327212530135995
0,326622270618519
0,326050726667148
0,330553903456926
0,328857633566358
0,330357247230147
0,328324194828764
0,328599188989925
0,325511381326513
0,328174076943748
0,324113207702479
0,324837699041829
0,323749991107597
0,328268815806521
0,327550124702347
0,332872744302265
0,330929711326724
0,328683661687592
0,331131408134576
0,32808546803452
0,331282801506887
0,328874566248162
0,331436557820867
0,327444098255814
0,325337210513732
0,325680331227182
0,326112200421897
0,326551614905524
0,325280828388487
0,322989354617612
0,324910601068358
0,32258388352509
0,321505134914786
0,315562542117148
0,317329576102444
0,315335420127846
0,313820878750614
0,311480889384395
0,312298649816591
0,308129878728116
0,310032708557121
0,30803173907941
0,311011958836263
0,307208640226476
0,305763179303518
0,306474737239726
0,306372214026992
0,305090081445296
0,30597145343214
0,304060270050788
0,304018266001612
0,302452581406945
0,302226608308422
0,302689962489949
0,305592993121728
0,304579177856066
0,30459714927236
0,306123803050186
0,304077633596708
0,302487550756869
0,304506063124009
0,305753780616385
0,306644107992117
0,302422350793379
0,309437934336645
0,307208613502832
0,310051967675712
0,312726673733367
0,313613326459231
0,311563021239593
0,314702689444584
0,311333065704379
0,311400624394878
0,31218667678691
0,313960512239909
0,314001624995931
0,31280966161829
0,311864297004091
0,313487402426895
0,314947609614428
0,313393887076939
0,31293110325174
0,312649155518264
0,31394550395389
0,315630912208559
0,312206201283815
0,313348013663305
0,309265358641009
0,310696871827054
0,309560233845509
0,309023397702852
0,308900133291952
0,309668698943303
0,307175521238284
0,30695669701425
0,306973735268612
0,305923033618042
0,303668358796045
0,304007274369789
0,303526808006996
0,303106081719959
0,299684190528983
0,300062102486941
0,29967095600867
0,301099063323948
0,300954214272107
0,301136911373735
0,300923081610533
0,300261395042879
0,297400721618061
0,297489901840912
0,297668457387524
0,301326055662392
0,299115272508301
0,298439967677003
0,297659916049795
0,296348792005835
0,298521118367593
0,297091691985256
0,295894982451667
0,296140281150343
0,29510728518978
0,293617897467028
0,29232828984729
0,290434621906281
0,288830582144361
0,28811525093977
0,285463566337012
0,285821198516687
0,286469225238125
0,281782939173205
0,281371290240729
0,285723992008844
0,280240279467689
0,279401223178726
0,279448914701553
0,279170527861836
0,279247084317145
0,279300063273517
0,279006875276755
0,280758938846974
0,278624815349255
0,275685153376651
0,276613235343782
0,276357577892575
0,274522191797262
0,273815052128318
0,273949141942612
0,270648073600409
0,270776710919497
0,269168493293406
0,269676365018154
0,268899105384173
0,265331022029175
0,264827069518718
0,266650546090202
0,262032857928392
0,268156783231062
0,269487021992683
0,269220206577024
0,271956935650576
0,270360473972004
0,27414423749074
0,279767789215998
0,281331283581885
0,28264017486621
0,287455225980735
0,291231031188068
0,299136649615929
0,302225292786914
0,309029585945031
0,314835410028817
0,319544709126448
0,326144221393651
0,334570760636889
0,342008994456918
0,349465419453326
0,356914328615577
0,363450952717311
0,369437065169676
0,373366202536846
0,377462202789196
0,383378073770797
0,389956962707587
0,395493915357358
0,396132736146422
0,398881902228817
0,399748503919561
0,402597855087373
0,403924781261061
0,406129694488942
0,401399851952069
0,403280995403739
0,402788877563156
0,404434945821655
0,399275541035617
0,400322226164394
0,399809715356883
0,39605458606201
0,396512608925942
0,394441761222774
0,393284310514347
0,391818692904124
0,392332820021437
0,396267097446757
0,399141471549484
0,398427435095423
0,396829993237258
0,399828570153335
0,405469116141054
0,405758513747999
0,40870948844745
0,413225623597853
0,415616284220753
0,419160024040635
0,423156039829763
0,432197269676079
0,433217530841541
0,436014922074482
0,441331167968852
0,448661914883495
0,455059943188816
0,464556205979332
0,469427305210395
0,47958205613897
0,484841800707605
0,494129309567097
0,494115638360495
0,498534903206062
0,500867367101612
0,497600369588716
0,500799895220477
0,502673016569163
0,494523291194573
0,495538113957591
0,491909104602272
0,485062848199303
0,476585085459093
0,481089454124063
0,475627173578377
0,475091941175654
0,46978378643346
0,474300450457097
0,476843786370596
0,476773203834257
0,484208019169525
0,490358703011898
0,497789232199721
0,508047700652246
0,514463566322088
0,521471682233163
0,531685975041883
0,540061534591064
0,545052148257419
0,54957539266162
0,557843061778237
0,56692037643911
0,569492844344864
0,578208309339563
0,585779126805809
0,587731241697237
0,595847021552843
0,602173866223501
0,606048648216198
0,621289888807297
0,627192897523926
0,643163732728283
0,651797697657946
0,662065557663883
0,677169728533431
0,681137547835257
0,689625965658439
0,699313006976605
0,706750122219825
0,709816754383467
0,716025785412176
0,733992584231134
0,737656035331488
0,737396088982675
0,742671633969706
0,746290323148554
0,749482438246978
0,74065640715753
0,728761424289102
0,728585630571058
0,719063145782389
0,712038070818506
0,700135054385843
0,689778216852113
0,684388745089598
0,67463307256532
0,673697537128812
0,671359298006753
0,671573301170951
0,66344049846433
0,660645719044865
0,66977690014775
0,668947062957263
0,669337620260162
0,673128619655496
0,676433033663941
0,682635241645467
0,692276449644142
0,687902508817975
0,690603773209581
0,695656987973338
0,711331080487224
0,708280471125818
0,706644250025904
0,714481396995741
0,728557874413692
0,724693819610773
0,720095330795424
0,723067520235665
0,725640398055307
0,719770112060187
0,728000869826003
0,717255290767471
0,715590437890168
0,70781695440623
0,712387732938663
0,706809942661976
0,706736836747768
0,697906249261055
0,693586483138758
0,681268374432952
0,678762927627632
0,666546959132911
0,670643375378485
0,660712408909421
0,659186047717777
0,651260249160079
0,64415479586169
0,634452302376734
0,633390374376218
0,620577692249751
0,612991240428107
0,59505373906554
0,586102864601945
0,569562712671883
0,554097025800241
0,530842880529691
0,514961704948097
0,498509873806162
0,483860285625209
0,463655866937509
0,443450891372616
0,435860583236313
0,424050462690266
0,41615494796353
0,409076757185514
0,396439166372926
0,394213387867707
0,392978656400977
0,395528375557667
0,399275453749017
0,394021189791438
0,39456223921323
0,401076926635767
0,401131949738734
0,4059863710274
0,399666116454696
0,398782685375707
0,395082444099369
0,399439438620281
0,392049896612062
0,392618906401206
0,392828720671374
0,39111394601616
0,385771911408456
0,38985633927383
0,381461365775562
0,380535692537559
0,37503231460423
0,377700004667189
0,370612043385688
0,366222407344528
0,361853005681876
0,358801510900088
0,35687621335326
0,351436728497095
0,342578907337494
0,349467562039736
0,344049494631135
0,342439194544182
0,339349032562305
0,338662904538113
0,334204784919386
0,329259044978704
0,32899995075621
0,334330033537972
0,333420617753751
0,329906129535059
0,327743790858241
0,328926436227529
0,327323018558826
0,331344348006109
0,328837325524189
0,329316191622072
0,32992058437227
0,334348059365316
0,337924159724927
0,336882893969621
0,333165436231189
0,336053628962735
0,33665339058768
0,339565176069004
0,336712673607575
0,340773520147046
0,343819563838906
0,347955467806999
0,346520103305988
0,349182391466375
0,35237912252335
0,358961327817514
0,353510685088338
0,357980863496841
0,351366828588758
0,356661464854105
0,352353965876619
0,35546813573054
0,353581234512621
0,351838299782575
0,357534346370955
0,35700132267494
0,358011352501592
0,361199882617909
0,362106919844456
0,362691836939626
0,362934215850093
0,359216027737159
0,367687316342109
0,369427812825365
0,368823058435744
0,372304708228349
0,377036844870649
0,380030953185647
0,383486117624448
0,383711064154938
0,385897953661272
0,391314712225254
0,390580955050143
0,39334223945493
0,398901655791629
0,403824087328726
0,399517655179444
0,411630162823864
0,405444749391183
0,411547592957328
0,409707282746934
0,410739358068413
0,420628038673724
0,423669765963233
0,42180797481289
0,431759866039652
0,42232128471899
0,441624340662338
0,442891613755992
0,437517554730677
0,44170127614246
0,450424138150239
0,449006547932926
0,462610490148636
0,463638822307426
0,472657748173915
0,472779300007807
0,477628770948561
0,488397577665312
0,489713505138587
0,497669537125521
0,495584262685121
0,501488047792935
0,514733665020777
0,50537992023154
0,510806033608799
0,508933523158194
0,509460297542247
0,5075703955097
0,514271059150415
0,518560609055645
0,522630694165685
0,523689412639836
0,526770072953435
0,536322432594362
0,531945934324271
0,523026863414473
0,539108092910956
0,545963689309893
0,556622407016075
0,542637772850118
0,550330283690388
0,549169730646145
0,556199907079384
0,556318786549512
0,553793090686306
0,554407660541746
0,562148532387081
0,560470888201736
0,565868222444067
0,558362522661816
0,564194867491341
0,572079052208055
0,589350704868531
0,576282294622601
0,581026545636671
0,572160992755798
0,594187566945202
0,594830579345396
0,596001909197715
0,581379198795951
0,610056599453238
0,626058116050553
0,607684957154381
0,593012315174298
0,618379945504512
0,619679924242005
0,615224827645935
0,626019083558858
0,636045069230372
0,627588816445617
0,628017893717847
0,633421815503507
0,644842943729441
0,650996105166641
0,667289135862576
0,653490072223467
0,652969354220961
0,662465603284889
0,664926537493586
0,675160431757053
0,652354496515711
0,636459405478206
0,675836508573026
0,690545195331721
0,702228190298682
0,691228277245956
0,726406136614906
0,681851838333062
0,703712721660467
0,699568072909765
0,736917768074703
0,702458867851025
0,703728433805626
0,711941499648268
0,741257253000022
0,725353701678986
0,744945461454971
0,743732807308674
0,754926166156951
0,750731748571484
0,761280192695491
0,738896938881171
0,741681357339648
0,750378131455544
0,778312984005881
0,775874549139905
0,783373673541529
0,778116069671937
0,770300864105783
0,766722515883997
0,832290192221298
0,796283078594753
0,800305868361529
0,773925031454273
0,835821790856178
0,815514206517509
0,810418218510741
0,780268924565433
0,813165728613832
0,801454240945192
0,841859122987713
0,817890449609382
0,845607486345995
0,894831947733241
0,885455138644699
0,810906083873111
0,854640395378446
0,845200917434501
0,859254902371976
0,855156815964157
0,895523667290113
0,88901884398554
0,942506175305128
0,852095023716517
0,892183196317061
0,929701483067704
1,01922054632752
0,926837767230757
0,97737432740574
0,958762836509384
0,985268495441077
0,985185908488883
0,999942650234687
0,922854450718046
0,96392926021169
0,923005658969278
0,971043002820158
0,928521154998222
1,08588676929025
0,98160370504728
1,02608778234452
0,968637111126128
0,988543989892812
0,95244335613562
1,02281547719633
0,936149148373642
0,972174864497992
0,98130020012403
0,991502805647095
0,999941974088622
1,06832516946015
1,03647971245859
1,1478750829214
1,03023403130918
1,08159136564015
0,970038250865795
1,0889422820042
1,02971492466875
0,987840873375719
0,968953121940231
1,1226660596929
1,21580312559611
1,1624097323439
1,10188857679021
1,08673962296084
0,982763254851441
1,34751101497759
1,17588377734449
1,08811596018175
1,03013168600545
1,20677822297829
1,02902299775538
1,21367420607689
1,08033118666386
1,03201175216782
1,06712449383336
1,28804943681166
1,04498800276732
1,21428766510883
1,07225736485588
1,07666044509518
1,04731736848027
1,17485113358575
1,16236546890325
1,27244313541609
1,04304404548181
1,28018556216319
1,15859486569079
1,28414232742264
1,04148397428007
1,03241131216898
1,11802799767917
1,29343960577251
1,17641384682644
1,26939033196908
1,22723562752835
1,24610850851996
1,21979754563315
1,42303004684699
1,2062664072848
1,21852043684235
1,15414858054053
1,30984508029833
1,10077430740279
2,73830443186179
1,26051671613023
1,38035537656502
1,16149679126345
1,36789125659533
0,9961243226962
1,07207843782377
1,04485364833514
1,59887368927154
1,61340581944825
1,96579963112875
1,16094968159298
1,33589844128604
1,2352482894539
5
1,27234330266007
1,1394553013439
0,941821223777163
1,84257424484906
1,18699429384615
5
2,29995289976292
5
1,13637085075004
1,29087309147434
1,22031795272396
1,69698556192206
1,42368691175449
1,20278080805782
1,35376075138452
2,35912016994176
1,32652731975946
5
5
5
1,13314628165497
1,51973214571384
1,06293295848048
1,33296041222835
5
1,86964038925594
1,26214110742169
1,94761383888274
1,34962361457568
1,56454337436029
1,15356131589167
5
1,00199620519634
1,06400227566227
0,867853113565158
5
1,09224875757496
5
1,0615400572659
5
2,20278250215995
5
1,85296317686516
5
1,11604026948252
5
1,66411864855984
1,19460572174088
5
0,842294196667657
5
1,43257197174689
0,898776568051561
0,68752699993342
