3596
4000,36533379555
650,420452594757
1
2
2
0,0697210929489785
0,0629446131289345
0,0726964650900484
0,0622878395148239
0,0701279209471275
0,0644345314050355
0,0656669582176575
0,0605559569141855
0,0702717578818605
0,0668236694814015
0,0694987275717349
0,0569811621142548
0,0719427746194812
0,0571696503196371
0,0645712993477769
0,0626421939764016
0,0647030570591035
0,0622467147129207
0,0663448411935998
0,0543753968878385
0,0566613679590535
0,0500928440182836
0,0703207509799289
0,0601549488493325
0,0650682096999642
0,0634608853491145
0,070981030506532
0,0550511692872453
0,0615930303858124
0,0613431064339344
0,0717846157445845
0,0638225563136759
0,0640549888757023
0,0677157029645491
0,0748884679839109
0,0591862172043418
0,0664550681229023
0,0614808549666176
0,0648169012003957
0,064015240769019
0,071832570283306
0,0635541988675493
0,0650179400142395
0,0581451191992731
0,0720831434745318
0,0669524483149699
0,0679157215931397
0,0590060894501428
0,0631394591797937
0,0576552339670281
0,0757055821995791
0,0605379518637568
0,073568122826357
0,0665260961134709
0,0692509720371359
0,0723876822869841
0,0754414635410879
0,0554577307302188
0,0603705544169372
0,0616317314013671
0,0807402848036682
0,0750972778141671
0,0564004718199259
0,0592410702635731
0,0622685084614172
0,0628989265143094
0,0695624983129894
0,0639813454606769
0,0643445983124941
0,065319591847193
0,0586922787460784
0,0699572881038393
0,08329729269389
0,0638287079765896
0,0743652316148955
0,0638284848128328
0,0679625262106435
0,0608199946773017
0,0563645768575779
0,056836236998755
0,0727409673350311
0,0605964241841279
0,066010436094947
0,0529242101938732
0,0697742085550897
0,0797509047907543
0,0581540671049622
0,0510355555586601
0,0884551604255365
0,0641799239346712
0,0628886913239048
0,054085893885958
0,063652871978917
0,0580539135822216
0,0666183971351996
0,0569141170509128
0,0601559238642314
0,0573806873003701
0,0631579686008415
0,0581153194973779
0,0736421646461002
0,0486749616187246
0,10766498109455
0,0581222372323999
0,110403287885682
0,0774554873095942
0,0447404596775629
0,0958944265403882
0,0840582033336958
0,0655243633189015
0,0577193289354917
0,0594352103085781
0,067654949771269
0,068422852028337
0,051143421621573
0,0666584032035107
0,100932644958752
0,0605525351686851
0,0629806873530784
0,0620053454018649
0,0550347829412073
0,0707109020315925
0,105305924436196
0,052517970828429
0,0785242607843956
0,059782418784857
0,0554027031323796
0,0822009406685646
0,107907572791796
0,0540225680574771
0,0621960391276548
0,0563155366091739
0,0583319959256624
0,0369403239420739
0,105658003379155
0,0746843700591766
0,0637842239549013
0,0374214290903673
0,0662409278257803
0,109322886651824
0,0772885984959774
0,0574045249526358
0,0535415988722003
0,0470565027971157
0,112611920139102
0,0753734050333272
0,0485637047652406
0,0712667679059059
0,0863920069958595
0,0531260162514776
0,0649232370205197
0,0577113036971428
0,0773500905233659
0,0681332332280098
0,0197090778628354
0,069827213984954
0,150271707849085
0,0452582964151644
0,123863383398391
0,0635980194285199
0,0820817827175375
0,055667670369768
0,0618349155813723
0,0518923336714702
0,0619472698894545
0,0519684400739448
0,0674113874796421
0,0944460914976884
0,0590063478908307
0,0474906329366641
0,0866451525305413
0,0690189895753623
0,0451803366938163
0,110983376634762
0,084560854549527
0,0421887301436146
0,0975313167244901
0,0728964747348366
0,0517552185799669
0,0520974162890535
0,100248781754795
0,0585316112475603
0,0619147381971281
0,0521949016125791
0,0658031177351964
0,0677809369778355
0,0726131812640003
0,0585386970479373
0,0674030250429645
0,0289738112735378
0,0731826941752036
0,103253162445432
0,100249898511974
0,063639965033802
0,0712932446077627
0,0286753373661256
0,0912051538802364
0,102941769205546
0,0643938905412348
0,053166101351061
0,0609286916437992
0,0564091678228258
0,0544795514290132
0,0518079687063062
0,0602899898401356
0,0271424590468027
0,0937782076095396
0,0774819308481779
0,0634769092125489
0,051366302324035
0,0658477887715659
0,0444724089733521
0,0962828056026813
0,0956997634483887
0,0612522897757139
0,0637322655937693
0,048794594357502
0,0707829768931922
0,0902534306374742
0,0611457903188826
0,0578074829745302
0,0500243911336589
0,05769388510126
0,0580748771102115
0,0633061885633145
0,0600876034393653
0,0600219341131798
0,0555502482359374
0,0604218264050882
0,0523821262523827
0,0678316946462694
0,0657018044982089
0,0591074146309074
0,0602384247972253
0,0508391535078798
0,0564673405925473
0,0859821980624108
0,0618333707851808
0,0658065066073742
0,0531745274806656
0,062965910705925
0,0561474282003171
0,0637062405607044
0,0534512553605904
0,0538165498825191
0,0452996575263723
0,100934376295887
0,0711481321237664
0,0648012376051102
0,0526011867703012
0,0718855210488992
0,0721815424838564
0,0600534429795382
0,0613412492139444
0,0624165962515518
0,0517036549326847
0,0493690153975941
0,0877865988070405
0,0666998288365082
0,0517857583840982
0,0800445213144237
0,075736241939695
0,0605149989559853
0,0506673870436336
0,0258044587997408
0,139394687920561
0,0815452666057504
0,0297309395761838
0,131420745054292
0,0846646479351259
0,0755215975361169
0,0623675245609032
0,0296078077117507
0,143317234676559
0,12158273356685
0,0654540018187311
0,0629233860043138
0,0829408718076585
0,0682027861019785
0,0671730844033161
0,0698814292938632
0,0642173142253149
0,0906269295126993
0,109522066734933
0,134179244464988
0,0440029930728748
0,086219257995331
0,108618093272854
0,0738188295662623
0,0680487939743374
0,0594823089920316
0,0593355674598359
0,0759413413388522
0,0798632886809771
0,0786589729157165
0,0796864946306035
0,0674815668311445
0,0940863328281634
0,0755446492297543
0,0587896900306559
0,0716308781581154
0,0804710708606087
0,0630393813633533
0,0659606965792392
0,0617136224830936
0,0724945378617198
0,0641785677466109
0,0514081909825878
0,120973200390304
0,0856320356025527
0,067230656612442
0,104667390725066
0,076653489803331
0,0649188305056436
0,0700601009265905
0,067026410003395
0,0663084885508738
0,0607197931709599
0,056685140581138
0,0995846729066215
0,0860782216626219
0,0671766504164555
0,0744161389056768
0,0741490324152709
0,0754324488919711
0,074522638498949
0,075492064728273
0,0707832876259239
0,0806929319406578
0,0700507556168877
0,0979883292243702
0,108295044006431
0,0542202313641187
0,100934596756846
0,127205785092701
0,0834637042288801
0,0774731520356437
0,0700532165134175
0,0874507995055061
0,0720783001405098
0,0801730480867208
0,0816870889646637
0,0860075515903111
0,10407494602733
0,102971778913186
0,0830287779599743
0,085670492407499
0,132027244013068
0,168125337032476
0,115042591872952
0,101923292087102
0,0796100405745753
0,120811676431887
0,137011450889011
0,110204470820199
0,12999686148397
0,106492624145206
0,114387451266981
0,111585230810193
0,10758250352105
0,105651187039269
0,115742673573301
0,113226648787266
0,114887267268667
0,123094704318356
0,126066476225176
0,113261268500964
0,117855805826966
0,169743507678816
0,140576151252529
0,128040904520956
0,133470302673753
0,121040415011507
0,144748716004584
0,159697573449641
0,172032376976514
0,181492055374024
0,167086634752057
0,199275269881075
0,16698249971236
0,164433451352667
0,150127281454669
0,15750857554397
0,165641704911324
0,166011558179233
0,161175898955114
0,164647939257911
0,173487230247247
0,179429857975185
0,17395628041567
0,179368962516071
0,174737462625211
0,201643829435486
0,191717597165702
0,189767595518959
0,183570844225246
0,196066341421843
0,246279340656865
0,252622456568999
0,219994694826925
0,21230512331871
0,211996312516555
0,204921658485495
0,212289834650395
0,20612175703816
0,223747793189725
0,233110085593194
0,24727286337994
0,256897053414125
0,263958636091675
0,259669929233775
0,226861682305562
0,264458603668211
0,260839807547426
0,253839551395369
0,265786711399834
0,262677002225503
0,24954820610859
0,273053098566788
0,286470091400469
0,27900406281006
0,295540364642201
0,276299009261472
0,274503588142637
0,272496005075698
0,278025265974507
0,294393120150645
0,310686989324324
0,299056763190617
0,295878115136562
0,306951520352496
0,301497471631599
0,304465515039904
0,326336560740811
0,314969431311948
0,321317774918674
0,332061153187926
0,326546884861151
0,333084475470273
0,32001399378951
0,334085006926187
0,359328494332668
0,370663492463322
0,380333953100742
0,351048729219111
0,349368263270604
0,354219286202147
0,360756686360823
0,361519869111598
0,370870067360283
0,388577998305507
0,390230146044258
0,383104912341548
0,381577572537739
0,387039271886735
0,397342472509787
0,405471028972601
0,388883588955413
0,400246847120823
0,412320959732084
0,402676257891608
0,404993036451373
0,449094208777113
0,462177561901557
0,457324200296489
0,45911451988095
0,423070057173593
0,441709944906354
0,457195670675447
0,428143146296703
0,43794156313624
0,456066105892783
0,45949087262987
0,487593872928657
0,460179052060638
0,447564672684229
0,464879287434215
0,492544583398349
0,495451052849712
0,499023667464704
0,505910109261404
0,506154766736139
0,487589863365201
0,490055902457432
0,507529824071579
0,53518536569036
0,523012372096852
0,51370775790595
0,523771741646007
0,537503279453117
0,528008321966525
0,539519759191612
0,532162383190867
0,541593183975727
0,557001533420031
0,556093712868939
0,560842840628563
0,608077769468864
0,587602309519566
0,567077160360869
0,57455982290265
0,571260722846451
0,594567572035584
0,60091272629125
0,594972729509673
0,603507966699274
0,599030766986186
0,614298345598823
0,589863512433043
0,602411316152888
0,613822607176524
0,651952319121346
0,641259941789262
0,618574326560067
0,606518248999255
0,655894032268395
0,634999168728121
0,670258545480674
0,644842546630758
0,620206156189113
0,636498072098926
0,665890070486676
0,676479522662254
0,661399870463618
0,678037451137384
0,733877995641385
0,682154444727131
0,682098682077539
0,693915426323456
0,72492948818687
0,70563314266512
0,714666498773189
0,705490760748642
0,733527548637582
0,717671383120646
0,734516989577364
0,749722740187544
0,769580781787823
0,740682448865997
0,758181042615799
0,749811539052849
0,786307087438017
0,764247845267877
0,759028843154253
0,739373153652397
0,791716758258959
0,74312606945331
0,786266063543564
0,789762926779448
0,803923923025899
0,797894957495657
0,797209031111363
0,792805941646162
0,831434448654402
0,76876704080688
0,795824955975981
0,805501019491853
0,829190423442424
0,848556854287872
0,881410346831533
0,813144738464804
0,84228571707212
0,858716880346246
0,867560080110868
0,82831157355367
0,864608800376062
0,822806826680274
0,829036339210595
0,802863821419318
0,832649378508195
0,883597373340015
0,897560963296116
0,835852306016433
0,912813141965537
0,898611121308895
0,934167085125129
0,925949120271585
0,95446719900694
0,865159049272175
0,852700847212727
0,898324183748209
0,959092724844643
0,940115351381785
0,980577114169749
0,880629709073082
0,918506833367412
0,924489763457384
0,971213101026291
0,92053141864529
0,97375087518352
0,955842570099082
0,975806161759767
0,947490416757363
0,995052667231709
0,948466219608644
0,982359876586143
0,992334693217572
1,02832096772074
0,99167733489373
0,989485898909215
1,01512210647288
1,02495974393793
0,91395669590121
1,00737516538887
1,07197667203376
1,04335044435318
1,00126117201639
1,04214707950554
0,944855386365414
1,01927683366456
1,06554848862385
1,08929678296323
1,04179058033617
1,06500073743196
1,02282256740091
1,06735459165803
1,00512721930624
1,06961104642953
1,07808387427834
1,06928601660497
1,09179804257944
1,18144957798144
1,06939277864376
1,15744021813462
1,04750185426957
1,05153236952211
1,08801525676386
1,12332780370924
1,09125117975907
1,11719177830949
1,06530370001586
1,1476428851586
1,06869961636608
1,1140390182742
1,09132139614533
1,14411778896056
1,08700763520046
1,11366087220306
1,07925713242235
1,13778080824659
1,13097854573244
1,10433914266654
1,08748981571977
1,12192696287109
1,11631168258008
1,21654143885133
1,17298765349399
1,16249755545032
1,12520537866039
1,24164890590095
1,04246454766576
1,12568125329587
1,14664912416389
1,30596252992749
1,24720995144874
1,16346602333165
1,12670795615627
1,23924873220539
1,22229781826534
1,1897305187087
1,14096921754097
1,26910245554972
1,17720598246074
1,23508760510708
1,15355809141219
1,24670010794714
1,20470580992318
1,22068199882207
1,14737061279492
1,20283610658609
1,19306240949058
1,26536291711556
1,23269209677739
1,22914063057856
1,13867026417065
1,18771159996063
1,14954974298366
1,21061620896303
1,21746952829166
1,225373401341
1,17613334439973
1,24917037433151
1,1883377685336
1,25036789111777
1,19496996832845
1,2550280915996
1,29450886387423
1,25347347347205
1,24273521657621
1,28997892513947
1,16905597105363
1,21366366419532
1,15527497851816
1,16309581859564
1,11864106399084
1,16245914504141
1,21974406032981
1,32582267017138
1,21896453121224
1,31577033504245
1,2448986329111
1,26007501584898
1,25573390579205
1,27553503705907
1,29393401050548
1,31101748710916
1,22525715369515
1,24301665448993
1,17560918180731
1,27873190618281
1,20632672656154
1,25282234797205
1,2324950148866
1,27421654688004
1,1810225709536
1,28209990000689
1,21247543619189
1,23169874497586
1,24138572110086
1,24996718153306
1,2178437264766
1,36430313315022
1,20119482189941
1,19390666068895
1,2135895742759
1,35664103322516
1,18694015685098
1,22934212419047
1,26772129629509
1,26526597365239
1,295308833664
1,33654334142463
1,15531286945283
1,35556928931152
1,28652125865462
1,32704163065163
1,1941748170213
1,2152237061239
1,22672530349805
1,25121072549013
1,20027881309356
1,25614532431324
1,24289292146606
1,24539040101767
1,2346702556161
1,23831037765796
1,19519490864248
1,24825435160048
1,30192039919466
1,27738755576809
1,2349963646929
1,26290542675267
1,20603643537804
1,26599229179795
1,19721847062883
1,30626133463775
1,28279282690193
1,26142900672833
1,19578293727306
1,23808619639036
1,27127425749998
1,34204449175816
1,21260311819928
1,29108003554372
1,17783817292614
1,25717728746053
1,21023304810476
1,20768926910168
1,2397327423395
1,26469267115234
1,20795344274129
1,32328260480357
1,23618854768093
1,23602164537309
1,24174062773123
1,30014997002415
1,26335722615112
1,33983841762063
1,26961812005542
1,31567199408845
1,20733064933502
1,22481435587185
1,22727143613637
1,24281132357286
1,22706200580025
1,28692744639026
1,20078205098677
1,31352719777978
1,21774993755371
1,22828070697102
1,17178465579685
1,2598034901528
1,159012737388
1,21063696327125
1,13527900676539
1,24850884762161
1,24886175993594
1,26965328543538
1,23550094893454
1,24602457265441
1,15292769090704
1,19616646900318
1,16015178778027
1,18910543695347
1,17967971859261
1,16291930377674
1,13423020601505
1,25364662324018
1,19526617003512
1,2572036782068
1,14377816263215
1,26744950545914
1,18703704241238
1,20837957027102
1,21124193019014
1,24427647924814
1,2006325432462
1,20548836817368
1,13545669990108
1,18702460133522
1,07812228983776
1,1910524122476
1,13579422405891
1,18681051890111
1,11912493166809
1,11898374688593
1,13187757012864
1,21169733879661
1,13544351506102
1,18631186776199
1,16049554019643
1,14035192353436
1,07904476456682
1,19675779454564
1,1492580383733
1,20020104404035
1,05951220585733
1,11001143600504
1,12642561611399
1,10696582726557
1,12178070963488
1,11986302148415
1,0719694033674
1,08448822123495
1,07879621515552
1,12061995897003
1,10347694557734
1,16170562125519
1,1264789705351
1,10128613349931
1,02869896075395
1,07669417791759
1,0668382302812
1,12439371143315
1,0781858121172
1,09104407900505
1,03661263977901
1,04173313101237
1,0444271936094
1,11885191403821
1,00248101955641
1,0728459485448
1,02749958122257
1,03339115394953
1,04103868062773
1,04829325206118
0,977768414635918
1,0561738757586
1,0228014041825
1,04546326962331
1,00796093205067
1,04616237689844
1,01811939192459
1,0185629794573
0,949944829949157
1,01613096393967
0,953302111118495
0,992166027618423
0,957846237413757
0,957598080671675
0,961504835165692
0,972732326502596
0,94237370824346
0,979277662394355
0,946135706794773
0,961160422946296
0,937657138222616
0,971412967816633
0,924236319687016
0,92968275139425
0,933440299244868
0,95665563897462
0,931611874893392
0,95282581683639
0,891997822031763
0,947574965937923
0,892871423787406
0,918141513027227
0,880176370030974
0,895999941720741
0,882454093978127
0,928431445475231
0,879905204998145
0,914216574523747
0,85226919580934
0,870095368074697
0,864465206139103
0,872990574791923
0,838733872054182
0,893913409667495
0,855477165493313
0,86872996783667
0,844800736543605
0,852124784780594
0,826462437113562
0,844284233673601
0,843407659666727
0,833964001432689
0,806649906336416
0,822488044234328
0,811781237590798
0,830518119781813
0,805806709852236
0,825302829557732
0,795349897766841
0,784522480186882
0,789095639954447
0,796828908890653
0,760410179975364
0,770670323851377
0,751737894975024
0,781409515282508
0,748433485912858
0,785457273771601
0,767011912582171
0,757483325781681
0,741276627290988
0,752543810130661
0,727579972200026
0,759075939009354
0,742404084919123
0,734198409077233
0,700259781011843
0,736320931703726
0,709619194886117
0,723674832764103
0,701905711606232
0,718006928002869
0,688892861205597
0,695197297110074
0,700042474362878
0,710144761162085
0,680323833799559
0,702221645989377
0,675365155548109
0,685802977047113
0,689764237640467
0,698832461545145
0,6743270129944
0,678171130109358
0,664641874657288
0,658142769897281
0,652121210258473
0,678448304802266
0,639600298218615
0,641224054706867
0,634853508536153
0,660802866387994
0,634928596994246
0,6529841301397
0,634693882777202
0,652622054905251
0,616798312829457
0,628180584739849
0,61846011727011
0,629139740681582
0,617849092659158
0,616644637293574
0,5993930087072
0,607771182199615
0,600924996459406
0,613088496027811
0,597674508351392
0,603765578541364
0,584762935967935
0,591774512732013
0,578732151959543
0,588607766594336
0,572610695665568
0,589404110736356
0,579291733571991
0,577882109143364
0,570721958242043
0,582239656834546
0,565426847456344
0,57094053179103
0,556785653592302
0,576613526665113
0,556825894260664
0,555731112954051
0,541516681620156
0,551723011092516
0,539464977415223
0,552224107714881
0,545443019446647
0,532105478632809
0,529454692208464
0,540441735831233
0,519059738445425
0,522747321456857
0,508286353756718
0,524996767216706
0,509192966832227
0,517132153246807
0,503204752211714
0,51760200223885
0,499164651255346
0,502477623989568
0,480193204782081
0,496941779129596
0,487997509912559
0,488678288985221
0,478233638867341
0,486663766720959
0,472124313342839
0,475563759182548
0,468011473711778
0,481683505430248
0,465906374134464
0,478503366177366
0,449396598544185
0,468082907645424
0,452945694899145
0,462756667014111
0,443096027169642
0,458271917078832
0,442037795582894
0,447467667714583
0,441232103173256
0,452973709600758
0,437663353443479
0,444043410902099
0,434844966548131
0,433544736941655
0,416868476330994
0,431933643457841
0,412439846237151
0,422253517575174
0,417192422985439
0,423891140024083
0,407029994633531
0,414588458679841
0,405737764264503
0,408579881051316
0,397858902523382
0,404518741740273
0,393726950485523
0,402481900103848
0,392556531721537
0,407723312385704
0,389575589944459
0,398391478014748
0,394423990104479
0,392894310062596
0,386805136212153
0,391039633344678
0,375168275027992
0,388101987326643
0,376398989923316
0,383135125733059
0,370533000753277
0,382213793014132
0,366654218738503
0,38084237104579
0,37302859029751
0,387539025256686
0,371399578169497
0,373005133380237
0,367673992426988
0,373662704297178
0,364964090658917
0,371905195384859
0,364625474599663
0,371277271435877
0,373985365514113
0,374636523119147
0,364700833464108
0,374490453383294
0,373212691552685
0,370600897565092
0,369830216603379
0,385333900153094
0,365436180384077
0,374599592938561
0,36604237412375
0,382531488730318
0,375391529369239
0,37842475923416
0,383133804072972
0,387121528787078
0,382031388168597
0,386030901105786
0,379730500632013
0,387669091984929
0,373665374790288
0,38803180483057
0,386638556952871
0,395695177767511
0,383509254251724
0,396257429522265
0,385949316139295
0,393473307977727
0,386550235088849
0,395709348330387
0,386228172785956
0,40742589361409
0,399348872057251
0,404375050798736
0,395730512733715
0,407579352791818
0,393389416444459
0,409866194958301
0,408344013925062
0,41453278863849
0,411205963386086
0,412551457945146
0,402283444622724
0,41985035182911
0,407850719347721
0,417832420740593
0,423916124837043
0,42999650560404
0,417651350206659
0,42408230065964
0,430473767198168
0,438368870158579
0,422945663514649
0,438283213052523
0,433936126609653
0,453123629554221
0,436029463084184
0,446547733186745
0,435529251817591
0,443278197175596
0,444751231622504
0,457363843862743
0,432975684357412
0,45513540618298
0,436982808873833
0,451342469376827
0,446596768006169
0,451957545628845
0,436777776610209
0,450688195996457
0,438106436199788
0,444935174220107
0,436706010411348
0,443311509149314
0,435261820480739
0,436612192470979
0,426870171660965
0,441399825508443
0,434223344859837
0,430119553384272
0,419496450200849
0,445574880280953
0,423054160175146
0,433585001131967
0,425303128327731
0,438688305577237
0,43666291501819
0,438225162139477
0,426867040946742
0,42614832646047
0,420873309989774
0,433988131393542
0,428740576054379
0,438626766679218
0,430101477285507
0,433512937756819
0,426182260550389
0,435467543105621
0,421933221962754
0,42939409306254
0,426123208476983
0,432996816936131
0,421289167414563
0,424977926011747
0,413540954860588
0,426775681291309
0,416461848161967
0,428438583133519
0,418358809282004
0,432451412898858
0,423712595435118
0,431349440650802
0,424037074112648
0,421713406590918
0,417178890319952
0,428728097183027
0,419109767432544
0,427132740738579
0,415424406036087
0,429535933808074
0,419915394010321
0,424797412660073
0,411316054924409
0,416463376395404
0,41581139417042
0,416897635159985
0,408492996177843
0,409040381927803
0,400755982401216
0,40732013119559
0,395155212463647
0,398844514203601
0,384621476423648
0,395522081265009
0,37671384076779
0,385012513784948
0,379658964267434
0,387686210681939
0,371466663969571
0,377989250721245
0,355846255668977
0,372763361302327
0,357259990197206
0,364155622086784
0,35024069364641
0,361447102446598
0,356919471211904
0,350843342969574
0,342355776648073
0,345252288837862
0,338582675013203
0,334705394069039
0,329605848812595
0,339787027030173
0,327054141790723
0,335659035753695
0,321536726672011
0,322744531318333
0,316496807144417
0,321304497266007
0,314160332353973
0,316181612628124
0,304964127203993
0,311880378719033
0,303874295979595
0,302453487263025
0,297701365274761
0,305329779728337
0,297245868257314
0,297019358978479
0,296202548194258
0,300209789729784
0,288016921300791
0,294444454408826
0,294495408912399
0,298500578234264
0,284698474548644
0,289802541987171
0,28166307620899
0,285008119662794
0,273577919960585
0,287047582183395
0,273233523735248
0,28309123338969
0,273171741580268
0,275800115192668
0,277320232173014
0,274822585074504
0,263543069247351
0,270746236470324
0,259414785849141
0,267729827930031
0,26272661591819
0,262172340044249
0,253022267153173
0,262422670082019
0,260366156469991
0,259413831699143
0,252307212295629
0,258613692305834
0,253117323171301
0,256090399591543
0,249902973927064
0,254970626014827
0,250159196926738
0,254473353023379
0,241540093401826
0,248065969359029
0,247673239229887
0,254239718115214
0,242733550484283
0,246959580921271
0,237678892207561
0,240718692161979
0,237877576017402
0,243329299767811
0,235589319936784
0,240411279159873
0,235429750161615
0,238296441591057
0,230635441515518
0,234446898879121
0,22902226292572
0,233423534219295
0,22826681765501
0,238053729318095
0,225230621130013
0,232508100928231
0,22618316954146
0,231766094364132
0,225865868507488
0,228691818687376
0,219440297442687
0,225696445017347
0,217895149317004
0,226200749077283
0,220237054559863
0,222135028719527
0,216100567414569
0,226952358605858
0,216691062369372
0,21853645823579
0,215499677578971
0,219841872429881
0,214323461742188
0,219738848849641
0,211807567200117
0,214760206963135
0,207284184075625
0,214565138511583
0,210764575949688
0,214064233590445
0,20684006112204
0,211955717130903
0,206584049439768
0,209830373381011
0,207037881743617
0,209159832080821
0,203739461737884
0,208807939903384
0,206858315270558
0,207584421914969
0,202157804275172
0,209720345818201
0,201947680084308
0,203506368806049
0,199708698353034
0,204536393813911
0,19903382817706
0,200332782731052
0,197754958875611
0,20205132014086
0,19592787124061
0,203452569393972
0,195863234836746
0,198937533672682
0,196154478942557
0,197039695205276
0,194900281889229
0,201518761920647
0,195507551976136
0,205345044184298
0,199822159623871
0,202382355351013
0,195898935450265
0,198479285017837
0,193505100165062
0,198111246281097
0,191454141866367
0,199380004037471
0,191444316954442
0,199371444739971
0,188809985377055
0,198579687147834
0,188348507146985
0,187473241205281
0,188172415069122
0,195050586231092
0,184748460460936
0,193750575944425
0,184655218538228
0,188576837479361
0,18492933214722
0,188745489361162
0,1835156967071
0,186878348435325
0,180763763090048
0,188131981909397
0,18172569399392
0,186785359940812
0,176945932133742
0,188368578278127
0,179320650134023
0,18334677949282
0,176866097940456
0,183432772169918
0,17897376113469
0,181385229497044
0,175409005010331
0,179378910775348
0,171804590142645
0,180616006929694
0,171337711311765
0,175142971427982
0,170412126512467
0,177204077424225
0,17198169784302
0,171716668839939
0,167723687267359
0,172755463968058
0,166483449493206
0,170446926720821
0,166126161998526
0,17394001988378
0,164300575198331
0,172416152184758
0,164642786207132
0,169705870207396
0,164327299332496
0,167373215741775
0,163549326952077
0,166388701808911
0,162827477991755
0,166745825446043
0,162916533866863
0,161648043964112
0,157846209699826
0,163862145595386
0,155286152663145
0,160434922449481
0,156773791587222
0,158797401931864
0,157900961268926
0,156187057011184
0,150119671294216
0,159770913087747
0,153334366269825
0,158822397874473
0,151460743096117
0,156158782878942
0,149468280445146
0,149742544363689
0,149653229734956
0,150512215391293
0,143885860204667
0,148439007490873
0,145860087981661
0,147204599114061
0,147091682905348
0,14787079514418
0,140830494188207
0,148589689642108
0,138947671876808
0,146406245258686
0,13716467842177
0,14457696449969
0,137183217259207
0,140755616971074
0,136528225688059
0,140088241834929
0,135770840549791
0,137475438459619
0,136317814557016
0,140674534681956
0,133564301968303
0,137875868602545
0,131551096017101
0,132572775392066
0,131815821232862
0,13403006536598
0,130170792590748
0,136196942778304
0,130235295254888
0,134960156730399
0,127101089373949
0,128999080784338
0,127057013462171
0,133038637984868
0,127605017100379
0,131222596013804
0,123434660795218
0,128144198344302
0,124648203540541
0,129439119450519
0,128060025687898
0,130353916680441
0,121318081058404
0,128327822878212
0,122221507091719
0,13000914835737
0,123055537583512
0,123809270880734
0,118943216687758
0,12135104491063
0,116408490064342
0,122410944082148
0,119417561838812
0,125042030323474
0,116985970546138
0,121815500498825
0,117891897297491
0,123600773174354
0,11996489362067
0,119875774915322
0,118395075989443
0,117542628865353
0,117065988310482
0,115370710622119
0,117185716661759
0,119860899647585
0,116425576884443
0,116733398170466
0,110269782926155
0,116533941662223
0,113283889949146
0,113216128517164
0,111724889532651
0,113068174588633
0,108271995445154
0,113605711948253
0,11119085293551
0,116722049125554
0,112219872376779
0,114999024794596
0,109297203447408
0,114213797211325
0,107673232711002
0,111101798238001
0,109126032935129
0,111295741998374
0,107340254119265
0,112175758176625
0,108782386686486
0,111008086332425
0,106322603399539
0,109931805747
0,107841764185139
0,11068861551832
0,10601176098991
0,107878160954743
0,107391727861772
0,108821600714042
0,102585086471174
0,108831885683302
0,105650388713809
0,108415961291453
0,103187182852658
0,106924669136465
0,104313473830263
0,107676902681685
0,102578494923514
0,108565254837398
0,105222653082091
0,107295835064379
0,101441596702553
0,107283352420454
0,100083744072206
0,107168730378396
0,103645893956877
0,108007214275478
0,103200741683629
0,107783758989477
0,101265836230255
0,107586341934445
0,101782931150132
0,106161527817142
0,0996856208372613
0,106809979794796
0,0998682836012565
0,102395892017726
0,0989806593023953
0,101828093939324
0,0969232161163819
0,105972666765221
0,0961831522503255
0,106324166360043
0,0977314121275387
0,102606105598021
0,0979055358746668
0,104504595299874
0,0961601856190579
0,101904130039241
0,095053004127931
0,097974097324286
0,0953748048757913
0,0995941884626471
0,0973729682183661
0,0991189432691834
0,0963387878359092
0,0993850800998057
0,0948063894743437
0,0979833748909447
0,0953975014267302
0,0989552560487812
0,0935438370427085
0,0974780527044601
0,0939563532597012
0,0951775291030199
0,094665892102236
0,0986333142633241
0,0948915759318679
0,0970551250998042
0,093817587487156
0,100468225601238
0,0934804509120753
0,097981987795597
0,0918539670964942
0,0959070238728458
0,0913097242515093
0,0951390690303884
0,0926518925522893
0,0936869975869027
0,0903368042052092
0,0926692246284145
0,0892196031431855
0,092248584657194
0,0894627752826057
0,0981834470234169
0,0880551537111214
0,0935591391411683
0,0879445784785565
0,0961859753058173
0,0918849820454802
0,0935756724556777
0,0905017457720053
0,0939585314965354
0,0871661730569603
0,0914723965720432
0,0871726850465448
0,0927964952220025
0,088196861000842
0,0878497060201993
0,0859423119316327
0,088136910070533
0,0813885851636123
0,0905309284742059
0,083782837847882
0,0881175373666584
0,084356826788876
0,0875781606492727
0,0843697928838742
0,0850884859153304
0,0806347386026177
0,0866002776691641
0,0837976837195431
0,0856793745765156
0,0806272289387959
0,084523846205301
0,0801454876680257
0,0851427800664576
0,082157276907494
0,0841001518134861
0,0820346104513026
0,0832331983436402
0,0785381135646231
0,0834443306437329
0,0776155559542562
0,0828055795772333
0,0781769177260173
0,0850180443818759
0,0783346866964243
0,0807618127192501
0,0783030906106729
0,0802229730844794
0,0769745309128676
0,0819664574379118
0,0772773444793728
0,0819379480670187
0,0766754075956888
0,0792601724336181
0,0741225188748741
0,0800845695322577
0,0780685748712433
0,0800921511068884
0,0786210404791437
0,0817138534659438
0,0767478720718563
0,077298465252461
0,0759508538478783
0,0802010736916754
0,0728488683321286
0,0791844828561661
0,073363826283971
0,0772456569606645
0,0755549367104993
0,0773336427295069
0,0724517421684553
0,0789990309424842
0,075118786677208
0,0767279113489829
0,072543186665541
0,0777286895024252
0,073468636023951
0,0755279464129041
0,0722791010667238
0,0770733037384128
0,0721643977999397
0,0745375876632385
0,0688257409426173
0,0761390019506609
0,068619580013563
0,072275208334289
0,0725998267450874
0,0743545047913652
0,0686631612135179
0,072467424111876
0,0662571428935846
0,0751786439623144
0,0687736387897667
0,0707563699477232
0,0683002437902094
0,0751386428966292
0,0683625034340395
0,0706897075448156
0,0688877900549547
0,0747271809299294
0,0681937586159465
0,0718614014117179
0,0680192901263934
0,0722170389942312
0,0674935352556501
0,0729325902609964
0,0663404363246499
0,0710118739668711
0,067774366172582
0,0707754541203507
0,0666153224527647
0,069207399483857
0,0663178162591334
0,0709373874315625
0,0671633021530459
0,0719822577191134
0,0662512202095582
0,0742663206369504
0,0664416037120361
0,0752269241768374
0,0674260618311807
0,0751608569846118
0,0716114567524924
0,0764706994233156
0,0701695470808739
0,0772731894268247
0,0688435735157378
0,0732809568759327
0,0662805462722056
0,0725181478206604
0,0629015872061744
0,073754686193691
0,0661934669436381
0,0776631643069456
0,0623311084039583
0,0742548312653398
0,0678609337873708
0,0769091754225996
0,0578707227611876
0,077612862098839
0,0647228777485111
0,0738281095878863
0,0640473958275398
0,0768953330004581
0,0647856465779556
0,0728048864239016
0,0619790030183331
0,0795344968760444
0,068349271626773
0,0785887035344232
0,0667364448529959
0,0726278173808714
0,0558431983848527
0,0733397845305467
0,0596934534785877
0,072773158028963
0,0565190989277926
0,0773878827138865
0,0577912986502121
0,079131815943825
0,0516439279195211
0,0808564205154562
0,057853323588339
0,085534078575986
0,0500599524700611
0,0870404173670563
0,0471815539052229
0,0839317493798557
0,0450620204079703
0,09188611113807
0,047696246088807
0,0962343484994817
0,0456464523231624
0,0961385564342568
0,0449436421628655
0,0972934138848348
0,0444496402470843
0,101982118864588
0,0444985847861639
0,0937340728647429
0,0499065975168851
0,0959648076980037
0,0530111228886384
0,0812680328642725
0,0647157948341422
0,0716191187502934
0,0727078335048641
0,065674578189474
0,0808172282224664
0,0571412576087814
0,0869160913268187
0,0560611994980532
0,084007582456341
0,0583443250076193
0,0767093214887788
0,0618069183127008
0,0726501223116819
0,0703545857523493
0,0679462493205003
0,0717122693160576
0,0670236552107147
0,073656392927706
0,0657307910646988
0,0654801425290747
0,0681472963256057
0,0650419687116334
0,0702385205976584
0,0643449512064482
0,0660304949762342
0,0639504407356442
0,0645923450875567
0,0661919781321974
0,0662280411893502
0,0658061912419475
0,0655170640308078
0,0679594691686895
0,0660573819043096
0,0664048223176573
0,0674221474742432
0,067398432027214
0,0628963470169689
0,0664159286935509
0,0631408427484956
0,0636252493357091
0,0673833995587371
0,0657886074302568
0,0656060535457039
0,0668831240344484
0,0661757787214886
0,0666506171810099
0,065100638573008
0,068224431066127
0,066699212870126
0,0682908181353309
0,068490318720299
0,0678140313501161
0,0682639553239881
0,0683148699216982
0,0680271289426461
0,06786812998648
0,0699579321280539
0,0682957512252895
0,0679504246960026
0,068694489990651
0,068003257547573
0,0675963591448496
0,0656063810565155
0,0682626367028151
0,0665152133553868
0,0670590742730627
0,0673697680356604
0,0687332843555299
0,0700803531861056
0,0689038224919059
0,0676107187698277
0,0656553308589528
0,0688403684703347
0,0674893928288553
0,0666693973017868
0,0690112319328071
0,0689653811819578
0,0678306102046507
0,0675505320819404
0,0689005030161239
0,0676338056351851
0,0702388549246903
0,0692239317657446
0,0689400750004352
0,0669135315177224
0,0686386083770688
0,0673426026513732
0,0677752939155905
0,0658949461871868
0,0692021905004194
0,0680302197201545
0,0702307397666754
0,0680723081935789
0,0682565435967812
0,0681218830392866
0,0674037517510341
0,069161011297285
0,0694126650656542
0,0688752135975511
0,0740980877253199
0,0684388715085223
0,0688892451860168
0,0711201686824095
0,0710866597983352
0,0693693740018934
0,0709791032316805
0,0690536795744979
0,0725498809608877
0,0725905281342435
0,072132061634169
0,0714285613754993
0,0747443985263489
0,0699302916344978
0,0733280213595647
0,0707075069598102
0,0694048535811954
0,0707955913071395
0,0733694747225959
0,0700767628039267
0,0713877836018688
0,0701099649624508
0,0732062939390375
0,0713141426744787
0,0731096948176976
0,0714502716547066
0,0725853448673553
0,0745234761940629
0,0744520214416567
0,0739008737310902
0,0742648867293137
0,073498379775513
0,0744870078653912
0,0722972856383814
0,0742826385718739
0,0729439157798069
0,0743199479629047
0,074129499031567
0,0721032110057352
0,0705141378342437
0,07234357800092
0,072201792771887
0,0760247664733999
0,072472996988026
0,0750201525946847
0,0727548854773767
0,075612344498908
0,0723051450473344
0,0750742810228484
0,0726205792046486
0,0747868192455453
0,0732910150703177
0,0749299790927364
0,0748827765795591
0,0745842202727826
0,0723980539845263
0,0746036512491931
0,074585779002423
0,0774459917848785
0,0752583832198607
0,0774608132946187
0,0721658718255335
0,0756746118649219
0,0779265109810877
0,0777442996884817
0,0746794537825675
0,075156416178761
0,0735423310481962
0,0770151295257541
0,0740134533295975
0,0775771296402858
0,0752952013345648
0,0778270437751794
0,076409889990071
0,0783800685464362
0,0766415688040797
0,0756540431789733
0,0764708526636651
0,0805744542126759
0,0771540207151742
0,0773661041306894
0,0752321626496075
0,0792183772805782
0,0782823792106812
0,079029173020034
0,0754187464379683
0,0797882622902897
0,0765270162531063
0,0781096010769158
0,0745094735966695
0,0783728949744252
0,072976899770139
0,0756768723432743
0,0735065528449776
0,0758519357023968
0,0755739180611733
0,0777452481495005
0,0750729065203761
0,0763162579021168
0,0744634739402901
0,0793735072284063
0,0766791488007073
0,0767858615949836
0,0741456058017875
0,0769710699574762
0,0751802632809047
0,0754408196498498
0,0749983180203646
0,0744811116366866
0,0698756624967233
0,0741213987179506
0,073708485934829
0,0762405805071931
0,0734378677416549
0,075498933554043
0,0738285941302512
0,0754258782704694
0,0742911533453501
0,0748409393676776
0,0733362158719456
0,0734758961000261
0,0723326349453111
0,076984625348963
0,0743201064669147
0,0733922799419594
0,0725320219449509
0,0751358820383696
0,074883335636137
0,0757822655861327
0,0756819081730063
0,0752657624019196
0,0710933223646928
0,0760667911649341
0,071359566477161
0,0732907288142691
0,0720666702645989
0,0744883588338442
0,0720580965669559
0,0752986558899223
0,0725261325611092
0,0744402644276227
0,0722838193796676
0,0759045235033726
0,0724717035036844
0,0737990585690435
0,0738669165534066
0,0753803902849641
0,071888329025207
0,0725555547828185
0,0696505029234897
0,0719221555520882
0,0719554170153598
0,0733072675089877
0,0702604667837006
0,0745458174288628
0,0703817135479211
0,0694046293976644
0,070644818368422
0,0695880970786523
0,0710905470354085
0,0740624613530162
0,0704188482895436
0,0712580683598828
0,0699367579153315
0,0729536112676095
0,0692435753672421
0,0715927011591213
0,0687400388091686
0,0687766567010434
0,0661865505126975
0,0673960752940177
0,0688225726160971
0,0706169588923
0,0712474090391865
0,0728570264697437
0,0671003877349926
0,0709682993033754
0,0682212949186682
0,0708625726202284
0,0683560179492353
0,0701676038582421
0,066257872099532
0,066371705316155
0,0697400099849888
0,0706602198395145
0,0674869026540643
0,0697724641498321
0,0678830553174961
0,0693033870438417
0,0666595706144369
0,0669255758576101
0,0660922488902061
0,0679095975830931
0,0685342013831444
0,068932831073688
0,0660857290916142
0,0680016846018259
0,0663294777151881
0,0701232068451421
0,0683064996433794
0,0685489797278706
0,0663879432744464
0,0664906236045516
0,0632271585735123
0,0657680060713343
0,0630731158248461
0,0680909913975615
0,0630764595880293
0,0671039970881658
0,0642310380083425
0,0649762141999973
0,0630755580867137
0,0671966201842839
0,0629622093035231
0,0654409843281066
0,0635700952916184
0,0655381337453624
0,0635731615394586
0,0641512825222725
0,0637427035381065
0,0627741092812371
0,0613533290183175
0,062552769472617
0,062798483039776
0,063452477979502
0,0667808108177817
0,0635739926398292
0,0599254197221785
0,0615010059431987
0,0593181345683243
0,0596617178515142
0,0590863435118779
0,0611533511904537
0,0593575258355557
0,0604244245686802
0,0591433751033732
0,0601892456045952
0,0570708795861386
0,0594068474253366
0,0567696300914726
0,0586177410401616
0,0582308751506029
0,0594897966079278
0,0568341532805015
0,0587311112271629
0,0563202984519907
0,0561829561763502
0,0566266889271237
0,0576872257856827
0,0567404837808377
0,0578193253450587
0,0575868549594243
0,0655966304072221
0,0579510944675242
0,059597939889742
0,0569099392850228
0,0589236010800753
0,0534023465773676
0,058380897210226
0,0563759584287079
0,0565620725398196
0,0566941445145394
0,0576003084536921
0,0550538368541033
0,0583542824027435
0,0536828519421533
0,0565145778390229
0,0556864287218786
0,0562904980378661
0,0554543989587201
0,0571292019332158
0,0551588212028625
0,0577920012126084
0,0543074544395866
0,0550737912511878
0,0530369503483582
0,0563821437031761
0,0529040919701105
0,0619003822095654
0,0564402417475238
0,0561893900008094
0,0523096157742773
0,0557536142235312
0,0525713623930224
0,0553022704318322
0,053724049720151
0,053793262269046
0,0516072343528516
0,052614521492069
0,0514438779336356
0,0509329004925513
0,0520425058511686
0,0556842054558898
0,0489356800903783
0,0546630607165951
0,0509799314610966
0,0533649104100237
0,0476649070364064
0,0521635856832974
0,0499309015677692
0,0536701733742017
0,0524831961321249
0,0544953879070791
0,0506130033249144
0,0556624777193674
0,069242897047625
0,0537490762131126
0,0516801116160841
0,0529296801233408
0,0497223961079143
0,0539277598873075
0,0509150583963017
0,0502361188294158
0,0492234541982119
0,0491125110116725
0,0526271542444518
0,0513189788558804
0,0507367833405664
0,0518896585809014
0,0496415705284729
0,0493226075565406
0,0498679999051999
0,0523944927307492
0,0518271487986194
0,0502433545668584
0,0513981360799012
0,0605668461014314
0,0567491542237819
0,0496542548462768
0,0521230892950715
0,0446111282427105
0,0685650715227242
0,0606188233974295
0,0479239245884855
0,0529059384278785
0,0480462139145084
0,05077367831224
0,0478258163142411
0,0499233061429348
0,0496968787730272
0,056455553627921
0,0485578450807551
0,0555136106140292
0,0505348274748098
0,050467727469049
0,045944057591183
0,0499208033562233
0,0462296030961961
0,0500028139182265
0,0484422324526207
0,049208031082631
0,048697753673884
0,0503070069646946
0,0489445862030587
0,0479156070828843
0,0490989702577829
0,0571910039192096
0,0477939342447159
0,0512274891982725
0,0502169050958486
0,0468920600692263
0,0521679292267193
0,0706736016394658
0,0470925636359876
0,0535710636781982
0,0471771841378776
0,0511612314182939
0,049327529593475
0,0501302242548665
0,0468991477425046
0,0504056348428187
0,0480179869931413
0,0500997068231556
0,0498222162550961
0,0492981135585711
0,0469514589817701
0,0501799712459498
0,0477973085602761
0,0505072119159359
0,0502019179665591
0,0483222000972599
0,0498528185213396
0,0494425648665314
0,0618169244985657
0,0705723892393583
0,057317345278242
0,0623611638581165
0,0510744312695974
0,0518725775823657
0,048639780151321
0,0495363596604763
0,0467340269036103
0,0527538086269655
0,0467998677627697
0,0505510179085986
0,0491938315365124
0,0535467931360043
0,0487909532912346
0,0493551023598912
0,047299146505929
0,051756898533164
0,0447825176968428
0,0519444526157607
0,0467873495488868
0,0529768663331776
0,0441596190216577
0,0565107614731209
0,0552581245878175
0,0556115770509637
0,0436785224778705
0,0733699087359853
0,0735693433289219
0,0522940838702744
0,0570568481085065
0,0516939418883206
0,0535850469351468
0,0509553091057125
0,0493614978389628
0,0549043704343307
0,0508134509430374
0,0502064429284278
0,0500468302115739
0,0541678400036641
0,0498367190163594
0,0459083941323345
0,0553162604366817
0,0783086297229858
0,0593635718566993
0,0557076513186869
0,0490684407753264
0,0523685859380941
0,0755986307595991
0,0575658923189753
0,0556708738510138
0,0555156766698647
0,0518103726548945
0,0547136963207047
0,0523794889785005
0,0526357338021648
0,0575191696421078
0,0587979944732023
0,0532592440571541
0,0550063698142609
0,0498860402094903
0,0576763631381384
0,0539310522424884
0,0589962555288394
0,0658567271796251
0,0547663723365864
0,0571803942169394
0,0611724508604132
0,0534202472650847
0,0577213940238522
0,0542468880345642
0,0560401101609933
0,0602042804291732
0,0692492413364267
0,0580133860895095
0,0687471442868245
0,0688562065153043
0,058062993370505
0,0585071474352423
0,0653027496592568
0,0658831198950008
0,0570118511991982
0,0584835222596205
0,091307005277045
0,0700878451092766
0,0773021849889304
0,0587911863621955
0,0619094339188925
0,0570063007496732
0,0617830591271898
0,0531326764133418
0,0726719485012312
0,0655995367956307
0,058911385529978
0,0602029706537472
0,0673362478757247
0,0726932364157523
0,0646391809321085
0,0660731081967411
0,0640825028049928
0,0604213752060196
0,0736124078131292
0,0694439281485637
0,0562931679220734
0,0900281157282617
0,0859625877399406
0,0834589644731281
0,0752573503971059
0,0628992135257083
0,0977571783508773
0,0742455578116917
0,0690299174333059
0,0682591704889918
0,0720780768789512
0,0660403812389125
0,0653371768711434
0,100812769551252
0,083095288211831
0,0687486026358463
0,0778399029437193
0,0696308459805965
0,0958935365135007
0,0881023843611579
0,0731419698880148
0,0744277353513377
0,077579668897457
0,0686868644103264
0,10689540740962
0,103622861971257
0,0797123504719792
0,101220425012897
0,0927968686382183
0,0942185280887898
0,0898259644802655
0,0879891999539439
0,0948495183095888
0,10449703167529
0,0905055007552615
0,0795767733239696
0,0988376356851529
0,112252530060513
0,0897405744099601
0,0944516125950956
0,0898683039936212
0,0843200030026978
0,121805181721513
0,149363550638318
0,126055726387446
0,105617342397664
0,10250589241274
0,122510008427091
0,111362402167214
0,101776159507414
0,104952146339453
0,104602309749172
0,106074853420031
0,109660939241991
0,122033084196717
0,113735106353069
0,117444882359169
0,114648589753889
0,117269574145612
0,138588920493752
0,173152842209963
0,15967992034903
0,140579175169051
0,157092000833829
0,156110153495459
0,14042868406441
0,139754274271121
0,133567891337664
0,148609137169312
0,147150983911969
0,148001431038906
0,146305821312304
0,169208227751241
0,166509540497201
0,166555306884446
0,184198966613479
0,167785802786234
0,163910006051742
0,168728763462118
0,311365692303496
0,22463340347323
0,190668102571983
0,201720555146809
0,200367637803328
0,277408455334158
0,230202821666459
0,220494340126017
0,225936485490396
0,226529922103277
0,239893209445325
0,261197885878294
0,262930430557008
0,277951937165727
0,271915076446888
0,269896101508128
0,279126123879903
0,376309956637827
0,361855790911298
0,329374116778533
0,309819789561668
0,342906213316527
0,352170206722761
0,339879839631266
0,34540865155306
0,349265284416415
0,351855277348482
0,425903857703757
0,389598961915881
0,385598983496393
0,397219743335011
0,42189259405623
0,411710645983849
0,450490211825964
0,473094867441664
0,439359370804835
0,442836026626133
0,446550247817792
0,458612688018974
0,457683927610397
0,50543731620767
0,50794683994975
0,485893788408025
0,496102097546646
0,497260431109574
0,502364791264364
0,514161609699148
0,520076342700486
0,514648174969895
0,556434862230739
0,616025480108112
0,687799961202507
0,597725116570276
0,547750757250721
0,549111176033323
0,542919414129392
0,582843231183045
0,581522499377125
0,593071966418247
0,599365589189415
0,553190390745778
0,561502209553025
0,561910443251312
0,567470490496235
0,571609007439042
0,555873097588859
0,555440145030608
0,573501778858576
0,57539928935864
0,576347268911322
0,649370327631625
0,571605143166304
0,548813008915124
0,551621757182542
0,54183884328826
0,543538600520469
0,53900591395495
0,536623958482288
0,561333042724951
0,534404661949872
0,513058112963535
0,518679610389491
0,531312809999549
0,535313857631898
0,496654325348035
0,493890000214047
0,481033964560573
0,481160959140202
0,461462480096058
0,483672695905328
0,522723820743407
0,467385924251049
0,438417812274893
0,443031373612394
0,428372595279397
0,432529088475731
0,416951177101843
0,423816540928895
0,410437397303207
0,405208937955082
0,405417551257767
0,398348510549307
0,391060588552659
0,388454528272182
0,385868503671117
0,381062886716257
0,37094178549816
0,380953826860878
0,369572571955309
0,366912645045391
0,361024136179488
0,372109500713491
0,364063120127206
0,369320627536521
0,365618197128973
0,362765578455513
0,354080373248145
0,355376865250469
0,351395937606489
0,354967139791186
0,353218544248015
0,351140788034158
0,351558439670022
0,351068697900385
0,343280264609064
0,35088284628961
0,345415240868683
0,349188005190452
0,344909212650283
0,34164519106657
0,343513214408334
0,342400139168246
0,341032673595967
0,385229800487147
0,383460180196273
0,344974500049231
0,347966069394828
0,342743370592502
0,337780737159655
0,33518933282951
0,367183422089049
0,38159773498898
0,348550402762858
0,345703085608188
0,334782740528478
0,351829040456294
0,351789090052471
0,344135122785027
0,335713405460174
0,3382802585583
0,356694691794439
0,439950057070504
0,387437952680082
0,453244874285383
0,365340192363151
0,336108315766862
0,347371546735538
0,38223360495214
0,354241740630087
0,336555414925822
0,34638283798035
0,362248058675028
0,359827738941357
0,337094137916704
0,33530675776815
0,330594338386737
0,3405045832625
0,364708595579842
0,341325880091222
0,345888812256163
0,367592618256648
0,345073020216561
0,365589092828206
0,406087910856517
0,354923562187951
0,319862183341384
0,314830155545318
0,312612572271616
0,320882862507215
0,349772412520423
0,327146945999569
0,313721786278647
0,302234460943319
0,291499012156759
0,300829371671956
0,312275813285854
0,29742917870918
0,29746359464632
0,310244799152949
0,291292486028744
0,270648324592922
0,306210833771968
0,308709050185912
0,340247688374871
0,28302586572474
0,269044637059155
0,288348284236741
0,307676032608202
0,276980001295409
0,271480761751062
0,252814383904256
0,250422452511898
0,265089547469419
0,251027857594873
0,250035573612085
0,26333401491788
0,261372764564095
0,278947795962981
0,297970574047378
0,293110708747822
0,242533296641661
0,219839813217408
0,217421888750084
0,231338966928243
0,218319447687359
0,21925082049915
0,223519811419897
0,23484140799359
0,218909439666583
0,2573629066428
0,237354634085003
0,216201555513216
0,215812633832957
0,213779620256456
0,223625393147693
0,256330435027836
0,258935234429941
0,24099088326834
0,227027693525252
0,244924285552206
0,233277621145218
0,227087555496427
0,22759664703317
0,230926084700313
0,232871227943506
0,239156782255883
0,247582986085695
0,244967516417739
0,248126861032518
0,254042698379894
0,281356585886938
0,286959500888345
0,267194571847171
0,276547535844354
0,320150261001893
0,31116887211389
0,312644501552751
0,290747348352741
0,297124228036467
0,301932712774318
0,306285868385258
0,306782699963527
0,320390747334907
0,344944780202608
0,328245262103395
0,316442752624442
0,333089068895829
0,3211029101863
0,341222783251264
0,348360925212561
0,367842413356294
0,371776423040016
0,413158424432033
0,362911994420087
0,353295527172793
0,353535551089776
0,357364941298423
0,361931557610308
0,353000197688363
0,353517006545385
0,359548386348416
0,383575438628969
0,370276738554234
0,360381680383861
0,368280204892558
0,361537245847135
0,361495407891816
0,366575509228135
0,370179166579481
0,372115380804901
0,375185349817111
0,371543659639341
0,38204099016302
0,42578579127941
0,413900130110687
0,379029881538407
0,390362290043009
0,386458916995306
0,386011316246627
0,385018872674074
0,400598040347212
0,406975257553708
0,397303037308166
0,396702986276803
0,397843079109845
0,390894502466168
0,41615386145815
0,419112662725497
0,414676379513024
0,401400248517539
0,40491879130338
0,404816918406956
0,464574087761438
0,431947169662592
0,425691687760641
0,428612703626248
0,41732153854927
0,424720433948565
0,413716503526387
0,419063850756172
0,416114261836181
0,424205496447717
0,423414666951948
0,421101329613105
0,418528921324547
0,423157699066777
0,421473136224191
0,434960250206897
0,434324928496817
0,42536031573578
0,429299922329192
0,417700295699769
0,424574412613258
0,440241629611206
0,440847119653331
0,420357154695032
0,419075741077199
0,427381565574282
0,444475190871454
0,436293374500779
0,414763235684499
0,415458706299568
0,423494148541853
0,415482243454194
0,413569820065202
0,41811638613575
0,442865798221582
0,434684631386065
0,415868566492416
0,425283526786258
0,421674031790664
0,428149149983645
0,424289610830929
0,428962329656051
0,427844724593657
0,439522006085513
0,43833138354201
0,441645367493441
0,435875374172247
0,445542087063506
0,447310188039599
0,445831217688114
0,431573385730666
0,426377716386796
0,422444544768399
0,429326376718725
0,436914118247287
0,427216910218133
0,414896853298727
0,411918768213734
0,402857405885693
0,40848961462379
0,418622050834784
0,414551003939524
0,399501631495886
0,403274304782481
0,384683847787425
0,394635580724089
0,385104115461499
0,383239955000774
0,380440045937779
0,384212876502496
0,376413344652071
0,375581407565844
0,373116522129871
0,372210888719605
0,37186868290139
0,375034980573025
0,370516575976836
0,375502500087223
0,371256500081454
0,369086298559126
0,367272111495424
0,371459019013783
0,36392185881788
0,369182487122044
0,370944553542371
0,387402119032022
0,37615282908487
0,373007658544123
0,3678874767196
0,373453683356264
0,364648801008734
0,363780290475536
0,367167211024518
0,360729191888989
0,362237159163444
0,362496276399878
0,363137390763337
0,35941661492149
0,364331972914251
0,361283580694083
0,354551001845674
0,358978468009692
0,36351665481402
0,362493146098272
0,358403061866932
0,358513131740483
0,360287291641031
0,359941524493748
0,366645433617917
0,360170753110094
0,357097748785427
0,361176805947359
0,361043414639881
0,36269219268066
0,366671529436118
0,365247364839333
0,360108145408523
0,359922514681854
0,357701111827227
0,358544959486279
0,358918640987898
0,357438627509219
0,352122452805675
0,352112194742428
0,35119045911852
0,349835092488451
0,344909380890067
0,344800024224437
0,340567701705114
0,339720827942091
0,33512734277085
0,335437031982133
0,331264232318214
0,328205211074719
0,32435935956228
0,326703836721986
0,321847292029969
0,321206307443325
0,32319153087346
0,321841364427662
0,317197600678955
0,31804478961662
0,317164086516142
0,317139776947134
0,31719758724034
0,317996248646148
0,313955221747714
0,31690031368519
0,31653849564471
0,316998383484291
0,31614222775058
0,313876527179997
0,316547666097643
0,316913936611209
0,318437421975323
0,320576405442383
0,321020435524579
0,325675701232404
0,323669411183316
0,326721432433817
0,327111815952097
0,326737056765611
0,330858778502405
0,332770432196826
0,330895169085424
0,33366178119209
0,3322637603656
0,337898696373539
0,334501398218602
0,335290728932531
0,33622575102907
0,338678931828499
0,340429197069073
0,337936457454642
0,337053156043129
0,339688845749782
0,338240632654831
0,338572672853635
0,338516733802066
0,33601187586506
0,334827063775029
0,335329152966941
0,331504837955695
0,334454845450152
0,332208937258661
0,331613309577291
0,329255840745676
0,330163401775923
0,328104396363385
0,328033391369431
0,327945052233234
0,326797295149659
0,32437552895376
0,321499684444351
0,320540198452945
0,32034621929618
0,319871451388807
0,321972033003113
0,318753796175135
0,316244543823955
0,316692841182498
0,31563824019513
0,312008628640525
0,311816613650937
0,312364015233931
0,313247217928159
0,31244891202369
0,310555255255556
0,311144554413659
0,308567224036457
0,307933576044527
0,305924361748542
0,305648341156087
0,303179506632467
0,301415626794594
0,30040050449486
0,296689789312754
0,297510445553568
0,294726580794013
0,291779817838303
0,290818460674447
0,287251975402548
0,28475795450405
0,283727527777867
0,28061041465734
0,279661251814487
0,27721049368577
0,277234218992132
0,273583345578431
0,27438756632367
0,272276295075856
0,273633033460958
0,275517728058475
0,273281196128404
0,269155733313474
0,270516402988831
0,269523303972679
0,268612302747166
0,266969361984724
0,265169164497186
0,263535481456284
0,262650353696581
0,258829480922099
0,254505515256489
0,254319974723802
0,251066167489751
0,247974278668551
0,24613653175563
0,247919166722811
0,247161167341811
0,247210305198897
0,248325488917241
0,250853999563767
0,254756378590828
0,259093199264897
0,262862336224599
0,269038842968853
0,278772741036358
0,284443013517331
0,292179909050567
0,302580397415815
0,317461501630989
0,325575358662469
0,336220162536299
0,349597683007355
0,359014786929385
0,36918347788876
0,383927235045217
0,394637646717565
0,405114251014792
0,415443291249812
0,428245264008148
0,439545647443056
0,444123759109619
0,455166022261032
0,464362164040537
0,474869569977227
0,482057912399387
0,484483196819943
0,493447453850808
0,4986736710445
0,503350578104031
0,50786765788239
0,514234253568574
0,516764736860709
0,518758753942674
0,521197109062543
0,522774467933523
0,524072255362608
0,527422821927796
0,526835124420182
0,525071114919644
0,525896985662368
0,521124404154917
0,523177091027038
0,525524971420826
0,525777598583146
0,529214160736528
0,531864364335727
0,533042360879282
0,533968646798849
0,540822668195559
0,545248079367694
0,544838997690182
0,550413612260854
0,564946647441345
0,564829130496168
0,567353054804738
0,573515786319867
0,580645964822469
0,591317536380454
0,595913620906303
0,59920230231457
0,611757822530776
0,624616027617378
0,628114279983229
0,63624200308726
0,649113345731777
0,65597625449128
0,665461001330525
0,67559490283208
0,685275732752984
0,687103599119689
0,696476266753567
0,697001599589373
0,700270991559869
0,702653413732253
0,697975039095612
0,691045457632761
0,686506874153982
0,682682786488321
0,684249964840726
0,675548351881227
0,666868384572004
0,664082904068703
0,6688252701897
0,674896617854547
0,677926266426858
0,683607807028125
0,69345923903183
0,704457195096174
0,718699943473916
0,734222542170827
0,746852031555646
0,75848496589621
0,776095290538152
0,779921405095392
0,789771383873319
0,809492481261537
0,818140242793089
0,822048457430916
0,83962191135604
0,85263104061401
0,864795556685023
0,869866859103917
0,88022107113673
0,894930152203381
0,92301226795515
0,941122821285505
0,949048177076627
0,963967401351881
0,980229511379234
1,00024234451976
1,01622428540474
1,02516045114584
1,04913289236669
1,05862197951262
1,08035697429519
1,08272686719292
1,09810655794569
1,12553045675707
1,12261506387277
1,14032507452008
1,15467794348863
1,14075415778566
1,16076516585123
1,16094551498943
1,16410050025523
1,15270918328082
1,14676102445186
1,13510107028755
1,12609116591683
1,10831365794797
1,12458809695232
1,10534373931022
1,09019368004417
1,10136443467418
1,08755683428036
1,07735920506723
1,07682819609063
1,08169547004826
1,07805074894291
1,08374386202205
1,10521151421137
1,10343282637502
1,12597998497076
1,13643533601724
1,13744841612163
1,14890412317921
1,13955302909878
1,14472597894501
1,1642249963877
1,16219630444313
1,17867535130435
1,18423938447863
1,19096919514513
1,19019198287415
1,18446079484406
1,19443096976192
1,21337407815318
1,19411372986323
1,19346164513066
1,16546894105136
1,17884198574876
1,20165784746057
1,19002480718143
1,15818792463748
1,18857989664757
1,16981447649773
1,14048676832176
1,15115789636856
1,17163961660005
1,13601866944508
1,1157137036221
1,13719391361075
1,12827820604867
1,11539152908306
1,09690464279615
1,07779004274244
1,09954375922353
1,05371105598895
1,03133483638185
1,02353186792698
0,983676407461722
0,959462072359804
0,926204510308455
0,886606989815385
0,86912581006479
0,832940719470757
0,794905535131612
0,75179025789779
0,721032078551022
0,688181397787532
0,658364625451716
0,637656805974178
0,619979451476039
0,604432940869202
0,602845270525991
0,590813192098372
0,582203845602789
0,573968904866922
0,574497939083486
0,57760657496369
0,579227973602211
0,565969288378311
0,56343934918216
0,552925670176688
0,559347749502582
0,547212258355288
0,53706810275253
0,525858010397186
0,524261609797674
0,513332675242802
0,498418257595939
0,493220777281495
0,480508936648431
0,466811853177874
0,465396284607136
0,448569960732398
0,437720897033489
0,425251562877619
0,409046777687204
0,393092670404928
0,383182722745065
0,367784849791581
0,356563462101217
0,343347735223196
0,329198751064585
0,316124131177155
0,307718186256604
0,294353914186657
0,285533776673265
0,274612735585862
0,269290721062828
0,267809992894064
0,259078735189838
0,250048158667126
0,247724968985124
0,24496342037524
0,241964376306129
0,236791094483698
0,234840477692265
0,231247013911496
0,235583649771988
0,238946755099889
0,231639336766572
0,231961965487773
0,233939854323775
0,233199237932622
0,237435220968574
0,236218352528817
0,238650554202541
0,23896015118287
0,242502403753625
0,244051220680318
0,247268490984627
0,246172671770292
0,245311598347861
0,243739001512256
0,247346167069812
0,240114790233526
0,242794801588555
0,24238951425043
0,240577142296371
0,236872016347132
0,236137867744068
0,237522875591923
0,233671968143504
0,231300993826344
0,226326635429268
0,2277302327254
0,23295390474683
0,228099393113437
0,2324500139973
0,234909585037407
0,232969944566182
0,235731694032463
0,236895485757138
0,241241293780822
0,237555449293264
0,247668850542775
0,254248921735187
0,252979810128168
0,252080544391018
0,255691046351354
0,260726562584409
0,258170989864059
0,266549121112786
0,262211479847609
0,266772352059986
0,271269745474587
0,267538783331368
0,268545242812583
0,272889703127845
0,277720918488306
0,276616668672781
0,272024588661984
0,279639934062215
0,275941364868691
0,282052326048096
0,285551937587369
0,289957589536394
0,2950212856614
0,297752773178779
0,303827688681304
0,311045761740282
0,322962215145444
0,333501199434864
0,337827955103947
0,344894638410847
0,35849979599212
0,364914491453213
0,369567319121006
0,372673544271994
0,377921177111124
0,370384522398589
0,364753037102456
0,368720860962092
0,361369451860359
0,354538174039589
0,361223942699517
0,35666996344055
0,353263523179317
0,350661621693287
0,351199863113285
0,352395833709643
0,348856061707299
0,346316427323629
0,347051525509824
0,355241004021958
0,354390213992236
0,353184148695928
0,345431947828385
0,348250139954194
0,344925138952155
0,351075030426059
0,350314219137617
0,354781718491879
0,342831357901315
0,337193087090551
0,336861146392071
0,339814610401076
0,331093341678964
0,326559022683443
0,329621104909057
0,330446837719984
0,328213759519943
0,322457016029343
0,332341276574728
0,330124713813377
0,319357151559977
0,32400560795253
0,327501550213322
0,329655933302723
0,323197375392628
0,327901284288976
0,318301437652867
0,325028717557351
0,326800747760061
0,317055109122493
0,321488882069604
0,324914350579146
0,322328895664095
0,317852760361044
0,329962999573656
0,334024641813835
0,326451457260061
0,33036298303901
0,324287539075062
0,324139436175751
0,334273861140079
0,326050191230442
0,326362522276777
0,321824575078478
0,325906207199896
0,330499610248117
0,333033029970541
0,317370668027801
0,331780084624868
0,344571040487778
0,335622801440885
0,327967515918232
0,330307799426559
0,336511663703936
0,33399800411026
0,335234257852747
0,345998506983875
0,348866681572469
0,341688592920274
0,342126192499589
0,337605212203057
0,344794512964387
0,338368452741186
0,354378449506486
0,36796526074589
0,360001791463544
0,352153827647989
0,37404183024325
0,373489005516982
0,371975236061968
0,373573998453025
0,381383504008241
0,371293464448727
0,368835166750067
0,381506132434337
0,394027164694204
0,381399228803008
0,389866325437378
0,408531817794283
0,401228559277379
0,408579834448284
0,407389958705337
0,43262353056102
0,434020457305647
0,42900682761349
0,416057052741585
0,431695363511274
0,448736095992339
0,437364090673988
0,45575185363612
0,458359139812184
0,468710637813599
0,469163397244416
0,498213014963726
0,517385444706858
0,51040183361211
0,510665760274321
0,546240314658954
0,542291573258144
0,539130998212209
0,530238826071155
0,562033947022739
0,563904677723176
0,559687080758974
0,543889868990028
0,56545533567792
0,543006787107632
0,55526260943654
0,543321966563484
0,546814944879317
0,525300584743225
0,553461198944949
0,538659075904384
0,538781725494821
0,52559752194228
0,557529073513923
0,5241408396534
0,570091448956043
0,556971207319017
0,53304637437755
0,515421009553761
0,529579818703115
0,530680022156433
0,542265558836724
0,517888971970795
0,53727941262056
0,530271619333637
0,525241585413562
0,546005258802301
0,538317195879007
0,535675087034892
0,506956040254421
0,502092990961744
0,5206880474613
0,528038529407674
0,526080730998629
0,520973106848429
0,515399593616785
0,528363674963288
0,542494911245559
0,509825029896825
0,510998327134092
0,529381663759948
0,57571844010839
0,564251385376655
0,592101954045147
0,572700115416641
0,551923583977768
0,521870241753846
0,539226703818903
0,535035166769986
0,549974432928404
0,542266991232785
0,567927395248781
0,542881114428897
0,571946493755566
0,54861956577986
0,587368899175777
0,548870230317718
0,54742476465861
0,55767621651309
0,591321874105291
0,546951917575671
0,538095591273882
0,610448301274816
0,631569125668414
0,587127425644665
0,570249290011175
0,575982014767254
0,621778215847968
0,558754210145449
0,646290267775784
0,593210243064609
0,600554432791941
0,66499417456198
0,726419308356881
0,721194488287682
0,634257214497657
0,627189518717859
0,635092068624383
0,568766425650798
0,664428928642553
0,629538685647237
0,623311158924297
0,636544159725694
0,675434525463652
0,658352707504736
0,806499582976672
0,748987054704307
0,811832221986461
0,716263426572505
0,741811256317221
0,675821031634708
0,645938264519963
0,712102170919599
0,73049093056797
0,689684124924164
0,738356589550627
0,618568281405437
0,658626879542847
0,584178974291316
0,706331101121034
0,65357278078143
0,684161036323124
0,537382983876296
0,648613187395296
0,553061598149178
0,747417627330187
0,685537926505651
0,633942502483423
0,627193336728286
0,973865184611337
0,561973005031611
0,724924554158167
0,756227904047681
0,707054964148414
0,616228088307422
0,614670919335683
0,752141676583865
0,86173634985821
0,703406477106464
0,809428969324886
0,524328180495098
0,767844090484144
0,864131848628202
0,859271892128023
0,916347665457439
0,610983766285736
0,733559870868092
0,9099044917159
0,654285774863524
0,763968984330664
0,554909763590551
0,74172657744819
0,785910293475047
0,842840871512453
0,553913340777696
1,10073263594932
0,687795650697378
0,519593861256948
0,721924003941102
5
0,595929738752217
1,82871008990941
0,513975681747427
1,10208371772697
