3596
4000,36533379555
650,420452594757
1
2
2
0,0654934692843396
0,0563432309030122
0,0723149306923229
0,0609369051310238
0,0697848401785394
0,0568487709577976
0,0727619291610908
0,0565673174912712
0,0642246160130579
0,0579593380209709
0,0666486794986053
0,0570892396618878
0,0690125827881449
0,0435504607720677
0,0707425750587563
0,0521719511825651
0,0615204979077726
0,0576816383063287
0,0569323407042436
0,0496394885204143
0,0661692684957703
0,0469918037199328
0,065578339504268
0,058447700703977
0,0689523136531213
0,0612156869935284
0,0717318213991475
0,0544120457033592
0,0621054498125554
0,0636872401194204
0,0700088085202303
0,0629502063391146
0,068684263776231
0,0585998773589737
0,065346728501618
0,0559210156416065
0,0590324984366706
0,0585749700552135
0,0639548128137572
0,0538242634637465
0,0757685236123668
0,0648990570751317
0,0643837098841582
0,0565959645529337
0,0741490117343668
0,0631963307222271
0,0738117034088673
0,058190391978123
0,0643736533831431
0,05696470399615
0,0739574946021222
0,0572043636741914
0,0697162883482563
0,0624569476605477
0,0703576562651054
0,0702007616453088
0,0772560204845319
0,0585620803213807
0,063378352875757
0,0527717307953116
0,0749892226667905
0,0721430947584117
0,0626811678711818
0,0619931936958054
0,0539125660851329
0,0626571013982289
0,0681422518070314
0,0534346487633312
0,0576336090218786
0,0661099366131568
0,0575303929751905
0,0763982579617753
0,0906462557814384
0,055871724754382
0,06694813383909
0,0602138140905278
0,0683099524683312
0,0624025880586329
0,0612942911648408
0,0562754834819684
0,0774549765584354
0,06229775467301
0,0674780141607034
0,0477135200481963
0,0713784282220033
0,0779362457162864
0,0603591407030779
0,0533836454276539
0,0957041950713898
0,0698241463012505
0,0622592504040472
0,0548370497325902
0,0638175174043561
0,0589902763120565
0,0663254098564231
0,055661077516876
0,0629442769499516
0,0586198445467553
0,0658300334328218
0,056715976256713
0,0758970638870907
0,0376709045935244
0,115897327944664
0,0490322432693501
0,1267298294974
0,0831583395018214
0,0404172897838394
0,101327556524499
0,0893539832871003
0,0722471182644485
0,0564095971850415
0,0636898391440101
0,0634298349555757
0,0699380849974471
0,0543741322265298
0,0764179447895239
0,0999847220459805
0,060647175987305
0,075151536247736
0,0706162357916502
0,0505882563394952
0,0692761046032308
0,121103687719897
0,0468076890462078
0,079449018912071
0,0634188575013199
0,0572881154367248
0,0754713040161573
0,105728778628576
0,0544040636958083
0,0648255916170028
0,054975073896082
0,0636813992882185
0,0330320339701086
0,111978437437882
0,0655666408705551
0,0716183063548967
0,0453798388042423
0,0844144025138975
0,111699903966455
0,0796750650786838
0,0598561208690207
0,0562590671884776
0,045444240312956
0,112878630917631
0,0771047145891353
0,0517112596040343
0,0746501208404423
0,0915632459710174
0,0589537519330547
0,0700695483465102
0,0526242994349989
0,0819247771708451
0,0811409956438669
0,0250096017061887
0,0854635539688973
0,167584225145819
0,0357806388212567
0,151575717356095
0,0562301393433783
0,0804332222857517
0,061137535830736
0,0766533659077709
0,0551142941722793
0,0671786833420382
0,0507912817383454
0,0733202128729328
0,0939753605567123
0,0608884867711344
0,0594713580977495
0,101768399829118
0,0752034686739939
0,0429885327618065
0,123410329798382
0,0887445236314255
0,0333313482315385
0,104033205061165
0,0792099134242172
0,0551891435223521
0,0565188608335021
0,1107668123299
0,0597804499572453
0,0727137901369629
0,0489176014314996
0,0753467643876011
0,0718536039521637
0,0769290813025512
0,0553510880807119
0,0753108800740711
0,0317445061185878
0,0896231582594472
0,109989720519789
0,110935676901367
0,0566936050729436
0,0812077212929941
0,0178049883052758
0,098167736622109
0,112525138072706
0,0726656962047147
0,0599581492338196
0,0640556185130542
0,0541059972948501
0,0634714216526811
0,0551726535610645
0,0683693123540235
0,0265071096615359
0,120121172766947
0,0812239871981072
0,0705097529933971
0,0526333542003459
0,0690451421998824
0,0395582053979191
0,113917879896051
0,0983945558981411
0,0662721813534104
0,0655775716349786
0,0468078386582052
0,0760145329857959
0,0985444080085902
0,0665231377838326
0,0711948084627131
0,0582047233720841
0,0634220648842588
0,0632536249002539
0,0701104460659303
0,0641238761280619
0,0736111117221778
0,0596900521263593
0,0700305979822892
0,0591950775004281
0,0778130731313339
0,070000929524651
0,0649327935708208
0,0696778021046244
0,0616596061784062
0,0566905557961178
0,102080668336921
0,0670659816456516
0,0780486948717053
0,0618681969141193
0,0712848263054597
0,0649479886587148
0,0711392460986276
0,0583554740056066
0,0657626619419373
0,0411602530065292
0,118057480245361
0,0746084101917489
0,0764347760268129
0,0541204765690554
0,086027306030259
0,0874620644416093
0,0703169608585755
0,0651639398194353
0,0743461462806791
0,0570278953696082
0,0600661555076886
0,10733598808792
0,0827313086153604
0,0574443537032179
0,0867875922217968
0,0833513722627053
0,0694366875666513
0,0641824660735264
0,0389348914850331
0,158328570761559
0,0969090548565238
0,0437287580418851
0,164915740757351
0,0955846264709508
0,0820107635076797
0,0776749517589528
0,0375361816353322
0,156963997109977
0,141456425405862
0,0795334473710719
0,0770186309645949
0,0963044375416751
0,0768107871825445
0,0736214409036201
0,0844696962788061
0,0771705392883202
0,11377263205502
0,109389223743049
0,167981925456546
0,055559451820869
0,105013798238766
0,119756566415871
0,0872420813008934
0,078301209860041
0,0775636298862671
0,0718700047093361
0,0997480918659146
0,105898953867415
0,094331146765012
0,0913379343189486
0,0752606183666656
0,116497797706809
0,0968302082573691
0,0744620545074696
0,0858106854996586
0,101941853268209
0,0821281508275864
0,086681691910502
0,0834533757357064
0,0937307431396645
0,0873057844370171
0,0688124317691284
0,157818783733433
0,112531634048155
0,0876985664464048
0,12788161559954
0,100274350168915
0,0910839303637946
0,0951637426128802
0,0956931626612117
0,0946565102199809
0,0942488863016933
0,0857261781283982
0,127187648080188
0,124262204542051
0,10508313989115
0,104911741462287
0,0988881617081263
0,113471719036415
0,113108078833852
0,113069037665835
0,103853406113074
0,1191378921656
0,106465687639548
0,136439275482136
0,152406259642661
0,101750085146437
0,147982005919611
0,182851301122168
0,126638464867954
0,135899543578619
0,126983779827466
0,140523165039296
0,129794487146585
0,148376842666451
0,13964542484729
0,148999498948189
0,168183793413896
0,171769939958913
0,142961613882421
0,153931072651798
0,204365350642103
0,257434885547253
0,179562951401959
0,179020460103988
0,150751992889755
0,204288024735116
0,233737883679731
0,20202418674532
0,229542958447314
0,190011964843506
0,201509933056131
0,199686389649874
0,202797056967079
0,207589825884016
0,214197351764645
0,218333722287139
0,226214004698603
0,234309357384709
0,233327302427141
0,232268391334803
0,227063046812392
0,289778469441425
0,261690534575441
0,25156363119533
0,261912562144015
0,247222986324199
0,273968105769842
0,307919266337824
0,309339189560184
0,31721309096217
0,304404278359492
0,351396993170243
0,301798078325491
0,310275077742446
0,285285070043614
0,304030199431491
0,30946855776834
0,313736884113103
0,306839239759674
0,314914257433598
0,314434292974109
0,337157942572324
0,330860696741556
0,345943485782443
0,326168466812
0,366777604180816
0,355129745148086
0,363114569706647
0,338882789551524
0,370980646546389
0,430926479672066
0,432805679206337
0,376709671929305
0,382416207297181
0,379203285350774
0,377037411258793
0,374663390910486
0,379379698574243
0,398763799805805
0,399745905132871
0,441712540593698
0,442313925930837
0,425894772753914
0,436680841812455
0,401543469935202
0,452978337390423
0,443717660219464
0,445482921725189
0,459325499289362
0,461436903636346
0,432343477217407
0,456198566878629
0,48349531515692
0,471303516732793
0,474191399736418
0,460428870916931
0,462865414965149
0,467249294044349
0,48033726150823
0,488305943050385
0,501481602278303
0,499505918504919
0,477008299435001
0,503706998848666
0,503776652891223
0,512701264553329
0,523349738729009
0,529932939090133
0,522166462634596
0,543552179107676
0,520131290044664
0,531616135461554
0,521841365143154
0,541269458181772
0,55802144434728
0,551211953551857
0,56516767033684
0,53635422080937
0,532356453918618
0,565652251218192
0,552550372808782
0,566307647492607
0,579107057844479
0,585319720742427
0,58169384142677
0,608399379554326
0,583979514030647
0,601563337078201
0,596812222884843
0,596928728282908
0,579834146848269
0,609445708619596
0,620532698195038
0,622317496013814
0,611911626061885
0,640477040428334
0,666892246929452
0,691202837077025
0,676287844314567
0,647576613710433
0,673581605326421
0,668984902389434
0,648452218009041
0,671193711628002
0,651438674916323
0,654548527205145
0,683629258139324
0,70889721932004
0,674203204136706
0,708904649316447
0,728582857059107
0,684320663842019
0,696279247290402
0,733103169810947
0,701711105931988
0,712281329433
0,723697837539461
0,746358917506582
0,726254383208524
0,741031536684041
0,755232947820204
0,749609032919695
0,734476781644732
0,763942731905104
0,762971350614464
0,742665181960297
0,739690477114761
0,79704694405964
0,778379282621788
0,793438875375917
0,793874515480717
0,825704764971383
0,818076054727619
0,822261380187098
0,781234190885875
0,802805798529815
0,830238055884409
0,849912028740489
0,784793203017112
0,828017425400328
0,821162869484548
0,843229315404293
0,847835403642215
0,792739460610072
0,859705279872991
0,853091792591707
0,838567667663362
0,897978825882797
0,906959637400093
0,883368461521746
0,834359556805722
0,853354292499465
0,845709954668361
0,901122532268716
0,924665226468952
0,944552867845253
0,866282136216567
0,891453221182834
0,940551827136275
0,910933348197925
0,91138874449967
0,982062840593338
0,974415722331752
0,943864152748681
0,966261341964781
0,965087887272935
0,942355138148164
0,962183269686916
0,938998764538603
0,978331187150985
0,950467737321062
0,943219705612866
0,981743632765373
1,01061569693702
0,99623105414309
0,986281323630455
0,999120857111535
1,02127601669784
0,974846406908558
1,03182056328495
1,04934299679483
1,01791810720064
1,08558694283763
1,08352334280818
1,03119625861966
1,06120739707238
1,0263709687231
0,998201645171218
0,998736596597191
1,04986953035197
1,00635243693483
1,06348354107507
1,11143449078023
1,105872518269
1,1052820141281
1,08273541536948
1,07321083280729
1,10151256448213
1,08298781513235
1,05254886962385
1,01215171581894
1,07279376974937
1,20270539408195
1,11923444161029
1,12695853614333
1,20797176723365
1,12098148977434
1,1952531363951
1,26801944952369
1,12733778344873
1,07848103724842
1,15544600554349
1,17621938510282
1,21955378818844
1,20670713631872
1,19696796747824
1,19698851052229
1,1893484445879
1,11807429214179
1,1915365436899
1,3022551040481
1,2120857806244
1,22908360365801
1,16055589463136
1,13081682558527
1,19105906386034
1,26854224718004
1,29546542045889
1,2396038258024
1,28012375254616
1,35999914086054
1,26320269955283
1,24084967577629
1,28503386783247
1,23237933423117
1,18377591814191
1,26734493432689
1,18885800735151
1,17518215607681
1,37241379817688
1,36121930566551
1,25642607860642
1,25455203981947
1,28023119430285
1,32133306799008
1,3729327966494
1,3204116118265
1,28248696834634
1,35914537406087
1,33878846680732
1,35881634875076
1,30577204576995
1,35809506195424
1,44354318571699
1,35537443823997
1,30294292582162
1,51334763845361
1,5022322564096
1,23900352097076
1,37678084189737
1,54953496047538
1,30659179936775
1,32087093519971
1,4081533834883
1,36213588465138
1,30423546522946
1,45777623174817
1,46251444926429
1,42494317934447
1,34943140518823
1,33392736151057
1,33903528268382
1,37670546958393
1,41818885788533
1,48556625963348
1,43188834659909
1,33644632863827
1,53707514050258
1,82050408389007
1,66701831101958
1,56972123361705
1,3565540318915
1,46041405307379
1,55559992839889
1,48573656537369
1,4600035037179
1,36037640108618
1,5217465888762
1,52488150683683
1,4133274612128
1,56575747042181
1,5103952478341
1,38143964236576
1,35640265100194
1,61952862735121
1,62799170159219
1,69526867823118
1,4494961342966
1,468613677577
1,81010307933344
1,65032166335029
1,54616557377815
1,60985831047974
1,66484030754642
1,47956962993378
1,29663021672924
1,472219882585
1,51106222001841
1,47186816554455
1,3707357417967
1,5793811880162
1,61985839045828
1,51141342302555
1,52434523700819
1,45247395636978
1,45927956971627
1,63374444926465
1,53559604471185
1,40683277680098
1,41631063549588
1,41658349523004
1,506106431256
1,66335392006701
1,53795204892989
1,56744194146903
1,50284628429156
1,55359647334417
1,45998721780074
1,62507866807208
1,50526431078971
1,58809255566996
1,60290919816661
1,46234972294683
1,52546544038666
1,56138030407845
1,49361629593912
1,46432900047723
1,51194951884488
1,55840397357649
1,43435537528498
1,51243453965312
1,54587751801917
1,55429930472761
1,45005024958361
1,44197879109462
1,68317780583737
1,67781413187877
1,54880117667289
1,66941550890593
1,61572693893734
1,63738803149707
1,51439552945597
1,59865453346348
1,42888734564005
1,51393888091623
1,64863293218766
1,581661312204
1,50969687375562
1,50205041647747
1,44873945855984
1,52428769168255
1,6350697209899
1,71600972495852
1,6650905202983
1,44089298762019
1,35566744592265
1,53438584481726
1,54545927885436
1,54882229438158
1,52177956085448
1,65515200070433
1,43370102639569
1,4577987354491
1,5297687098205
1,74504039396234
1,51097862399206
1,55017535258276
1,61174317107708
1,49961748174589
1,47069733749384
1,52582139893636
1,50605471008207
1,43773303064159
1,56235133662627
1,61954137466238
1,58337520684517
1,50826696676475
1,44609744208292
1,54421187281934
1,43473356159636
1,43635120798975
1,38265908060451
1,4724109080386
1,51527005394531
1,55999977811991
1,38460497281962
1,48742674024904
1,63315808218229
1,5741632212909
1,48621911136859
1,51216228728314
1,44651881879908
1,63648445470149
1,48502132448534
1,5163604296716
1,58779087010156
1,55996085773348
1,52829541388227
1,51197289471468
1,58996476052312
1,57461679072849
1,47628017051285
1,50405116255941
1,44695537920825
1,59781399766019
1,55310326376644
1,69300716639392
1,56607128929551
1,63008524760267
1,56381964294861
1,54121811788479
1,47290073347302
1,46351635480957
1,44452699316357
1,43000616590056
1,57397646934939
1,6816805511225
1,49767449060632
1,49183997632787
1,436138082429
1,54427530258114
1,46593186359518
1,52618559738657
1,5632209008665
1,62752575433766
1,47673412159868
1,53930647640261
1,58098039302267
1,63549537760341
1,40759794997587
1,41141939499999
1,43810537865205
1,50457287842198
1,47493335812691
1,52698737097929
1,42319844538243
1,51655226844262
1,44739678501464
1,49025617142698
1,45416205694524
1,52437653912047
1,61562571925667
1,47089837435546
1,50248937779793
1,44429926858325
1,46047736061163
1,62651457321256
1,40905493555663
1,44659146417625
1,41505230561788
1,39086882585363
1,47054007856789
1,60425097350304
1,42091564156301
1,51387692284892
1,40571118547274
1,45723522001328
1,38712034327231
1,51958171308863
1,5273831615912
1,44384745048521
1,34788094489308
1,43982888238592
1,48748982511334
1,41446850780778
1,36646480941881
1,49631196976379
1,35381347172101
1,38667962401758
1,43434812349798
1,44790321627096
1,3806949418815
1,3424565702551
1,35902140701939
1,4571531632408
1,31426257806507
1,3439865357738
1,31696657482469
1,39514772288611
1,41710805163865
1,44560495799607
1,31368173335706
1,30984464424066
1,32463577807558
1,41194596834033
1,25958771428964
1,29646380064837
1,37252789283567
1,3795772210104
1,24004088194572
1,43408384631812
1,27645827084997
1,24341516943293
1,25854225296159
1,38810283937909
1,2794155212513
1,2570096943097
1,28900042249775
1,32366631439794
1,29270361177901
1,2693075535801
1,28011985460582
1,31886158574042
1,21491787674956
1,2801171898196
1,21080354282896
1,18111645935694
1,19828322530351
1,23398862426698
1,22449997432623
1,34551307129584
1,19715536783306
1,19790910103389
1,18131239800475
1,14772077930278
1,17340653562219
1,23450881978241
1,14712278560506
1,1877641788877
1,2360962575967
1,1914473672508
1,10504957442003
1,16111645651207
1,16955471150709
1,15757764852668
1,09564366059496
1,09719202935288
1,07960718686348
1,11841216688513
1,07620444953104
1,14894012644633
1,09163480453498
1,06031373930456
1,05976351172407
1,14360956086151
1,07699387755141
1,0650645672311
1,06118432942452
1,04343168866181
1,0107781588105
1,04186577781327
1,00295964451321
1,04447397365897
1,02007840970678
0,99584160314741
0,992590682622218
1,02844820143308
0,982920426193225
1,00667376770288
1,00562086327052
1,00075788650912
0,949416325529605
0,959677566718031
0,952044673211187
0,978098630171475
0,931755422508184
0,95705117044078
0,943478472422843
0,95020563488678
0,942542762920001
0,938268626124122
0,900390505087079
0,923352014925427
0,901078106025815
0,903036063785352
0,89478886276347
0,903295165868521
0,865550302094302
0,869865464160932
0,880531681772248
0,879356496561765
0,866346127309465
0,864506412422919
0,859538145700906
0,866364784489239
0,846755222511024
0,859272941207282
0,833430631458129
0,850949323844151
0,834954528299127
0,841061166004717
0,819829414410897
0,82353632339469
0,810127506542938
0,808985932474254
0,801843625256725
0,801027257421365
0,788270236633644
0,806351748234351
0,77576532459128
0,787386831153624
0,765517431780533
0,758776414170375
0,761329931663359
0,750518212848919
0,733294011547762
0,74483483299731
0,719765454691537
0,723042164444421
0,72446096716423
0,738194272682855
0,720868976801217
0,719198326566525
0,713769410489272
0,717915519064255
0,715510955433807
0,705454574929457
0,701953207574641
0,688755015365256
0,669989338792275
0,682018926443187
0,669603506248939
0,676034020760528
0,657092205810877
0,672614246129976
0,659691647728194
0,679761155051595
0,654859313912839
0,650804394141311
0,63687211648034
0,648708088267767
0,624577191519848
0,621064506806735
0,616919634791573
0,62652572292155
0,609445611730142
0,621646368904642
0,611337179744478
0,608296476802908
0,584723956984887
0,600694875973895
0,602595585730364
0,588927496748604
0,572152351210133
0,579274062337126
0,571575319068662
0,572330056126861
0,565141619645701
0,572948814681016
0,56111034642671
0,568759830373954
0,550499497039364
0,557863948556239
0,546819996418024
0,542645099205943
0,537242775640497
0,552483078494739
0,541977219565785
0,53595143064073
0,521004793945268
0,52363893115536
0,519732711299903
0,526138684907607
0,507806246192941
0,523528904232546
0,512654720217803
0,501552434863234
0,496299915026437
0,502758033968071
0,483640883686124
0,480241991924795
0,478284137567103
0,48926223612479
0,474779210485078
0,472296422011204
0,473944433523569
0,470585031565373
0,468441130178627
0,459880705031666
0,453782649278458
0,46459929300515
0,449819507857403
0,457757965898102
0,450328966615368
0,443601660568651
0,433148678233228
0,438644005761389
0,435061853921302
0,429045859403713
0,428654078926856
0,438717601906253
0,416084840810873
0,427104777320765
0,416885380618354
0,412832643379571
0,416106469038762
0,414340705469681
0,410124985540619
0,408436167075314
0,406097696087292
0,405432205234499
0,393314537132332
0,401355736689528
0,395282484356992
0,393761636376951
0,380602928188168
0,393302096047912
0,387595380187091
0,389138029163813
0,379257985547676
0,373353156285922
0,36951728044247
0,376314339297266
0,36518117863267
0,372137732790336
0,365900484612411
0,369858905994119
0,360654201480546
0,362928001462066
0,36431365494831
0,361107205978641
0,361019279535025
0,352613724828008
0,344456697790811
0,357165185754338
0,34474261024291
0,346413081687906
0,34441569973418
0,346979504594444
0,34191186290438
0,345520058197165
0,334910099735356
0,334788212861766
0,329879127793432
0,335275540888079
0,334774984713534
0,333081530212313
0,322325647207709
0,325302440519416
0,330234630446324
0,334012995241873
0,322608875479044
0,325765590576995
0,320176122166139
0,322857934946403
0,308617326808763
0,310799130688373
0,315535216547819
0,316550825365458
0,30925638140783
0,312248860021949
0,302739201428068
0,308018829109077
0,300489586853999
0,310350693239912
0,307879167642169
0,305764735939966
0,297117600375049
0,302649503128394
0,301460659111797
0,300619039068959
0,292762986084691
0,296437114206926
0,289649226128486
0,29965399628031
0,296411314109128
0,299647388110668
0,289197184649237
0,294470349834199
0,292731191060025
0,291432814693142
0,291222575553521
0,294783863454937
0,284305192654019
0,289525095338439
0,283243699886758
0,28263380150359
0,280355865835557
0,280608613276609
0,279327225162975
0,278856226684338
0,271337572153432
0,272952295937788
0,27184233465847
0,280449194872649
0,266624127004662
0,269725212496873
0,264052096713833
0,266344426445401
0,259119053425826
0,26696817415933
0,262271166936019
0,255684448502195
0,255890987071164
0,256379451871149
0,24952574524695
0,2572162781396
0,253733628079118
0,254589252937992
0,247496355545576
0,254912199441455
0,24686486256797
0,256788563016968
0,252844966507551
0,247900353547899
0,241150267593348
0,245433826915191
0,237542330721691
0,242249526620831
0,24068611918217
0,246870695004654
0,237857871744025
0,243366800803609
0,243732868261908
0,237887827063416
0,235381717130602
0,240123270921643
0,232653087155156
0,234087137893828
0,231483580782883
0,235675762814661
0,233377707228859
0,236294508235995
0,229573315057832
0,233666550319552
0,226353750612873
0,229219149303188
0,231001148186523
0,226982292566352
0,228340831647893
0,227669816281276
0,22034297299819
0,223527001232827
0,22077532127476
0,220954297410306
0,22407723050063
0,225436871142604
0,216287877336396
0,220754310779637
0,216477951657383
0,218997420178708
0,212582337836738
0,215830948101383
0,211175185959154
0,210904360035113
0,210818007493877
0,213620618688845
0,203752353508356
0,205801319728905
0,204911240716032
0,204067533435732
0,200824842294251
0,205299112831386
0,198192056946901
0,203613389472488
0,193682836505798
0,195774367737827
0,191842404147324
0,189813084014096
0,186719729080802
0,194796819497254
0,186477298698969
0,187598628719276
0,185612495994169
0,192213335524693
0,181936347864533
0,184340259969995
0,175818386792358
0,180834635110022
0,17559164213808
0,177825550103202
0,175762808676598
0,181685267604437
0,172600657550579
0,174934419925078
0,169817758721239
0,172593044948531
0,169144174211746
0,172327088446649
0,163664369512758
0,168723294714468
0,168072940388954
0,172771553941514
0,168492772743131
0,167016168161337
0,162596314137953
0,163433064305999
0,160713431707116
0,162536557996846
0,160416011616526
0,160373705618132
0,160666753732646
0,161513728829231
0,155313364261689
0,159357945839473
0,157036891876975
0,157676931237113
0,152957167507731
0,157074948906206
0,15238893712566
0,154291208153396
0,149994020278899
0,150451434587689
0,147291446704795
0,150939133429915
0,147388787256368
0,147002726284939
0,145298514422135
0,143305357552762
0,142405942071751
0,150308811520837
0,142908546109799
0,147773079316313
0,149402525737284
0,143756754095489
0,135901540658642
0,145934528438946
0,137482283829093
0,139977437040192
0,138183689941579
0,141336802748449
0,137319498723406
0,139090517573319
0,139504501194702
0,137650737826342
0,13343249435346
0,13691122806594
0,13362477237554
0,137580353644295
0,13094793357968
0,131848102754179
0,131208114530361
0,135124857369763
0,128813807959991
0,135100699656253
0,127462226126849
0,129457840058862
0,128565865685646
0,129926401619341
0,12703536220245
0,128266514105892
0,129291223796898
0,133870079619553
0,124191392712656
0,125279906802255
0,125982633038438
0,126403200400399
0,12544413739185
0,124879949941755
0,123556328140236
0,122666224623938
0,119239919959352
0,12513164200895
0,120506549453964
0,121462553539218
0,120620994750118
0,126597940334785
0,122119640824475
0,126930162438514
0,117312040233162
0,120619001617435
0,116669831671234
0,121217567733596
0,117986163562111
0,117999872813188
0,111804221280202
0,114853657470058
0,114865614173828
0,119421413788067
0,116282323356453
0,120065388131566
0,113881772193631
0,118417638601755
0,112162119278819
0,118020404147919
0,114336842664142
0,116328521863632
0,115595394768101
0,115044538077908
0,111933975391214
0,117528998056178
0,10526486679139
0,112547833075548
0,111132153709008
0,117497703454038
0,110757320136045
0,109677911528113
0,108227765752915
0,108460191646494
0,109824531406812
0,112510637322471
0,105043400645756
0,107937450948442
0,108828932073207
0,108915846830811
0,104043315824574
0,108687295543051
0,10647845454281
0,109836869639975
0,106356079942074
0,109237913361283
0,106102865015115
0,112158653520401
0,107317565614647
0,110702057653405
0,104088035404479
0,104263326375602
0,10652575509069
0,107987780763997
0,109452682279945
0,105209597727403
0,102473001539828
0,10509207716489
0,102618839476172
0,105761035034193
0,101027742592056
0,103900327884125
0,103575964883769
0,105518096211348
0,100673255036614
0,105087164295385
0,0976106940201144
0,102145924282772
0,0993640179536523
0,103125080544404
0,0985779097382693
0,103325159841212
0,0974142391342578
0,103131100097438
0,0984710455387313
0,104288834216503
0,100846672872252
0,099982971651492
0,0958441601555672
0,101731090810544
0,0978389416475283
0,100991543440589
0,0952813391710272
0,0992724952358017
0,0947051096216038
0,0973194679052506
0,0928593292130276
0,0979546088415082
0,0960366377610254
0,0976974250895856
0,0922562714212778
0,100297361730474
0,0926956726402296
0,0937503638253654
0,0919658926697432
0,0952849457519471
0,092753405101186
0,096635857218425
0,089830460346041
0,0939392826779278
0,0925297266085521
0,0919246073695971
0,0952720434582028
0,0933612270045013
0,0938563728253838
0,0963969756496204
0,0929151605830946
0,0947902506697955
0,0898819747820906
0,094602646329474
0,0893339053872284
0,0927748011022458
0,0910834560782907
0,0914076195013737
0,0868276737310343
0,0898531291847921
0,0893844506729008
0,0934836581311173
0,0898793833244002
0,0926744550763165
0,088618086901066
0,0920676473701092
0,0893381685040858
0,0938362969326285
0,086725943715509
0,0925963204828816
0,0866519161840535
0,0896619644227269
0,0849382558180615
0,0897752629552495
0,0896257917187803
0,0897301728583838
0,0868597591032496
0,0904266289823752
0,0840642588524007
0,0855369928978591
0,0823593825771023
0,0873645374903637
0,0828148449749565
0,0851075461506063
0,0843293656123027
0,085473680915162
0,0804258151569195
0,0853594432852722
0,0849476265342011
0,0859233613369906
0,084669130111518
0,0855301513891751
0,0821893286743658
0,0834341371555947
0,0827332403894148
0,0839698544476226
0,0810791421331629
0,0841520362329845
0,0816916557952075
0,0857978366878221
0,0804141262486762
0,083052623357752
0,0815105411856543
0,0835920689401622
0,0814024090444439
0,0818470366676096
0,0793731060268482
0,0842036590851942
0,0795094258437219
0,0839924560865926
0,0822936444146206
0,0867343556006372
0,0834004439429727
0,0852897694983223
0,0766467964517437
0,0839578470162146
0,0819754182590823
0,0831712429612045
0,0787726956743508
0,082151498915938
0,0781637452740473
0,081560098844224
0,0792200352626725
0,0838208574400165
0,0807369444685314
0,0856423728335632
0,0794279727656905
0,0825048180594658
0,0824905418732541
0,085385750868551
0,078417352178381
0,0821678037467467
0,0806593878350626
0,0830301754273712
0,078842436954018
0,0830199527478332
0,0810202712217411
0,0846579693316435
0,0764479905679906
0,0816431940750638
0,077003656096655
0,0809529546912041
0,0804462894316437
0,0820854294302128
0,0767057122756254
0,0780615696202377
0,0780071899213816
0,0844789089352004
0,0795343336362159
0,0824079833166808
0,0778433480592843
0,0811824198827547
0,0774452108587225
0,0829068254921044
0,0768615524214598
0,0761941802095771
0,0781240958872534
0,0802434394941669
0,0767295396552553
0,0807056749144349
0,0780699793263767
0,0818885911123396
0,0792868967783138
0,0818815264200277
0,079049952292835
0,0822508303827542
0,0792597913898709
0,0801808946794771
0,0756217640117897
0,0789513191419238
0,0773839245253289
0,0833320710985562
0,0770197765829747
0,0794325694368806
0,078534925499613
0,0845474837340263
0,0787649508062173
0,081932623044905
0,0780941248660467
0,080550155884795
0,0782089794391544
0,0822640595339646
0,0751959492475232
0,0783186694961783
0,0801602880944879
0,0804542368910166
0,078757499482203
0,0825439795913011
0,0791032281684563
0,0826504091134771
0,0795841818449937
0,0837729814477407
0,0776682855623388
0,083918857204714
0,080405843711282
0,079208294692493
0,0792796334078803
0,0817111721034943
0,0799579078936991
0,0823484205288402
0,0787283934200661
0,0814497588511283
0,0778480659571249
0,0866198610845004
0,0790590145420907
0,080654641911824
0,0801402608338395
0,0789429527815493
0,0785564740528551
0,0775863793950063
0,0783442632247681
0,0821799517868506
0,0775983606326321
0,0798535911387946
0,0773876095088169
0,0827395160989045
0,0772273518448059
0,0793560359365657
0,0782349441102122
0,0833759261352452
0,0791817853744026
0,0825415880607495
0,0753649285254597
0,0822840533464182
0,0790325527134986
0,0834600958200671
0,0800998744760701
0,0812859042344854
0,0803680965732532
0,0820388721798275
0,0784003165510409
0,0840388019318621
0,0809915121242936
0,0818725821780262
0,0779998631948403
0,0834665741822165
0,079609062399791
0,0791695232054441
0,0789405724742079
0,0831346162129564
0,0792280438052986
0,0840212353842131
0,0815498874323406
0,0846728663120577
0,0791503263419711
0,0801003344917513
0,0808445926232394
0,0846690939374283
0,081425558720042
0,0826767292774818
0,0803104583179317
0,0838264459032826
0,0785801363478476
0,0837948293381528
0,0777946603385058
0,0819439037566615
0,0828065452882881
0,0841984267225782
0,0783430371198799
0,0847976667866015
0,0786050048655725
0,0839151537319687
0,0801589818552075
0,0845343680161815
0,0792594703903903
0,0817851539528029
0,0804975690296883
0,0854630213362233
0,0802631206066577
0,0827726072575794
0,0789562348149889
0,0838600392856163
0,0818204401454576
0,0812026692865298
0,0800496451180592
0,0835796235644213
0,0770274119029555
0,0831529214777541
0,0809641888785992
0,0832348426804846
0,079866872599644
0,0851549118386945
0,0791005865656574
0,0825368272852083
0,0810489069167785
0,083344802838233
0,0826005902747855
0,0833240031380423
0,0809435972331479
0,0836796381410757
0,0788277938878165
0,0861511755094622
0,08058964019381
0,0850109258848343
0,0810685639745619
0,0842267421252164
0,0810708737565073
0,0866176970883564
0,0809001366968048
0,0870840891266557
0,0804542253688488
0,0860817722170517
0,0852178062585162
0,0838328827269111
0,0813442821915487
0,0882866531319127
0,0839452311286156
0,088194757117446
0,0824661467309991
0,0860067856903963
0,0831953013649188
0,0880543874982237
0,0833783694384414
0,0897551373294053
0,084423112363842
0,0875367802876202
0,0828438742751116
0,0906822130009186
0,083552474190105
0,0853321050048764
0,0825387522699834
0,0863341229761539
0,0830736438889199
0,084885941587767
0,0827128258267893
0,0884467412773779
0,084604499331365
0,083336116527648
0,0836927174878928
0,0865101519782663
0,0818252834081023
0,0865186596149941
0,0815629682792017
0,0870911396625347
0,0816499064399638
0,0885545234046659
0,0849643664452167
0,0896452158209491
0,0828629834161252
0,0896109083727644
0,0838710293646678
0,0883863337647245
0,0842157173360381
0,0906425691020328
0,0852180897811401
0,0879874937827431
0,0846523965209705
0,0873110983962612
0,0856905896757747
0,0911868418692761
0,0861025246166367
0,088676728898315
0,085532832978963
0,0902104403884758
0,0856545606531175
0,0903348390309707
0,0862534887337743
0,089881290565806
0,0896958394368523
0,0953729546875018
0,0876125423217914
0,0935663749922355
0,0849536447341956
0,0962876777680411
0,0913017964835282
0,0966347616049888
0,0920036778673225
0,0978673842010746
0,0900940832205835
0,0970049174973698
0,088931085915329
0,0938563798660074
0,0894155557236894
0,0960406545433003
0,0921293423456596
0,0979207001599647
0,0878095386278493
0,0966438789959405
0,0913312502486182
0,100745213641431
0,0893846370912099
0,0984217421312317
0,0895353656567404
0,0950063884681817
0,0891089244257171
0,102432747102156
0,0851314209741368
0,102923835297575
0,0887314233616114
0,104330534900928
0,0900349050651865
0,100908821472582
0,0930853088057233
0,0961429901211349
0,0842772570081125
0,0989877713251515
0,0900759328899544
0,100254538829424
0,0857917557779648
0,100194241899096
0,0835863673222407
0,108657258696017
0,0788719204135333
0,104260832963182
0,0837686224963138
0,108983144264912
0,0795163893254156
0,113727256128476
0,0768459449898483
0,113919211145673
0,0741611314501847
0,12092715305777
0,0742771454022509
0,126226103081197
0,0762050342093906
0,130314782194783
0,0721908746430536
0,131810571898172
0,070290268168884
0,138137799045106
0,0688433929947116
0,13538696625662
0,073272021080324
0,131771541379452
0,0785395329760858
0,123951753310609
0,0859126235903672
0,116247174151113
0,0957552078246863
0,104158975065951
0,104460043556895
0,0956603868774514
0,115166046234792
0,09168526640526
0,117275228427176
0,0926125064640264
0,112550082421198
0,0955865000526666
0,109247867817406
0,10426726797783
0,104912082655092
0,107809105359766
0,101179295891962
0,109102024346259
0,0991108162069852
0,102965552260928
0,102606989311909
0,102737351343687
0,106098960115211
0,103894932355353
0,102464317914117
0,101836568142942
0,101222953465509
0,103973418364918
0,103168773456973
0,104463422629012
0,102349562647252
0,104199653514721
0,102124871469654
0,105353552354521
0,1025324705344
0,103300764639924
0,104790242770338
0,105959627843428
0,102346456444804
0,106631547821935
0,104282881232029
0,104436239255678
0,104884719018077
0,107213063193654
0,105067090299677
0,108200224559986
0,105410869062077
0,107390230645782
0,107307724919602
0,10812854993691
0,109170610751365
0,108967331818235
0,105875735328622
0,111125771662457
0,105691786195939
0,110123871625452
0,109498847834991
0,110367329134902
0,108162964301254
0,111948263678639
0,109174904562807
0,111765732775831
0,110893959568951
0,112488110019721
0,110823746139525
0,113717091458634
0,113966737158702
0,112403181354581
0,113626531615479
0,114499157519532
0,111213091943414
0,111753442226763
0,112281074385604
0,11422285424719
0,111914617752822
0,112829460833276
0,113584192349426
0,113302810135666
0,113240926022377
0,113592772494141
0,112989512551866
0,115563322483459
0,117444667234052
0,114298399860455
0,115541992626392
0,115392359224763
0,114948955365094
0,116698341844433
0,112755655261252
0,116598063574126
0,114870965442809
0,11713273149671
0,11463369602902
0,117679074472599
0,115175947204228
0,119643920155815
0,118555116346332
0,11631263043295
0,116652263357589
0,122387827791888
0,119647903164968
0,118954271269906
0,118383370872113
0,12247897726937
0,120983004341545
0,121135493871369
0,118323748723277
0,121680911996269
0,120387524597152
0,122202358540836
0,119960117655692
0,123743069590008
0,120875444020835
0,122279905871553
0,121402319075387
0,122838629351646
0,123972220968699
0,126281583184733
0,122763133963528
0,125019347408617
0,121949606364073
0,125333459473009
0,124131840418995
0,125348868798892
0,121540981055739
0,12690584939461
0,12311586098476
0,126939029608124
0,125291821658581
0,128352561273263
0,123668578500729
0,127804140436678
0,122523336455708
0,12707769417077
0,125970313033239
0,127056046852554
0,127475555329341
0,127315952459358
0,125597690954196
0,129041643709441
0,127075375598835
0,131321188818885
0,128940392226283
0,129571805738417
0,12598584625239
0,127790512582627
0,128202082144065
0,130554866858087
0,129042498591612
0,130171616281544
0,127849277582508
0,131987433966138
0,128564392497172
0,132489310159359
0,128544466682544
0,12885089736956
0,129695734149088
0,131821369540708
0,129342677887711
0,133008622704644
0,128185128712197
0,132996596373723
0,132649441377048
0,134178486678915
0,131760885171296
0,13440344787909
0,130063482615309
0,134393013593475
0,131481148434911
0,13682689544876
0,132262233655139
0,134817825696325
0,135481073149367
0,136492495654134
0,132549917609928
0,13650820267266
0,134702831167187
0,1373423360049
0,134576503879244
0,134993866545128
0,133158045178361
0,135621166198342
0,133663274236436
0,136888047738889
0,131188446475243
0,138916831117911
0,133921336358124
0,137080108088558
0,132862917986708
0,137262311958937
0,133945778019659
0,137046822550881
0,136032086329818
0,138285065113352
0,13509794614533
0,13798080212507
0,134292880443299
0,138374797992589
0,133859785315146
0,135531551727664
0,137190257977675
0,136278430943341
0,133697317445269
0,137922745053118
0,136904695482137
0,137383260993982
0,134615250550499
0,138678721495493
0,133836341282208
0,136763124541957
0,135191620645686
0,137037257830363
0,135190616545875
0,134788662691449
0,136901487205217
0,139853234724568
0,134218748646981
0,136014410718852
0,13476751693745
0,135133317389152
0,136973414167064
0,136959472753229
0,135796014791219
0,138893146648827
0,133451672992254
0,137802254164256
0,136469403583285
0,137039889476554
0,132466635863297
0,136594639475972
0,134245518871596
0,13777940916324
0,133379540211355
0,136507044357087
0,134745741592353
0,137636854853551
0,135238506443424
0,134892069876605
0,13294472352668
0,137051245246611
0,135528665186006
0,1386783975173
0,131266163970453
0,137327816438651
0,134972551059571
0,137490346140603
0,136026266565403
0,134045074682943
0,133974785715491
0,135903979002409
0,1332473162052
0,136399859578339
0,131135262846406
0,136146324393784
0,135648833803237
0,134849781524221
0,130786713637594
0,13159161251074
0,13262333310439
0,133609459155865
0,131307063098387
0,131245631988569
0,129077919200547
0,134999020701661
0,128115238173896
0,131907940314383
0,128227003435084
0,131042829947152
0,126363634790483
0,129337086134435
0,131223213304776
0,132884933420424
0,132840247784799
0,133534533395384
0,125713973318503
0,130348770201504
0,126204166549069
0,131913335950745
0,126794674105134
0,130424096797744
0,126641183502233
0,130415667422821
0,126297040494225
0,130564328392532
0,127997956532588
0,126369228498223
0,125139379966701
0,127908937382721
0,123897914067208
0,125350588055878
0,12404737993177
0,128023773458393
0,124845844648346
0,125211192331267
0,125218291507423
0,125165492362709
0,123391382114729
0,126571477534214
0,126075304550709
0,125825764624736
0,123166073648941
0,125548883272572
0,121079087125594
0,125156187727741
0,121403544610664
0,12166576450326
0,119626226247001
0,123186805131637
0,120687568128648
0,12131965294493
0,118555543150069
0,121144503230852
0,118126086305926
0,120923570711321
0,11688855789172
0,120688520844078
0,119046498352925
0,121779446883576
0,121581153154425
0,120673416828009
0,11675449511105
0,1189474474808
0,118833981935755
0,114935609111962
0,120723430471161
0,117217485772469
0,113668844911682
0,114997448670713
0,113342475261447
0,117631651786862
0,111029239667246
0,114743462519474
0,111362785062427
0,114454987612141
0,113398484361847
0,113209070608737
0,112577202390212
0,11280373584039
0,111322549156454
0,111987913662447
0,111286841908554
0,112464665280417
0,108215963535206
0,111465919340067
0,111014272986568
0,109047044242038
0,111433837046372
0,1117664494813
0,109167675941476
0,109121779943143
0,111803130804623
0,120817779812776
0,107823627273791
0,111373665986305
0,108830262198061
0,113214171034863
0,103236726070176
0,11082858166681
0,105714896860911
0,107385024474843
0,107865464588772
0,108705109610944
0,104429528759227
0,108838611738672
0,105026965276926
0,106509467076338
0,106007927989216
0,105649144115655
0,10529684263148
0,107965549073864
0,103076229293231
0,10623132853745
0,105435148876461
0,104327458751888
0,101778245565447
0,105628846446236
0,0996065695204469
0,11121118403643
0,103615629336892
0,105895238712978
0,0985033528766748
0,101958716447343
0,0977904264705648
0,102436783264173
0,0997946633370051
0,101693244103932
0,0989999886958542
0,102000656688397
0,100815424179862
0,0991400225707221
0,0988834738463237
0,10268789776918
0,0956511447537964
0,101675385680389
0,0939728615222425
0,101535865989193
0,0944385750324582
0,099624539345424
0,0976366982552147
0,0996084321767736
0,0979346359212126
0,0998669047692268
0,0945127977125781
0,103576517042708
0,115461149833508
0,100327525288935
0,0972692978270363
0,0963748862851995
0,0956390986656665
0,0955933461697802
0,0944832704893459
0,0953363464804938
0,0945230027034774
0,0946239287273447
0,0963465103995603
0,0937384167414867
0,0950773074474975
0,0971168827554831
0,0942575657645726
0,0937938361211289
0,0941796312066605
0,0945273383266399
0,0968585819895174
0,0939852728486931
0,095838949741399
0,106103442521941
0,0983527079695153
0,0938361847940948
0,0964957003493527
0,0896786788760084
0,112923666729728
0,103169461828094
0,0919952015688546
0,0961977831941646
0,0931248919845924
0,0946225993356046
0,0917495896374785
0,0919901151930827
0,0933432977403431
0,101157388948181
0,0934654778181158
0,0981289069721211
0,0911583462527162
0,0926273981595777
0,0873510286670549
0,0912732234866668
0,0880960338949744
0,0927436037322769
0,0898881725270469
0,0883949816077171
0,0888154431521486
0,0914578343237089
0,0927023285474357
0,0903665840785141
0,0904797293080004
0,0984212656899819
0,0887068889576759
0,0919625518470264
0,0922812052016311
0,0893153300999567
0,0945065184734981
0,113017261775197
0,087034425724429
0,0942423143019204
0,0878985090613097
0,0936223337947031
0,0899200031726198
0,0931335435049221
0,0891379693056756
0,0886965340122147
0,0880602803946731
0,0916901503600508
0,0891996922076985
0,0912274900997117
0,0884484146314782
0,0918902278542051
0,0878648860886938
0,0886135198951611
0,0909894794431946
0,0887060992854248
0,0910353530264239
0,088917301777065
0,106985520989438
0,111832134095008
0,0992308374035096
0,105956921409902
0,0919890834020649
0,0941190234621785
0,0911067090823925
0,0916261325870925
0,0887315296434437
0,0965710456629395
0,0856342072613586
0,0901642023585393
0,088898193223957
0,0930391295594658
0,0875434580205596
0,0901196808811849
0,086353864351093
0,0917513133704841
0,085176822900705
0,095853965706875
0,0847519478947052
0,0928295481901547
0,0851866925147231
0,0992145785999513
0,0933557496283242
0,0987074157093427
0,0791979245669256
0,116893758381594
0,115014509524973
0,0958440418058825
0,0956738837276946
0,0927783326471842
0,0932312152672634
0,0899221764842633
0,0899533131316784
0,0969962521870897
0,0912703023090386
0,0912565396252978
0,0912972740526418
0,0961550928754996
0,0923448319952922
0,0858017582110514
0,0978347082195071
0,124292501602987
0,100076698842821
0,0984731063522461
0,0878679026144585
0,0933801962020262
0,117279664669235
0,0995338221527443
0,0988433891793419
0,0960810437370129
0,094848009636526
0,0973481487443289
0,0922411499435748
0,0937355186561173
0,0985210155570512
0,0990059235991489
0,0927859522280666
0,0963506233252741
0,0912822322905129
0,100765862910169
0,0955478926795511
0,104566318786576
0,106714258905983
0,0955011752015379
0,0992042315879925
0,102150933122379
0,0944720727127582
0,0990151967686275
0,0982123196166219
0,100212205172162
0,105619652197133
0,113979376723031
0,0987608264761643
0,113908968797382
0,112904158922695
0,0992294528895324
0,103104524711725
0,108742657898826
0,111977049859844
0,0982196280520529
0,101956232337933
0,134699442424878
0,11140159405888
0,125264478667157
0,098838219503077
0,109163422021818
0,0982583166330346
0,105432550503897
0,0950143269981871
0,123541388284282
0,107458946055455
0,109771229032706
0,103243922536199
0,114771506787825
0,118262780441626
0,112696809779475
0,110482101351339
0,10893648189065
0,105497343717649
0,121404460015316
0,118244786077948
0,104613707715516
0,141097484856271
0,137429896665479
0,132833780945169
0,124619593824388
0,110729486065709
0,150205857460039
0,124129848993678
0,121775836340131
0,116864801347625
0,123177854203607
0,11594931361966
0,119798524239794
0,155961265276355
0,135656271795032
0,12081617545676
0,132936627378183
0,12022926112212
0,151742956079116
0,14145473162409
0,13083201540492
0,127780935973284
0,135256172717912
0,122123552879052
0,170882057616094
0,15686519950797
0,1402735674577
0,164156510038494
0,153087015825306
0,155851357909158
0,150282467721989
0,148500228489848
0,156938677992346
0,166757460526247
0,15303329682569
0,140218976871767
0,160437769611759
0,178582527106355
0,151467486092584
0,161475855488952
0,15379064007661
0,149671267002602
0,180736381243073
0,218353127047723
0,193722855280097
0,173184073727079
0,168066605698419
0,194787669581248
0,178892811472836
0,171177993940724
0,179021898530371
0,17946374271933
0,180849912692981
0,184876877867001
0,19985021025214
0,189610422489454
0,195897509403806
0,194606374325531
0,19610308210653
0,220644029453687
0,255059079053505
0,248346402004032
0,224974719010102
0,245687288474391
0,242697545834372
0,228740664161282
0,230894481202394
0,229398384453841
0,246657884680593
0,243508185280333
0,247524458259901
0,244919206806786
0,275369826895006
0,274003389641533
0,274076371338376
0,290869055046385
0,273075505591904
0,277672451148415
0,273573694741914
0,453570347171695
0,332122346513227
0,30532484251548
0,312782069921955
0,317108990515557
0,397681663879102
0,341108600317448
0,330047141933886
0,332696947557538
0,336906921790043
0,346838604910191
0,363565759453839
0,369868467007465
0,386223091551917
0,375580556669596
0,370143997826059
0,391801601383544
0,478473081999916
0,459958686461535
0,444589393674273
0,416379458604777
0,43579742331188
0,448220509719887
0,438878081387081
0,450492135518468
0,449988973213714
0,446988839805325
0,524299393593888
0,483658514614727
0,484738655590131
0,485915076282319
0,526215345217158
0,502072076132251
0,54165089858741
0,572675340021933
0,53803525229138
0,536834612390431
0,542551475824304
0,547711375276207
0,544565508195373
0,596251270137077
0,599344170173656
0,581136820893193
0,586092556099207
0,592072487382338
0,610348554444594
0,610153841405657
0,615731991937156
0,616466394832653
0,668098350949105
0,666957548693293
0,788332643344591
0,70224800801671
0,654465339353395
0,663808488205871
0,653812915286683
0,707014156281707
0,702227404285856
0,708274037041098
0,7309174405357
0,677899684463624
0,688652726907528
0,681325450046573
0,696591796390412
0,6922401692987
0,70442464605047
0,711652015724414
0,724238380894764
0,702160009106718
0,706926512026999
0,801402416506288
0,699389677945599
0,695243096013365
0,696680310894395
0,679512350616808
0,699395239315194
0,68301814173721
0,66562699194476
0,698774579345898
0,672812778832506
0,652676332444262
0,643204716945616
0,676879601220833
0,69291012296114
0,633410975695055
0,635189586355603
0,621117633746255
0,621548673727313
0,60641580215798
0,603936826850608
0,657032104277688
0,604379629919629
0,57835093515717
0,575799633010483
0,553815115028607
0,560913518059957
0,540773303051268
0,541391403580231
0,535831756072324
0,520303203662122
0,524334093617189
0,514298929073557
0,493616158633156
0,491455824339221
0,487382763094952
0,487206317842352
0,468780651854545
0,46822865348093
0,455365602505413
0,460656913263449
0,450691676115683
0,445395275898671
0,437459774399975
0,440309260250865
0,433542756336545
0,423986663634185
0,417108952430045
0,41643039676036
0,41208115176255
0,408245992105093
0,403708452245527
0,397323361804068
0,388974054978482
0,388392079232775
0,381766455313733
0,383310692649667
0,380164658330688
0,375993277246242
0,372817474301013
0,370900996603828
0,371823562336638
0,369987550601319
0,354417498041103
0,394130187318559
0,400010037729354
0,356156108175486
0,35613050454595
0,352582182931484
0,346800538498786
0,33587389324769
0,368484948140278
0,381622304559657
0,34645197611627
0,339812546585172
0,331948645992
0,347205989925033
0,346493380963589
0,332524013145685
0,328094816679889
0,32193217172357
0,339980516163414
0,418732735662016
0,361677874509591
0,433877773550221
0,352485545254171
0,313876556782661
0,321433362947905
0,359234391200534
0,323447525304224
0,30917032428894
0,308300591419218
0,335374265207564
0,330730492478756
0,307683235877992
0,30403691490929
0,298447931303903
0,308900140887539
0,337001804193362
0,308774185579777
0,306006528587814
0,333949458804672
0,312573904225003
0,327784104616799
0,381897618070132
0,331379737088338
0,294125646149485
0,2878147184818
0,289790234061393
0,29287591750066
0,331345071487696
0,303452568760197
0,2967991165944
0,284705233472651
0,272961920012117
0,281836977930255
0,300925761648147
0,285649068052174
0,279267428353788
0,306202528181083
0,281861757585289
0,273029758061752
0,295124458745467
0,299513520492548
0,338260835483681
0,281268532892216
0,261920069024727
0,285635988985963
0,311574305276924
0,278892661292845
0,277814629430809
0,26009650062717
0,259440219947706
0,281246912201864
0,265873415866078
0,265717123155763
0,276268609666653
0,279215498776979
0,305481769962721
0,312793312680262
0,310938058725798
0,26850228425008
0,250166749049508
0,24772200793951
0,257841984029471
0,244508306710311
0,244478698203125
0,258012263122021
0,261535245177346
0,239163021912988
0,283058488894187
0,260955373700933
0,238542330779527
0,240708854895869
0,241823217279451
0,250738952646817
0,280822282650867
0,280823702594212
0,263066854975496
0,245698792185001
0,264364189970982
0,248579157332709
0,243424115181915
0,237243765088709
0,241031386975283
0,241327708777998
0,245851483501578
0,250247841817743
0,245093770765155
0,242776873036315
0,245081032346224
0,265830505437155
0,273618206688876
0,245691910281262
0,25455426871228
0,290508830279134
0,285177201524416
0,272059149904105
0,253949838062602
0,252975275686869
0,250792489727613
0,253200592750766
0,25182658618522
0,254246117569892
0,283673822176608
0,263399777353497
0,253608546154018
0,259494550783925
0,248909711569897
0,262554407066775
0,27673026330448
0,287307507508051
0,287999324027108
0,323549199467998
0,278603503581937
0,263273187797574
0,259511179225025
0,263659330667071
0,26685576668323
0,255863700547443
0,257050504727132
0,254508633865267
0,278499696658364
0,269195180353103
0,257121901844899
0,262783233783511
0,2553148012249
0,259633689604463
0,261496447074423
0,257753074356437
0,260859100568308
0,260966877118138
0,258258573934622
0,260203244817722
0,307465976518028
0,293982584979178
0,258667693062943
0,269882329392003
0,266090508630664
0,264338308048767
0,259447012285518
0,273782429096366
0,276650378276709
0,27113645105627
0,267133508490845
0,26309388729434
0,262208943496384
0,279805401768583
0,281626383989135
0,277117819576985
0,26569050257634
0,265378019653743
0,271508418651402
0,326192868805332
0,286419233947379
0,279788900382452
0,272888919000057
0,266819317127087
0,269440625974261
0,263510706263425
0,266566638603621
0,264525088381567
0,270836990066461
0,265312004031361
0,267882045518808
0,266251709484987
0,266616999257811
0,270131532709926
0,281798755174505
0,27697976360421
0,267231625390986
0,270499843677553
0,260173839604001
0,266587719789643
0,282210511272661
0,284156527421217
0,274155012642728
0,270705922701758
0,27205324762532
0,287721105065737
0,28679238513537
0,264759270343114
0,260855329511319
0,264417809151779
0,262030883681115
0,26223106446016
0,261846381749115
0,284545773197694
0,27853150911006
0,262078633377585
0,26631240413846
0,262588613600591
0,269506947962734
0,266082011667714
0,267008785321252
0,267087171668934
0,27428808940274
0,272459311549243
0,272589901417003
0,271286560993283
0,282234645628134
0,280276398172277
0,283157668808689
0,273096526605772
0,27014879086405
0,264000071115258
0,266757921106511
0,27716781082666
0,26582036413294
0,261612607459303
0,266942297705648
0,257942513258419
0,262612599002918
0,282795149768905
0,275930362496781
0,263265248224822
0,269877898132747
0,253464966081922
0,258293745416386
0,252356488847015
0,256554772289858
0,255896147135807
0,25895961160121
0,251894978949054
0,255263563751769
0,250101067084206
0,25184837587044
0,253253022620876
0,256234956197199
0,249612597136779
0,252333868417719
0,25133962416774
0,253151964194318
0,248130928458282
0,250155223017004
0,24723894206483
0,255520060525197
0,258318879220352
0,269497810112426
0,259529673765112
0,255009211921896
0,250790026612366
0,25688297008644
0,248554026011143
0,249989860137161
0,247953270420086
0,2466472359076
0,247457822637811
0,247076569526627
0,248887986176761
0,247416179325181
0,249629299943553
0,250706131576145
0,245962003834093
0,245945448554703
0,24677278991549
0,247354132067176
0,247739859055479
0,248508350179729
0,251317716553478
0,253592831888877
0,255821736708537
0,249299967802728
0,252414118646758
0,253297124117595
0,252838330488196
0,25322451637439
0,252983834078015
0,252454697646387
0,249153842534664
0,251267043954241
0,250234533201014
0,250079563499862
0,247102069635
0,250788837972205
0,244692351250787
0,2455540213616
0,244821760330481
0,245106081852426
0,242414693317334
0,24473824859887
0,242239555101068
0,241119674259122
0,239541637124886
0,245088504296187
0,238440604413192
0,239746307727456
0,239242343338267
0,240532561163406
0,241515176833013
0,239802036459414
0,239891806604893
0,240725638598322
0,238512087959268
0,240825797679076
0,237470644663412
0,237512486411279
0,235429109887182
0,236183329125147
0,236511814582015
0,239670842325784
0,238187825105345
0,236020787919654
0,239416986380389
0,237472035302561
0,235596313587558
0,23598133027424
0,240700627888777
0,243764998815134
0,238484505952041
0,240001374175414
0,241678154768926
0,2424243223633
0,239627620489998
0,241150007571432
0,240855854214765
0,245382849247765
0,243989188351553
0,242927794771917
0,243005013858942
0,245084766101772
0,242189888327704
0,240670976569764
0,242752443865044
0,245571444890396
0,242983434803098
0,244658495866122
0,243494673658181
0,243775332665975
0,24204849834806
0,244791540453373
0,242944951650141
0,240408999479955
0,242313528613915
0,242106004469142
0,239167687805467
0,239518106086348
0,24013633160065
0,241474471071495
0,2401958851183
0,24381629975833
0,239257104408517
0,238322253546062
0,238335834153062
0,239916749016051
0,238400011109449
0,235844663977818
0,236445217068959
0,237803075068311
0,235066448469699
0,23740926383305
0,237505665034224
0,234935922422768
0,236636284612967
0,234902340460442
0,232677041088521
0,234733496641054
0,234025966022485
0,234740719602541
0,235262871034207
0,236309197715259
0,236373598322454
0,236586807415534
0,237326333363613
0,235301276189676
0,235104626774604
0,233805786469568
0,234568612575918
0,234295602678282
0,231606321926667
0,233111405571842
0,232342106801862
0,22899924995589
0,228356357616532
0,230843532049248
0,229881835842175
0,227654748116522
0,226015186176856
0,227908931181938
0,226896473973045
0,226363933526808
0,224181349078276
0,225131850393033
0,224381279218333
0,227082325850697
0,226766414942488
0,226078585819706
0,225358657492517
0,225250768010522
0,224970888165552
0,224884945232245
0,225899317093184
0,227100715594187
0,222973145415645
0,221711804272168
0,22270421820791
0,222900296058205
0,223634563656612
0,220704550388792
0,219609494989909
0,219516441150957
0,221840413093057
0,222364272405082
0,222908025138137
0,223800548926313
0,223007859071827
0,2232959313341
0,225695553334541
0,225468195017719
0,227897302132057
0,230908129025202
0,231105599042034
0,234441196283581
0,234402324487506
0,239307763913015
0,241281752466274
0,244426874040722
0,246923936643354
0,248688120854627
0,252706884993136
0,256465285430982
0,25891711892477
0,262174348134781
0,266558696692331
0,268879824019705
0,271204618513219
0,274833290061956
0,273733598422267
0,273792429968434
0,277882509296477
0,280576497314055
0,279939118199289
0,280304314463624
0,278815857226261
0,280157316374305
0,280849357297369
0,280302233723787
0,279403814203078
0,277680053503519
0,278020469698939
0,2763023299586
0,275261410462127
0,275391721776547
0,276137934833356
0,275965364957167
0,273463701016599
0,270946546060869
0,272083855340289
0,272835473731183
0,27501436271926
0,276358412367799
0,278665767765198
0,280064904043351
0,278949752842641
0,279032628041285
0,281813562042937
0,28536015470359
0,287848552722347
0,292214705553797
0,291209605084631
0,293550028111129
0,297118169377219
0,298596126698767
0,299578505381704
0,302861195532015
0,305820071810989
0,311287792769814
0,314207353841826
0,31726425336251
0,323009889894489
0,32830351375372
0,328295217184303
0,329319042758156
0,333969057175689
0,335678388035296
0,3357971383821
0,334728017530816
0,336537642109016
0,336885262578847
0,333721332261935
0,331934551052874
0,328266298344546
0,325047315431772
0,323637813358083
0,323039593202375
0,319251161844698
0,318727746908714
0,320791010810458
0,322255427078615
0,323562364541836
0,325002373919907
0,328146327585653
0,332609112661539
0,336883315469036
0,33898212583597
0,344602941434035
0,347730206312836
0,35254598479429
0,359731294841916
0,363092285588018
0,37186078683692
0,374331607992899
0,376286860893781
0,382012078278633
0,383833433546488
0,383467097207985
0,38926089818226
0,393358333335322
0,395246118897423
0,397086419786948
0,406488154624392
0,412349385286459
0,417528515470312
0,41756775876484
0,429492718685122
0,4378303107236
0,439627144107284
0,444049868695497
0,447071918412167
0,448899952334411
0,455406842183583
0,461642962971632
0,467115543341065
0,462929518228754
0,469709663667753
0,469612706842447
0,468232174759442
0,465064947614397
0,462041307361095
0,461857220014695
0,458629123068475
0,454415483900531
0,449275333565419
0,439718354245898
0,436046094212479
0,43291905203484
0,425715139546303
0,421791711062092
0,424461570517562
0,42312225358141
0,420992939547135
0,418305522326425
0,419225901686086
0,417697263161099
0,421621213490141
0,421542191041605
0,419766464125204
0,422665689448057
0,429305820646766
0,429568659230807
0,430166440353865
0,425311143245102
0,433347849011435
0,433663238726413
0,431475646560859
0,431148747887391
0,435979272413582
0,438073047696393
0,433093016481429
0,430704743341191
0,431732916759476
0,427859873621533
0,431502709464844
0,422973279391503
0,427378804504544
0,426936751733023
0,417130418482091
0,417034759320085
0,414706177029255
0,408115319849665
0,403824330038651
0,399075089050446
0,401953578954362
0,391088380253733
0,384600297545489
0,381833693134536
0,379919480205612
0,373120189291646
0,374147683140109
0,370051808517099
0,361538796509813
0,355731160776578
0,355096248813624
0,344562960097573
0,33537410123668
0,327410252023482
0,318832893628951
0,309753099717653
0,299612513541003
0,293165500711374
0,283492038453741
0,276487279196599
0,27221435866992
0,265689726673645
0,260150331449619
0,256884317746581
0,250984480884193
0,24756701782352
0,246670321246857
0,24715901178792
0,248322364699125
0,248387063909346
0,251636883198122
0,249443236588422
0,251494803470549
0,252435365458213
0,256771198989296
0,252979798898662
0,254805340588149
0,254288050732701
0,25715893753851
0,252636778476428
0,254544645235813
0,258782435734736
0,257282091751856
0,257921471812215
0,258346054079764
0,256676198638026
0,258714602454495
0,259253790956499
0,26252606567075
0,256677684439551
0,261074026972245
0,260271321181659
0,256236372022554
0,258340975994281
0,256057708046666
0,255539400383884
0,259373217693908
0,25787005397574
0,259475672234197
0,25990600702006
0,258319099351412
0,254782766882849
0,257066492375411
0,257019309319866
0,258302688370701
0,261456115052903
0,260650622854273
0,259123427972212
0,26327253065065
0,26411143202503
0,263512955904668
0,262441074169306
0,265482668033257
0,265747718309823
0,268445155049222
0,268612255617686
0,269052893599423
0,273261181925133
0,271791528838556
0,272713134208867
0,27555126471119
0,275796476508588
0,274918927850357
0,275904015969741
0,282564927662391
0,282506770464185
0,285355442837402
0,284613524403174
0,287314349367924
0,281424168628616
0,286950659218889
0,287879784556175
0,28734651691699
0,287116820529883
0,289854390213316
0,287175901613509
0,29003940749186
0,296434052028798
0,292379227628893
0,29069195129936
0,292531654058807
0,29206711605188
0,295768006098313
0,296994257054401
0,298692858132095
0,2993190396914
0,303392625910937
0,304343564650744
0,305538728308412
0,310784834256316
0,306830525797778
0,313909017862996
0,31492957226663
0,317561329946984
0,320868632141731
0,320582889321709
0,323794971752958
0,328434185601266
0,332153272660209
0,330428579841617
0,335960168264568
0,34072278467057
0,348158026080409
0,346402750344664
0,343157309773502
0,349331894408516
0,347798594723184
0,349172155018089
0,357101827299893
0,353472031672301
0,360704253220342
0,36022234422527
0,366570529481036
0,36786005752647
0,372095917223478
0,377667744386205
0,382780903526942
0,389097648358584
0,390238306024224
0,392548270753805
0,401593670594665
0,411175659097432
0,406612896581656
0,411714643784948
0,420113732394686
0,417759162627212
0,418398073500826
0,421014323421853
0,418237703336584
0,417436623405547
0,425329151136702
0,43304278669546
0,429527931339054
0,439255181659722
0,436514149907912
0,441784795245534
0,446301034015178
0,44300509505488
0,446912294637559
0,446399254790499
0,449169161226233
0,450872794829516
0,466031822001982
0,466933301770322
0,462556558896341
0,462539788666316
0,474996882017921
0,469331470796336
0,475189614197103
0,47174375058229
0,470170565315218
0,465189272205836
0,482351960724183
0,494815480650242
0,493538828198638
0,491302303524109
0,489549715125274
0,489091656772662
0,491114957575756
0,496019071657052
0,496907170239811
0,502138583058356
0,519183875958024
0,518133346731205
0,52131682254949
0,521902745613907
0,528949524830407
0,52451897022352
0,526710360332182
0,529218515117463
0,535958710206333
0,531946145426955
0,539012338548416
0,550087340450268
0,537673452405372
0,550578465311597
0,562892811577495
0,571056565449738
0,568674865759738
0,573531967433645
0,594231887649459
0,575541926038693
0,566699672989842
0,572355968532306
0,585548018919275
0,592192247133647
0,595396156510803
0,587437595547991
0,574814219947585
0,609359623216032
0,611238381880044
0,595758806555883
0,635627490739715
0,631841917132498
0,630594005728947
0,630388696351416
0,621632599082926
0,630815287717225
0,647592008436481
0,64041271264469
0,637461396453349
0,652539478351396
0,656693686972166
0,653645253599444
0,675273257834834
0,676419102615934
0,676638048422308
0,684666146711866
0,685502601300513
0,684455220034378
0,701849302141568
0,669110243437746
0,704146730046455
0,689306323004941
0,670811977116125
0,686197401644858
0,727890406093627
0,69686349125956
0,699941772888833
0,719255978984192
0,734894470745737
0,732094275136158
0,774326910578559
0,768320828676355
0,732671940585682
0,72040311874055
0,753183700014613
0,749454522879484
0,74865075317517
0,744632766434145
0,752018242297538
0,76337782475716
0,787054929329502
0,776368588503505
0,778047904736179
0,773068718275555
0,814622777134224
0,791947951426753
0,809815626407883
0,834933047383081
0,844079608762046
0,864688088554434
0,894843326305731
0,793546749544678
0,848550603950993
0,807441737939958
0,847941676819584
0,868930898686556
0,913358136601159
0,862196551647543
0,881426214957635
0,877052399905871
0,948387511051549
0,871967447100804
0,884042792658111
0,796781999785433
0,87309378465672
0,834755648088821
0,886058900067264
0,876308483967447
0,813415566580763
0,849330572836779
0,955328439045311
0,921286388052707
0,886289313423328
0,889737462394631
0,965810041769489
0,87849824884369
0,910186832930897
0,952430571263351
0,959348498390808
0,891472055107398
0,905364002873559
0,907486847895402
0,944241477920236
0,921784568929125
0,937693284653772
0,962424359831885
1,0403013953019
0,953912524664966
1,09327233337481
0,98441147275046
0,994637165243403
0,957718992611884
1,02697126071298
0,996546114532366
0,999318762439866
0,953692314838492
1,05515603429981
0,916236827721751
1,00892654836011
1,01592543934966
1,0712657433603
1,02050785131795
1,09897389976612
1,01247386563106
0,947446528203454
0,982206039989717
1,12483490799604
0,956696965710351
1,13809070774514
1,01317089306482
0,973253793515172
0,986383265804446
1,07848233060708
0,947907689866883
1,16665867744783
1,08080256290104
1,11367997255945
1,14975466496238
1,2319926376251
1,06055847585025
1,54479672875543
1,21094122631132
1,05540116572373
1,09778361099052
1,27421326230161
1,01153922363383
1,19391513003719
0,968988910905341
1,06441786826857
1,21314077088361
1,3702776718215
1,05780007131116
1,24745655138508
1,03052350858686
1,28077791697831
1,14431522737992
1,17932262108422
1,36067670205744
1,73194195341396
1,23348989475827
1,16935924948715
0,987381188706132
5
1,52930652454555
1,05385350721317
1,10882844871827
1,58754594746633
1,11359571480605
1,41223694201746
1,18934139125538
1,94240269254451
1,22512067837558
1,34557061144639
1,03320251861938
1,0829586043062
1,30078105284236
2,01187508272341
0,875070074644879
1,14530408181492
1,32271878665901
1,11790695581329
2,01711447268148
1,67173440882892
1,31906189398826
1,11264539205076
1,4442554718307
1,48368760608082
1,2025721503782
5
1,49135082661429
0,977664487311733
1,46804290485713
1,22472308865817
1,15218332928647
5
0,630619534224275
5
1,10687633600401
1,34958960592575
0,761147584124976
1,21131771113045
1,50224348058972
5
0,870030651196768
5
5
5
1,41791622184836
5
1,16267167999383
0,829452962978376
0,805179508665213
5
0,847460446233927
0,856300893376811
