3596
4000,36533379555
650,420452594757
1
2
2
0,0983067027391336
0,102769386826407
0,0968882951746277
0,101824466802166
0,102296422928424
0,102247082735063
0,100824268767458
0,100504816578786
0,0914674034080281
0,10621221839965
0,100370323945456
0,107098147332679
0,102390754512934
0,0880274682012727
0,100548097954173
0,0947320434382051
0,0860254591710166
0,104846064466798
0,0850694156211418
0,0923288924936106
0,086904800349945
0,0865818730543259
0,0979741835037472
0,100146565827136
0,0999337935429596
0,101633961983279
0,10186654842498
0,0925739996186849
0,0956595840553321
0,0974900631609448
0,0962936997866216
0,102917866084303
0,0996165453747166
0,10225252046492
0,0963197477487895
0,0904975218103838
0,0918710255892549
0,097381980134338
0,0951427767888354
0,109505310484137
0,107389135690932
0,106072071304055
0,0940214117056059
0,0952773417498509
0,101895465957308
0,104553728488363
0,106731423404544
0,095811638920515
0,0912120278789916
0,097347480673124
0,0956066201031174
0,0960835085765866
0,108122598739951
0,108135615036095
0,111621004093778
0,12292431572393
0,109671413216324
0,0994581542074181
0,0913163843510808
0,0958339919516837
0,124782125072652
0,114615495341732
0,0935036813932136
0,0928399250216264
0,0873377980009843
0,102508052485936
0,0928822321975907
0,0952683478952116
0,0939436615522698
0,108376499322862
0,088286438776911
0,124151831322257
0,110444519662862
0,109072052675169
0,100573681507365
0,102044049907379
0,0918569473107568
0,0976441826107423
0,0922536817469333
0,108953295894976
0,112297325463734
0,104476907293296
0,0964657226205499
0,0860010327256261
0,108422882049885
0,120218190755453
0,0849185193822268
0,117400971125819
0,117391459096535
0,10839811367035
0,0890043661980432
0,0946853491193859
0,0893834250803921
0,0988858204639993
0,0916050062985184
0,0921083517678838
0,0803020365459783
0,0983971081060611
0,0877976372929346
0,113452085520778
0,0976728783519158
0,133884440280806
0,137386327698969
0,111053734905213
0,158957433622015
0,105794399592185
0,109757443990615
0,15135690497108
0,123173449855641
0,103553211677447
0,0875750782203638
0,0932134201287525
0,0931362280029775
0,107231411247901
0,0796907240742832
0,144665745752005
0,126800209802774
0,108057989368553
0,0945269537363728
0,102905367397805
0,0770071816374204
0,165696022701063
0,129970248637135
0,101115858439189
0,112920431531455
0,0970302714454433
0,0911685419720885
0,159541044585988
0,124744124119635
0,0948518471080334
0,0810156318961934
0,0952658689385721
0,0826536406025375
0,103135522461204
0,145990016989308
0,105935555286236
0,104637181709156
0,0896907024136761
0,145580805359996
0,165203014547117
0,108796932639389
0,0989929735905985
0,0776642594075982
0,10692082943212
0,144054477549314
0,115411536495178
0,0862766443264607
0,128481548932865
0,0974763313052491
0,0895079105664833
0,088104531931804
0,0930852878267649
0,115797977677195
0,11223973736954
0,0569810438134314
0,209132942402089
0,163149486780339
0,149991736340409
0,161364152024984
0,105244910615724
0,113864228577535
0,0895407728876693
0,0956707073562777
0,0837298468450265
0,0940465453470856
0,0822571589397398
0,126697839859913
0,130108795775079
0,0872268929920469
0,114056598562103
0,135657265415815
0,120843243988306
0,0944244125075456
0,191108403128079
0,0959860718495004
0,0997733362826844
0,135021767475254
0,109829739072229
0,0776544141326514
0,114754757741039
0,127762523425692
0,101641492637428
0,0880445102981734
0,0912011026492499
0,102865834939043
0,124029000251732
0,0943202898500068
0,103981475945701
0,0919038122687455
0,0805304952065337
0,133734748657151
0,186172966538243
0,122066597483303
0,102016652580428
0,10081965700607
0,0752055377094855
0,158880184836483
0,134664659791501
0,0991902632685832
0,0917718617913347
0,0815152409963978
0,0902260160941291
0,0797297486849825
0,089110141870068
0,0793701699610321
0,074923149940816
0,154324929342086
0,106858390812157
0,0974294863529933
0,0934588684471804
0,102038020078497
0,103815120132697
0,175823316892397
0,133268721218892
0,0977959725662295
0,0937939261644341
0,0859861805927849
0,124367751865227
0,12003922286704
0,0939871114836523
0,0848351393526099
0,0801683864536435
0,0900136449366292
0,0887613007789204
0,088632128575763
0,0873654142133644
0,0834015724621749
0,0955694119466351
0,0899152576229176
0,0962887035726846
0,108072427859395
0,0962965634159811
0,0871209190036812
0,101607566966227
0,0785131874379936
0,114838468490316
0,113184079273261
0,102501014400204
0,094824813280147
0,0901653051684207
0,0828422174360496
0,0848479122950186
0,0887754045514494
0,0923435174128878
0,0876819712931875
0,10118361206015
0,149669400003663
0,0975434907762337
0,0956360041196321
0,0787588763448919
0,1348864091255
0,100927641271358
0,095688919114522
0,0900752523163584
0,10526801433519
0,0720978726094018
0,104730998115157
0,149857771726363
0,102156613923868
0,0873254525783374
0,121318785340682
0,107646579185697
0,0981409744955137
0,0940039455329898
0,0896173952797281
0,209205144273903
0,116397008876047
0,110507533111016
0,173889465967734
0,124068470736491
0,122720926090341
0,0977074000041811
0,0925143627013685
0,286494735110754
0,155862632904453
0,0994106075166979
0,107157006387206
0,130466941100212
0,0959883385847248
0,125510074326451
0,10353252459287
0,131979244667982
0,1355909289383
0,205959372837175
0,193278046478423
0,0823880659731732
0,160848230152818
0,124894110364824
0,107948037574676
0,0929637205259975
0,0956425939582512
0,0869225841977538
0,131045853889489
0,122510371405424
0,133117191241327
0,10570372284192
0,113364837868399
0,143075370311477
0,10865823387378
0,0967811202436702
0,109262687237403
0,112665069900418
0,09712086388842
0,106536773081531
0,0957187283734109
0,120070327024682
0,0940105015472121
0,119478021637097
0,179027137263564
0,126963516211125
0,119230481536587
0,142722612265085
0,103917115556119
0,107465756602236
0,0952337173920463
0,104723954756801
0,0933055180464608
0,0895389855221047
0,0903599560286368
0,153443879589286
0,105860478307124
0,107992433434945
0,0987968158879096
0,105811278325247
0,0979098472490734
0,109221852036594
0,101559619927519
0,107443950464041
0,104619201455877
0,0942626943493749
0,1459225700676
0,153128207778227
0,0897903011867775
0,191428066257204
0,13600175642852
0,12857381951415
0,102023542423116
0,106003524323098
0,112275957709784
0,0965979039585528
0,112774349353826
0,110378829389556
0,117321337102015
0,143861995739809
0,133895249176258
0,127324378868808
0,121627682058507
0,218347278410984
0,21585386526377
0,140048809594395
0,127237885920999
0,10187353067195
0,204785698313149
0,165335680767637
0,169845840587789
0,157050264710083
0,118830652906472
0,141296962750144
0,117450667939171
0,133016809873566
0,122778237742393
0,142773087436069
0,121906470263092
0,139616831564233
0,127905599811322
0,160291123092392
0,128264160734082
0,173992171950265
0,1926270260887
0,157322963585858
0,141313779752803
0,149385552000615
0,134512010871406
0,207562839792077
0,18509063295901
0,257639579498948
0,17989987640667
0,238964987712367
0,226400246646502
0,173856548966474
0,17288997926182
0,154581861539633
0,168642824529591
0,171450720273947
0,173744020277494
0,173151368143487
0,172036626946028
0,1892644240074
0,18696654344003
0,185376433624281
0,184931391252403
0,183945274639726
0,219860715304838
0,184406288934475
0,204756806898711
0,190248052221454
0,234574878527405
0,271462843841132
0,276895762664318
0,212842336942478
0,224678767188261
0,202749551645136
0,207628627750838
0,208154806490232
0,208408455004928
0,225180213136932
0,228333396599652
0,278343554339573
0,253492599269423
0,28464635642149
0,248738175598294
0,212118551195291
0,269423094542742
0,257372264230455
0,267845452614693
0,275898938918351
0,247808261150788
0,237925698015082
0,29684673150917
0,281447920576103
0,272702365155711
0,298722941480406
0,257324696632552
0,266059274751016
0,259771556696584
0,282945175810502
0,27356516769507
0,30547704695826
0,290497262089598
0,294438283127518
0,291691863875343
0,298522184092723
0,294027199769895
0,347473456943208
0,295246565749136
0,336172339077134
0,313124282579067
0,30344741607761
0,329192284680428
0,299330353710048
0,363515178448585
0,356128003157526
0,36620269036204
0,391631050052208
0,324391376780367
0,359444967954778
0,347571950197884
0,350834109205767
0,334584153341978
0,356598464436814
0,345339311783083
0,365134952167942
0,358115865295468
0,372058593407962
0,352026231475692
0,383819346472536
0,365933445427222
0,3791903926434
0,376569315699137
0,388554421690677
0,389116969613638
0,387288200749904
0,445878195798861
0,494666345438519
0,455811823845125
0,477124695823734
0,410714827709344
0,436120367848807
0,427847863893196
0,444161490995266
0,412951882613801
0,447544113979624
0,434644388961116
0,462337148251549
0,441689259624589
0,472141149155056
0,439806626623241
0,476360811318961
0,44163915320516
0,512836030633765
0,484329867709601
0,494588941795195
0,478479997377892
0,484816421269117
0,470940198852795
0,518416933742769
0,507819075270902
0,561778926883941
0,520461120246191
0,540543703519533
0,507333316687797
0,547209580087338
0,515236911560747
0,54109052034082
0,53077784627261
0,553827242456554
0,552279458380273
0,576111504525565
0,547987330728876
0,578702393931907
0,562562863556817
0,586705694002282
0,561109192303826
0,62302624365148
0,603954250921128
0,610398536313373
0,582955984977522
0,636755153210517
0,58164906771749
0,608985375801089
0,611340952912094
0,646986963116304
0,595068797861929
0,660424854730079
0,602094481470285
0,67604801368243
0,635659662279146
0,677578346274214
0,634938535312398
0,691546243237421
0,650892879665991
0,705032661554994
0,660430055463771
0,727530351099792
0,668863424624006
0,761278684117334
0,687864663362686
0,740658121048937
0,679119702215684
0,725231445410308
0,705418785916151
0,71176995669637
0,708686568568413
0,762974633904319
0,7486041099647
0,78357597863391
0,741462937167851
0,745801555738382
0,720841442198901
0,850781862781554
0,745604744963422
0,778357868415406
0,777409073714213
0,811220002254916
0,807015082488367
0,828683840516637
0,844363350758828
0,84768752706423
0,805717454094682
0,829014721598445
0,736016959919127
0,861950776335912
0,846112274692312
0,884286849114645
0,761343637021009
0,87688305966046
0,875370254240438
0,881785023706999
0,871914019883116
0,914187213996906
0,85909981107934
0,909633101613237
0,859905277801342
0,936301569346903
0,946188725049927
0,943863962899329
0,844651716915498
0,920895252528714
0,87490533816686
0,924760889390431
0,882852439551507
0,931117442615744
0,919930662964902
0,951768692079273
0,915048927172526
1,01622681523763
0,935834141007487
0,969626127084493
0,998837242278372
1,048695149638
0,959546539308616
1,08430596625087
0,956474773689528
1,08520264506002
0,977547558558423
1,01755024395828
0,9538572756451
1,01465863776398
1,01343022020022
1,08902492611869
1,01165400319917
1,04204895291358
1,01438244542033
1,02701916216368
1,06866671870617
1,0696516277796
1,00912068933535
1,16898323793474
1,04641392205739
1,18689126275392
1,02182069106029
1,06358498519439
0,989539016364574
1,07576331412461
1,08094547086682
1,13222113199417
1,05081893688374
1,2220056123059
1,098938165843
1,17434445908076
1,11807528558326
1,21463080800381
1,13613772451107
1,23854473597025
1,17203415084958
1,1638683890234
1,15281706778837
1,18021172348538
1,21878384590995
1,21637518845249
1,1602160031828
1,25515867506992
1,14256825135949
1,31456031927167
1,08147612923984
1,14686002781231
1,12356111501765
1,28387019958518
1,18300903003942
1,2421402306236
1,21676318501386
1,24490462925968
1,11115928432887
1,21753272458911
1,08476471574114
1,25904357310751
1,22807903052691
1,27877693685029
1,16449363080342
1,26104235190383
1,23557419073764
1,31942665945589
1,1704203358999
1,26091929347388
1,32138042710872
1,40969385232696
1,33004789410158
1,37091416512479
1,23115008874672
1,46360237022422
1,23961720909199
1,39010970089785
1,20892162698086
1,47253789738749
1,40797396192926
1,38340751672211
1,31071879399226
1,33038002484187
1,31418332164071
1,43794939262717
1,36445709331634
1,32148089845749
1,18497689260135
1,21056787434821
1,24827913794074
1,35826002438407
1,26562093167441
1,41750088746879
1,41115533085373
1,3915632175699
1,28700884227394
1,32128349008866
1,29092345866748
1,43481894576785
1,38473371458797
1,38988931182048
1,40427968970038
1,49618111624217
1,30255059613953
1,50274752269373
1,41620910042505
1,54023887858534
1,30451442242225
1,4973736648453
1,3648824469522
1,35452330354585
1,43206013686098
1,4519831689871
1,33274014423298
1,40292240944745
1,46741496473371
1,52138799456424
1,38094812435308
1,53719870022403
1,39650603272892
1,39963304994278
1,34124069573916
1,58792396884862
1,35313113511093
1,43127851372961
1,34611488777177
1,41404701268549
1,38517294020779
1,45122355668526
1,31736775349484
1,50728218594583
1,35886585566345
1,46855843252205
1,32298641700799
1,56714523890091
1,39595949317902
1,43645306821967
1,53818192482484
1,56732210716104
1,49154746266861
1,664408228175
1,36036009369358
1,66111874731853
1,37421234331356
1,64797328173647
1,63147130619781
1,43617563814622
1,40608087178605
1,54455291622822
1,52165525928955
1,54227669456166
1,52689390764895
1,8015241925035
1,37883989844821
1,38385745526938
1,49624533088837
1,51873564142626
1,52185101112391
1,5391967233318
1,31303307901859
1,56413525730371
1,37954989013111
1,46101190611306
1,52176631632668
1,48635959951898
1,42113800594092
1,34708399233759
1,41427188921369
1,61099585366633
1,53560790178423
1,52178130635668
1,36270775352764
1,43124107641957
1,53005898025492
1,43613074660908
1,55501464730666
1,58403095428151
1,48574528943506
1,66535454086567
1,34633676425703
1,4641589070521
1,49858305993761
1,54065013182159
1,38132802792795
1,41760157064972
1,38425449740579
1,53728169319042
1,54078379885984
1,62221159732406
1,46048760450784
1,50583287362639
1,45723308275038
1,58039181467805
1,47939145635383
1,42766753265557
1,40511572983827
1,48921005249147
1,35620874769435
1,46419264585296
1,48410404911017
1,57075926904988
1,40104250454739
1,49797215855001
1,48775760691859
1,49844972328153
1,50819415803291
1,55672200143067
1,49129276409693
1,42414184843534
1,44285641081861
1,43371189102632
1,42677037958739
1,4729554245335
1,37557269487615
1,44579057225945
1,45981042411917
1,45636916669382
1,43772423393097
1,40380574136865
1,40050466235731
1,52108262750028
1,3452110937192
1,42180254513512
1,46650109927331
1,43797334669146
1,47762606917359
1,71391635485467
1,52148359793293
1,49562673671451
1,29612099691128
1,34809520350008
1,45216563410341
1,50776362578658
1,30830508620429
1,32039839021918
1,42840567158873
1,43851883345498
1,4055951704053
1,37958128653627
1,31712922143563
1,37523067248813
1,36150305038767
1,42831562178869
1,31814697871899
1,29274659276573
1,32175133210191
1,37830698428284
1,24117666668498
1,39645558803364
1,38953539878804
1,44229944032542
1,38607893658398
1,36783761945912
1,31212234477917
1,40409768770923
1,32206124012793
1,37555665418812
1,2818770367216
1,27925965447206
1,35395469121842
1,43413410953778
1,27206171177338
1,29359138436036
1,27125066659172
1,29070696656458
1,25777932563361
1,26338910542281
1,30988300412065
1,32156259518631
1,3139186054605
1,36280440372372
1,28774550530088
1,28982407194942
1,32580313940498
1,32779482466463
1,23707557962558
1,26901863204895
1,1991009361922
1,26998626873929
1,29235780761894
1,23180600803669
1,19920229141726
1,23517939350124
1,24497201039177
1,24621160515924
1,2273349488432
1,25069106041717
1,21912727378202
1,27014242956012
1,21957492971173
1,26138385987338
1,19235425691312
1,21580320559608
1,18207728512362
1,12515284669194
1,19714512700067
1,16345434707997
1,1672592212733
1,16064693719862
1,14822032997121
1,17800615740857
1,1128864730232
1,11514157472609
1,11203759125911
1,17489946630928
1,14957360217912
1,12392211377585
1,09848168912047
1,11053209039631
1,12874338994985
1,10838982225352
1,08157902909993
1,10722019835699
1,08111213620215
1,10216712166631
1,07108311226408
1,09325990445735
1,11334493617863
1,1105999310066
1,05616746639299
1,05863359282057
1,04416699209391
1,04095194408199
1,05014975561095
1,03009944976303
1,01989448535705
1,06776288457462
1,08610578486136
1,0333523127855
1,01051261629373
1,04274484444277
1,01292944695334
1,01460811015448
1,00043517234004
1,01153613330038
1,01003637102371
1,02109623001631
1,00886121099194
0,976219616692832
0,962075761338502
0,983417277688094
0,955903819373556
0,984347977216714
0,980059775207401
0,96142371597878
0,939011960483616
0,932312000946025
0,942512475055686
0,948934751771262
0,944639010869871
0,95224106746213
0,943992067612639
0,912688417293905
0,919365721238287
0,923644905583179
0,907185616321965
0,907594634011609
0,905712615440295
0,89700852488946
0,884754974567938
0,878253881038613
0,870728145687279
0,876469130479392
0,872832315873234
0,859003659140237
0,859387053655176
0,877598979370096
0,845995937599897
0,853466853900594
0,858243999541666
0,849470240473397
0,837181745277718
0,830890411285261
0,831172647567665
0,829314647351115
0,83532770376255
0,832761022057132
0,824624732908017
0,822600344705826
0,810529920501814
0,807292987554911
0,794191269999783
0,801271700500173
0,786641398086651
0,773818111962802
0,778497374048867
0,779763748900371
0,781577967119822
0,786989815863457
0,791887159181499
0,766915607160145
0,768805779308592
0,754998433647937
0,741872098020628
0,761203093863606
0,761981218349094
0,743649854675268
0,733996663886693
0,756979136251438
0,751134084631396
0,738781672652973
0,736423581772194
0,721324701046071
0,717351682986583
0,734019545093592
0,723082318172076
0,711206146544067
0,728690733238205
0,716735883323017
0,692413215156993
0,698024627844165
0,706453125791886
0,712074345442337
0,689640227095589
0,685760706241896
0,684814472405955
0,672734101219482
0,673301841486785
0,688311074643544
0,682073762319011
0,668821282504213
0,673642431648141
0,664029067422087
0,65576719082575
0,658539078626436
0,655207737896081
0,654391948352556
0,656012502844922
0,646256142996814
0,642085169370934
0,634618306125293
0,638571729550531
0,633782485726999
0,628343801937601
0,623949888764162
0,627391344614597
0,619324204582246
0,620355964840741
0,612892900317128
0,61227795446776
0,605966259289638
0,59862696764501
0,596645041096733
0,594733229884424
0,590236190441246
0,599368218757666
0,589780213528585
0,584879900573894
0,584613581027654
0,578086432276613
0,583431678121408
0,5839693005852
0,57446374460153
0,578752984928833
0,57013007836346
0,558167371129475
0,565508743370066
0,561152587605322
0,549060782185976
0,55011972561886
0,558615335585857
0,556456921164827
0,534216003958603
0,54477835635991
0,549261285034644
0,539514936680925
0,536379758852127
0,535071718947859
0,529286216448952
0,522069873183134
0,519937930285391
0,521838305201295
0,519717909609223
0,521994245046695
0,510616966332419
0,506347053289613
0,500455429409109
0,510227278188046
0,507097781824964
0,501034162805552
0,493964354656691
0,493470954277056
0,493884622312248
0,496788577849922
0,493141131242014
0,494865420835181
0,49552846548515
0,497747921109168
0,483706254267316
0,480201041998479
0,479826094975167
0,484032072536433
0,475548481329241
0,47534762893212
0,477211963456901
0,475567716285699
0,469589085564404
0,465403630576811
0,474897009668128
0,479147701454915
0,469690949700036
0,470134850977667
0,461221836141662
0,471933606811644
0,475816193114613
0,467397138025818
0,46450895894258
0,467915089396445
0,467936338780851
0,483750452194814
0,478363693947732
0,476356611477077
0,475659584089258
0,474833993447563
0,471500338234736
0,470807604032025
0,479274106153137
0,483555413609051
0,473878353507948
0,484733755025688
0,483651491070399
0,485627656635029
0,484851930710486
0,493155991533612
0,486010904405704
0,497302326455873
0,493575348347383
0,497156276984235
0,503734885057318
0,51185885686699
0,505261873860381
0,508739152392607
0,50511136675444
0,506691684867938
0,511413958852467
0,519175477534571
0,520286594462701
0,527982660527453
0,525304713498027
0,52726665756988
0,528620588157593
0,531135076133912
0,526682172456995
0,533809413312766
0,541749444086041
0,53735911170362
0,541919450782215
0,551385624548679
0,545393027593544
0,554554022873627
0,568088633472882
0,565594293111161
0,556187806147726
0,565257977230943
0,561147822777737
0,573392233796437
0,582458527860302
0,585201633333943
0,580462681790965
0,591332749305487
0,599318194951915
0,590482879712598
0,586499749119245
0,617085001809679
0,616731053727963
0,613954610604302
0,605513025286582
0,617137673743363
0,618336177793373
0,626467390573221
0,624846802507074
0,628569974681996
0,625149986091802
0,63035445452011
0,630867631595388
0,631957389246735
0,650397672423747
0,646071049449383
0,637634234065887
0,64887113428671
0,635181535753642
0,643588855579455
0,635228937601804
0,635031762497284
0,625379861033355
0,637438234987027
0,633631511015738
0,625450344338417
0,61885876094748
0,632801367545126
0,622314769752567
0,624259582745241
0,619830829583846
0,628883869706491
0,631413477528291
0,636799908523879
0,635948625435905
0,615297979574132
0,61929021848348
0,630141220118225
0,632542037478698
0,641467460936774
0,617750223376632
0,616486926467022
0,623647207452321
0,637756442764515
0,614473189091611
0,632176493492225
0,633499658493393
0,632989097096943
0,619913721836185
0,625405595780668
0,621473441283792
0,636403661103178
0,626454826667555
0,633647738175385
0,619963014594837
0,631385132115309
0,631448478698036
0,633451209959149
0,634763635983002
0,621701354065519
0,625336700131187
0,645341360543381
0,621780845453374
0,618378691818905
0,623389420409138
0,619685108286023
0,61667777075858
0,625906492991667
0,611709285685694
0,626220552100625
0,61940656012854
0,619038096605679
0,607274369194012
0,611634478499363
0,604133671339613
0,603370410257066
0,598570264707489
0,595584626127249
0,592994189911696
0,589195417875971
0,577166304105438
0,586491577552315
0,57741416936209
0,575321445821174
0,572040531771184
0,567353273384206
0,556631979143081
0,572771521096349
0,554490181686132
0,550617969484755
0,542145568434478
0,546972921812746
0,540569211643944
0,533568998163635
0,525497010550705
0,534290854982332
0,514988427438228
0,518266199290773
0,507210177725053
0,510045609765958
0,495005465744566
0,500267812684435
0,496446420734948
0,502154448854009
0,48827380235808
0,48443927858198
0,485359361386141
0,484408696239428
0,474415516946112
0,469926274181847
0,465609174283564
0,477732854484753
0,466214858917032
0,462920309656229
0,461012041294289
0,466915796906823
0,460545611339144
0,462732909246472
0,445435485359841
0,44859370597092
0,451200031871011
0,445024627619875
0,440974480782718
0,443595826178632
0,432283624991173
0,430363866779016
0,427584518127452
0,438724407096222
0,428633250519311
0,428134683442928
0,420214534750571
0,422819894901431
0,417866648859261
0,425713556944034
0,417647827922834
0,418297893767452
0,415410819494857
0,411643845617066
0,409264454083096
0,409383305260496
0,396907833393162
0,403874815606179
0,400571371746286
0,410744105468579
0,395836141142664
0,398051662537024
0,396297216947829
0,395785061019059
0,391883571345065
0,400786541218231
0,387486161467073
0,388049736660347
0,386021731342528
0,385973842565271
0,383431909533854
0,382795163857228
0,376819845662658
0,383012212071945
0,378463631896111
0,374720243854844
0,370617392948861
0,380597183006678
0,371833715241521
0,373180275328428
0,369276476830725
0,374037819918413
0,368852156735994
0,368731903260948
0,363706503498765
0,364457965887151
0,352961275054377
0,365330530889373
0,358327157988948
0,359273807633969
0,355300892373175
0,359814451379863
0,356671298647267
0,361456575158385
0,349125228236799
0,353776317191086
0,349838276478081
0,355425145003081
0,347339321842281
0,349820037507949
0,346431020328139
0,350365766065848
0,347507978676446
0,349627029083369
0,343469538631748
0,342573539014053
0,336948295705651
0,340598604483231
0,344213909161882
0,342071936902459
0,335767290217947
0,338096784289252
0,334149360263929
0,340822852651677
0,333907202148638
0,333184255591556
0,336775831277392
0,33791249430355
0,328774543695998
0,329008056337349
0,329474428699977
0,325714234370743
0,330465116482239
0,333014447248311
0,329661093778905
0,32631687222602
0,324708242223137
0,326920313181954
0,321903012645864
0,326855738380564
0,315389903308698
0,324670785778826
0,321573559257031
0,32090778950397
0,321183529086549
0,324732778210106
0,322665233489674
0,318044752132712
0,315800615085599
0,325102411375664
0,316689613514039
0,318259383624708
0,317951619167131
0,322591372780226
0,314256055706471
0,324488895250621
0,315918114213014
0,320268509115831
0,314774314526557
0,316695101699225
0,31308908594928
0,316612309730549
0,313978279931902
0,316639553892079
0,309916419756133
0,312917292381717
0,31009598295226
0,307490902236828
0,30234589124478
0,310578090505222
0,301068319334067
0,309999657837635
0,301996256489177
0,307296742234324
0,298822697073158
0,307288037122322
0,304458792839765
0,304560932360071
0,302423483015385
0,301224961111925
0,299683743332881
0,30043783906464
0,295259328576251
0,29976535841302
0,296252351469149
0,294656841895629
0,294149166725428
0,294212692367229
0,28994158706993
0,292311540163084
0,294824376915866
0,294424801759212
0,288350503894036
0,290907868377039
0,288761588460183
0,291331747984747
0,279036312328795
0,290183871985282
0,283533280742055
0,286963347639654
0,28515070763978
0,279219865566262
0,28170516758767
0,282518661871366
0,277480029777279
0,282523667882561
0,276734582626773
0,279878955082048
0,273437244436683
0,275450589831332
0,274753767396349
0,274473700247931
0,270273996064201
0,274120312593768
0,267493623449893
0,271459554439617
0,272472606455506
0,275031583494807
0,265191268393471
0,269669072730726
0,265408103423406
0,267463002827522
0,265346355151393
0,267137701720869
0,26305092784966
0,26195383086213
0,258030058329708
0,263124269546893
0,256576312029855
0,260047601767424
0,254847788675509
0,256400126206718
0,251419481407998
0,258324573314812
0,25208761809274
0,253829990314006
0,252796454667905
0,254154910199037
0,25251461136199
0,249918444023511
0,245920339967046
0,247957914552959
0,244185318855141
0,243388743764944
0,243615336704449
0,243715324629829
0,234865314360384
0,239881906817224
0,23848947209047
0,238480953547692
0,233250602372789
0,233956964609283
0,231921520726761
0,234655026797161
0,232034453892438
0,236507845030404
0,230084773482226
0,230732835414999
0,221407486335599
0,228425839425274
0,223313315032217
0,225107897862499
0,226176102320994
0,227085131107518
0,220708197119549
0,223958849335336
0,227403299564669
0,223699062493799
0,216488601664027
0,216180070787012
0,216470407047713
0,219301217821154
0,218015011139283
0,219747589965253
0,212983707974689
0,218340618926273
0,21278673550686
0,21605193795874
0,209414666442307
0,21537808032885
0,213242093945397
0,216248832920462
0,214110239199693
0,212459486460785
0,21283202171475
0,210929586625644
0,207281158085013
0,202810722673869
0,205961727849013
0,207130326333536
0,20496547697419
0,208624968609871
0,201009181299209
0,204082511903598
0,200104226535198
0,203799070445924
0,202592212628443
0,198299627252093
0,20013332884285
0,19915064698696
0,195993461206879
0,20235266434614
0,194843360858895
0,201103927712013
0,199290885396883
0,197383162311735
0,19673733417307
0,194027778062077
0,194156993940298
0,189601342367237
0,191917879040987
0,193432993502314
0,189745975943232
0,190951168239362
0,192014599443093
0,193330431364921
0,187294912674173
0,187722856571195
0,185841138120629
0,189648019044913
0,187011799995062
0,187766174070588
0,185741466268248
0,188562696436667
0,185460045374683
0,189433039779616
0,183980943511603
0,185202984832233
0,182379352689526
0,185887769917277
0,181007506524147
0,182127844721854
0,181556274958371
0,188686981276968
0,178257798897586
0,183790767008483
0,182263455897339
0,184628321112382
0,178226187213961
0,18010717485784
0,177324196683019
0,180935155424118
0,181089118939167
0,180085415179683
0,177816496501057
0,178952190108341
0,177247824919218
0,179168509930344
0,180156532590772
0,178184393397127
0,176191895657669
0,179535994726181
0,177843320974762
0,180284773848457
0,178425999939111
0,174414454278885
0,174829675645084
0,177645537349184
0,17402402483281
0,178185430305377
0,175628088736884
0,171910578561596
0,167390288180298
0,173063042260306
0,170803059820901
0,172468973591183
0,17280519456932
0,17412935775474
0,16938491637906
0,170684357244361
0,16800615325192
0,171868734442389
0,166020061022045
0,171123999127684
0,165170903660982
0,16654965770684
0,166634432991805
0,167810595730547
0,167990647740368
0,168750051061173
0,166118011195808
0,167830170665116
0,164049020657847
0,16527137267234
0,163425836394952
0,162093463618955
0,161166379072143
0,160990256626936
0,161314751604976
0,164457350403033
0,163969989466493
0,159855173459031
0,164204495701963
0,163674952828379
0,156476169284251
0,16434225596507
0,162847349397641
0,161912430024096
0,163438499050933
0,162613770672108
0,15952359286178
0,158969299556193
0,158636646320182
0,159542559773986
0,155453097897476
0,155873484880823
0,15795061839281
0,15914195773287
0,155261963620451
0,155387828343665
0,157182047215898
0,15442585289028
0,153742027227294
0,15536276948926
0,154281720193563
0,155263570318301
0,152272452027335
0,153349261294937
0,152129229034534
0,152094022682199
0,151727890047927
0,150333609102527
0,150110819480985
0,152020815045451
0,145836801731532
0,14718321686208
0,143353876866052
0,144697484004852
0,148041975187795
0,147042001849346
0,142458852310679
0,142888330070871
0,145329750983924
0,145214041090444
0,142589106152115
0,140483078707128
0,139198604091904
0,141413209432037
0,143980135010297
0,143343598893447
0,13999176799766
0,141294532418183
0,13778338555208
0,138227943199734
0,13726353897572
0,138551171302446
0,136003623909305
0,135122139803783
0,134390930584694
0,137837177468239
0,135893213581322
0,134697659753003
0,132870690708927
0,134655998640049
0,133238077462031
0,133533889753981
0,134236302224598
0,132602880254097
0,132701627505607
0,130255717110928
0,132626600007307
0,129684272864028
0,131743248875123
0,130166341044649
0,129810354440233
0,131150786769287
0,128894536583053
0,129829216090712
0,127558374512583
0,126339059274338
0,123293301296366
0,124622577939791
0,127649331915914
0,123847915754487
0,126739602154576
0,125553268435204
0,124797521287648
0,127944998806371
0,124281639373052
0,12555624920908
0,123344182786202
0,125184114247076
0,126595866742944
0,121584043472057
0,122543655133772
0,124152986484598
0,12019012449913
0,119794810029691
0,120149161644525
0,120756564132563
0,116335119867315
0,118622458481213
0,118928245494861
0,119319507795999
0,115524155075943
0,117081669843542
0,117546513651606
0,114997375501476
0,115968966976436
0,112018339826786
0,114875250286343
0,115162062000983
0,11145748773122
0,114246719175146
0,116045380065242
0,116289421972592
0,111590864152718
0,110130392845475
0,113877178379904
0,112120452854839
0,111923265742552
0,112539268229143
0,110794670642729
0,111324362992909
0,109214891908887
0,109807298910012
0,111515548394604
0,108949953131274
0,109802885789012
0,10845252330651
0,109193059493315
0,107084916680899
0,109688616653494
0,111625583938546
0,113322690635876
0,11043762488482
0,114023562504423
0,112733536102982
0,112960013086529
0,110843955065054
0,114617298342839
0,118141896976787
0,117561216203277
0,116523577833648
0,117419871673917
0,114060884149899
0,116713586057977
0,110428777284973
0,102879795618972
0,106264475662863
0,115650139211627
0,114203268696685
0,114965454136851
0,10036153421077
0,105802467891128
0,113229743345808
0,110276497913625
0,103470424513261
0,113295398900775
0,109609255959735
0,106460185530217
0,106877698747132
0,103559280252422
0,106961709551572
0,110533022074931
0,105947580677342
0,111338636614026
0,10161720896965
0,112842159596599
0,110507751835309
0,105638292302149
0,0986138187987364
0,112605133981493
0,0995550307945362
0,114026909418042
0,0973905155978144
0,112406817724768
0,0977666855915238
0,1106931657514
0,0948131850296521
0,115599636333012
0,0950001441728882
0,114327445508443
0,0891629594004443
0,114805535390372
0,0825994625681886
0,111725886647331
0,0848335726782727
0,125674713328037
0,0824219824876215
0,133430105303737
0,0781666468598943
0,119475112892646
0,0807712990288368
0,131201610873503
0,0870933138144934
0,13043258901025
0,0778677124468584
0,129230796196067
0,0889318846271871
0,125410864613432
0,0879337310372675
0,11800580042954
0,104900804997952
0,100977266029248
0,110347011884535
0,0966762077264015
0,117046457744359
0,0893040378545995
0,124430211833041
0,0841534855520632
0,120118655495596
0,0885082614501197
0,113860358517847
0,091990429017404
0,109703772257997
0,0995916780088768
0,101981347822013
0,101316078366487
0,0986206288742187
0,101289865264463
0,0967622908739888
0,0935179736473908
0,100323620317826
0,0906006674343374
0,10476863075073
0,0918925961679541
0,096062433697837
0,0932383248119807
0,096928326108827
0,092804105879226
0,0971482706491967
0,0917729410805183
0,0969209507113145
0,0927882153492554
0,0942443177585393
0,0918261061112968
0,0968604719485259
0,0936829248781836
0,0938048815024557
0,0897238208861453
0,0930255770352456
0,0903775523383557
0,0956573338845125
0,0896384566869445
0,0957523167969989
0,0919498192653482
0,0956986439028184
0,093408740882157
0,0937108473565854
0,0931986982579805
0,0951145039751828
0,0923569566985577
0,0949387321507595
0,0912041992952311
0,096185631506582
0,0925877805722646
0,0930256298999013
0,0924644065794566
0,0951350095790122
0,0944798375501094
0,0946500985940152
0,0922196319426558
0,0940357140050045
0,0932511861595308
0,093866095118563
0,091725682817118
0,0952306806127997
0,0916324777355695
0,0942128542169942
0,0898092280202082
0,0942438517083614
0,0930133056488751
0,0932016295134838
0,0883910390807279
0,0936556960006354
0,090918558004082
0,0934677413164834
0,0932383573597455
0,0957052726761716
0,0895271543216567
0,0934655188438702
0,0914381678076876
0,0913415485372203
0,0917543323522292
0,0927019727581391
0,0903944815822792
0,0928985289660297
0,0905213873971678
0,0919797208367075
0,0885872472550435
0,0923189360513971
0,0899839505708345
0,0912765521239788
0,0917323906318353
0,0904185914111503
0,089915697969008
0,0937731002198759
0,0916449261345997
0,0934443884392772
0,0900158372166768
0,09289783478917
0,0928977477641244
0,0927416352327383
0,089949725996013
0,0931374870139055
0,0924852925481381
0,0932592026568835
0,0920521916305604
0,0932701185946972
0,0942548472046805
0,0950120232486975
0,0918917687200819
0,0945371590569661
0,0940367506178435
0,0935021616274252
0,0922240262657332
0,0942671263703533
0,0897633659644588
0,094172610012361
0,0941599959712252
0,0928261999533787
0,0933007719056082
0,0931180588859345
0,0933688289292445
0,0973376446332328
0,0936640969998136
0,0951547192164473
0,0922880669258974
0,0940703685418559
0,0941647393208497
0,0948023072904794
0,0937208439078676
0,0954110716342137
0,0919424596382402
0,0928001326709419
0,0932528756823298
0,0944019511250582
0,0943414372752246
0,0958061494812071
0,0948308060478638
0,0946558683530357
0,0948201300879937
0,0955334997572756
0,0944438094712811
0,0951409221782062
0,0955691197428485
0,0949192917388854
0,0939243737011057
0,0962879782049327
0,093383462863138
0,0960005202350121
0,0937614313708118
0,0941024839946449
0,093691219719056
0,0968018487717262
0,0950449123366934
0,0944257865434001
0,0935864982508463
0,0964024294659981
0,0976959630501539
0,0953352937092278
0,0949356652263014
0,0950376882638114
0,0947305308616925
0,10031347002379
0,0954988314339755
0,0950081274545477
0,0953931678040782
0,0963624405796639
0,0967697781207745
0,0966632761419032
0,0972378598563622
0,0986320884784589
0,0961951816418916
0,0977346382707547
0,0959879258978368
0,0973677532355258
0,0980856198313321
0,0993271199228393
0,097867297822299
0,0990602429889459
0,0964673830533281
0,0983432437485432
0,0980919035756212
0,0978783295297834
0,0974835390103167
0,0962565063160628
0,0967531825545222
0,100160135139147
0,0962847567304366
0,0979591338803794
0,0941291480692345
0,0962105216337606
0,0953952676730346
0,0985338648990672
0,0944189058770143
0,097093773065451
0,09616766800197
0,0967462936055977
0,0945621934625768
0,0936796523175793
0,0960708975260051
0,0978545459313427
0,0951272442105808
0,0936527073827586
0,094292399040375
0,0958500803606375
0,0918601827489043
0,0939595571897346
0,0927146265848814
0,0901633149967675
0,0935020945967457
0,0935383366637849
0,0909189847855417
0,0902795384205489
0,0918408897348249
0,0942625375338897
0,0918739330106701
0,0918464070064671
0,092163380964509
0,0917019913954276
0,0882596504069512
0,0917718441800661
0,090662397963966
0,0933986918270078
0,0942605455229625
0,0913795675726557
0,0906888083879322
0,0922069689636051
0,091294120982474
0,0919030162905083
0,0914678427428443
0,0926981133228045
0,0886443019037355
0,0906837030513757
0,0883521084410516
0,0905125313146925
0,0918094960260208
0,089926787094895
0,088375588272405
0,0907419394501691
0,0909206845315998
0,0909431788825194
0,0902334420437153
0,0902085715255423
0,0905054150462184
0,0925635044810821
0,0900849403364431
0,0903873034638584
0,0881984194032375
0,0884782717128233
0,0886548852583452
0,0919034045290233
0,0895623068609242
0,0900521227607627
0,0893833812736615
0,0893090428586448
0,0875502855947967
0,0871760477510213
0,0868240886852022
0,0894864116272566
0,0870447257952615
0,0854315615094278
0,0856254026809759
0,0894636109561373
0,0888806974818228
0,0882780873560656
0,0864340002167407
0,0893393740206324
0,0862960184298566
0,0856623237921358
0,0859314531239349
0,0867325576805844
0,0887415829834526
0,0918839411440731
0,0911119994846598
0,0871728742498114
0,0879929649083531
0,0875733454218207
0,0877415183992807
0,0890246934369105
0,0889173410457739
0,0873454357930522
0,0862897084270765
0,0880980173112684
0,087248661712462
0,0864611151791703
0,0853040420776327
0,0841261505586186
0,0844008073505335
0,0846447345838218
0,0858763449211019
0,0858107091491626
0,0844825026950568
0,0865302332438638
0,0841132666561458
0,0856601071146868
0,0869884224347295
0,0841716702762042
0,0853525597721424
0,0887031580974952
0,0849658833432168
0,0837881575253655
0,0846173988412971
0,0831933179378836
0,0831462385606746
0,0829093943822848
0,0814704529097736
0,0806957987485304
0,0837992637781481
0,0827082691664117
0,0820589657556481
0,0824349557050854
0,083326409967729
0,0820782892746978
0,0806134460265442
0,083031159995209
0,0816486417564296
0,0821328411985102
0,0805248776929149
0,0822452993926374
0,0807396300940004
0,0805498265986302
0,0803837889378815
0,0825492486372663
0,0809196529735992
0,0869939729972035
0,0815161649209575
0,0765436262544154
0,0778633796471767
0,0783960011392543
0,0764435236373529
0,0774757201865501
0,0781921901702798
0,0778904151345154
0,0789893912191904
0,0774178717214957
0,0746260981188544
0,0742447539235471
0,0752837296699674
0,0732089837352405
0,074955339113982
0,0751496674099326
0,073018077079744
0,0733656530290778
0,0760248581860988
0,0752449696276026
0,0724826718351388
0,0747160153027753
0,0745739457875798
0,0733492800485523
0,073755411679441
0,0850354784987119
0,0909569269955517
0,0772653265530565
0,076600842085672
0,0773297135297925
0,0788804757663148
0,0728315548358151
0,0729080501847889
0,0734889805616633
0,0718744920526513
0,0745104174373286
0,0723342484182648
0,0723906242911451
0,0749388182864185
0,0721859040136976
0,0730902944227593
0,0738025264584444
0,0709888497047445
0,0733884230845519
0,0722318701158772
0,0709345652956106
0,0721443231226616
0,0709860035924465
0,0702389611580883
0,0727584589130131
0,0726965747558782
0,074664369565246
0,0821901193025407
0,078451639716549
0,0739766162151306
0,0700670260772721
0,0701906059944563
0,0682039898869199
0,0714998236455542
0,0710455591848165
0,069949910721224
0,0703400612341908
0,0696049498480861
0,0702908162575405
0,0699318028314097
0,0711760070499347
0,0716155094470369
0,068427871139215
0,0686250592665558
0,0685366466854612
0,069342562603775
0,0666703072816047
0,065750637382375
0,0676678438491178
0,0692796434256861
0,0721295249126874
0,0703155754866059
0,0656899799121585
0,0812152161514124
0,0906890564913314
0,0739618942912846
0,0686588099365086
0,0700602207589274
0,0664539401218563
0,0682448045253586
0,0661676479276391
0,0665655949473477
0,0664006131358276
0,0666721962603017
0,0674267751812312
0,0683759469223123
0,0681495242403557
0,068998630258323
0,0658893296642322
0,0664884798147621
0,066135497985044
0,0670490338027402
0,0689873973670171
0,0674356023584023
0,0741162644392045
0,0887715408144609
0,0752736048536362
0,0681792493898916
0,064483888094623
0,0710730492444712
0,0940509665771391
0,0806768252513638
0,0638665449403817
0,0701962705462562
0,0664203388541914
0,0666477420764214
0,065587906601559
0,0644271634485019
0,0740113994595423
0,0770300305023104
0,071646890161603
0,0726974378818663
0,0700330705102376
0,0662061250641402
0,0659159598070971
0,0652570761575312
0,0643876492564586
0,0663383212187469
0,0654948587876059
0,0638390935073112
0,0643574342847411
0,0668954564048854
0,0629838178596418
0,0630584527497345
0,0730761965185539
0,077943652305075
0,0692651238229944
0,0679048041402263
0,0673998072677027
0,064199872037705
0,0814640470016927
0,0873000780408418
0,0711486897046014
0,0662760689285224
0,0672268417888606
0,0665820923163888
0,0683954794500102
0,0665743338560613
0,0655794917360023
0,0641672839684038
0,066929686225384
0,0661354997850213
0,0660033631809208
0,0652256004999485
0,0671863821433629
0,0666779233385157
0,0632434595979286
0,0672835908167949
0,065428753074719
0,0653425039312957
0,065403077652298
0,0732085930306101
0,0949696127467648
0,0970098472959922
0,0883698470799718
0,0847653408595849
0,076027061545578
0,0674185689394256
0,0709176789675482
0,0645824646922253
0,065854018923537
0,0685049024283863
0,0685179231142767
0,0654853655997323
0,0699407488540408
0,0652665944659646
0,065316946372944
0,0629771002757723
0,0663723075637122
0,0607142862991344
0,0654095880653804
0,0644883283537862
0,0656802475792397
0,0630326227205758
0,0684219558208779
0,0756414953708659
0,0825400923101558
0,0694247084752099
0,0770510186920065
0,106865389751777
0,0996058501202942
0,080765602836034
0,0721615817978928
0,0695107177523835
0,0644734553138252
0,0683002822404514
0,0709542077538971
0,0764369041780459
0,0695189183595643
0,0685981389507089
0,0662745191339843
0,0732744897209326
0,0670360367180202
0,0650745608434006
0,0959142280622631
0,112892838549259
0,0872453324654984
0,0728330705054114
0,0643396784090111
0,0910932843001491
0,101275601838905
0,0796830390603786
0,0741396749110068
0,0743900247220006
0,0682542549045435
0,0726488643885367
0,0675081610027694
0,0702697197698844
0,0808355031175049
0,0729098378569647
0,0699543025735294
0,0688534060225694
0,0686786886529883
0,0754968199193478
0,0764726535924748
0,0866420297472954
0,0868003865307491
0,0757954261735951
0,0801998838720534
0,0803775608849505
0,0710813968450688
0,0746695591371353
0,0715107562904573
0,072534868676934
0,0895239143172448
0,0907980615468852
0,0881986726920466
0,0979356600587635
0,0922529917977726
0,0771605514635455
0,0810349635100493
0,0945180855757588
0,0859260894080449
0,0736600698997756
0,102172810505506
0,107054155655969
0,121341131745615
0,0963953261038677
0,0881572125855889
0,0738214937516543
0,0839027320865719
0,0685970517041267
0,0875263013946665
0,0978961914016467
0,0915972696043193
0,0747144043909295
0,080209577677861
0,0952244238354878
0,09781796340165
0,0894826313669625
0,0868597931381923
0,0809115783142858
0,084757004462273
0,108704919481139
0,0890317201291473
0,0956638862655469
0,119162623957439
0,129971493124597
0,123654562478334
0,0900347560372448
0,101071300111955
0,114838046168262
0,105086296650419
0,0882898951093842
0,0880532200475446
0,0912987581089722
0,0821470910503282
0,110425319664062
0,132363397228716
0,102229784442295
0,0950836684561247
0,0912853349186843
0,10304546851706
0,123628017879743
0,112286707278278
0,0936824546655279
0,100096145955607
0,0919226798969746
0,109425437739343
0,155681196964941
0,126572730394528
0,132014249118108
0,133230177278495
0,14034848344408
0,12169316394566
0,121895139359394
0,107185085161937
0,138379096089582
0,13393264922323
0,116009406323429
0,103267274803323
0,150576360302024
0,132888573751059
0,129122793933197
0,112761234195112
0,119131896195045
0,122646569242735
0,185812277953082
0,195728028398162
0,170850152223958
0,129795792688578
0,145729455073663
0,156413359011088
0,143441711399942
0,128965690471559
0,13281709317275
0,13370803245671
0,132869856548928
0,141792619496308
0,151052310632222
0,141718788398957
0,151308648401392
0,139540210728127
0,162224349651601
0,184979972544903
0,253532251336028
0,190500234254558
0,193840254165178
0,188248045894953
0,199171813289284
0,174770807619879
0,167341404587534
0,164396094074655
0,176506477422328
0,176108627143666
0,168338591409378
0,17679770322638
0,210717918798609
0,191329680125562
0,226149773782973
0,198698626100521
0,202396262806311
0,181069083307554
0,268543804149089
0,338552632476055
0,26468759577804
0,224299849165191
0,237045203756932
0,283877696859142
0,303725817874608
0,260828661735946
0,238636580439057
0,247915713469821
0,248165453764925
0,265692722636818
0,28422265495859
0,297438977085441
0,309019514920277
0,293817160591949
0,300774415249254
0,338284243015693
0,439503400181254
0,416537284366786
0,352812211127444
0,34348304646315
0,374774928627764
0,377783393367567
0,357743951330749
0,37013796668133
0,363594725546156
0,432521353532783
0,441204462765853
0,429827093323473
0,400252723511051
0,443847323665237
0,448777069411791
0,454149745625798
0,488821568153586
0,499361328186099
0,47342047171122
0,457728762361288
0,480954980760915
0,472618515601865
0,50769549980632
0,53194996089518
0,543542240172124
0,516015905430856
0,516756245132818
0,523717557906766
0,534520903940982
0,550364115167481
0,539944703932584
0,552161642054337
0,598798477321695
0,677410884235463
0,848083599651645
0,606244334854316
0,587094245033205
0,560463677860863
0,598509093370373
0,618227321631593
0,642282178636671
0,645051250233646
0,641970307839336
0,590022644715426
0,584510456518599
0,590619235554998
0,576021667834104
0,597567792561598
0,591431546900281
0,598649844406492
0,63468124319978
0,599076729434142
0,693078720233405
0,661074390478894
0,617353749518165
0,570254682777891
0,592709766937046
0,561753420042084
0,594287117501368
0,55872261020401
0,599385911990141
0,586824408748031
0,590707457613241
0,544629134259194
0,562290980471393
0,598731252346178
0,604157929816725
0,552716797064098
0,541475227308483
0,543782502453613
0,5402843533452
0,511209866880934
0,586468244613111
0,570755146499504
0,55170711302289
0,494955364859856
0,516642983937223
0,499550413522466
0,506293643032604
0,488990019933947
0,509936159974279
0,483400773690656
0,493948664597317
0,484822894128408
0,489502468802791
0,469807760254535
0,481505914525012
0,473266430307499
0,477399768062921
0,473025265914484
0,474393826739829
0,470454573115154
0,472732010032699
0,467459207651423
0,474535331677678
0,46731929557246
0,47758092952051
0,467089994635067
0,470142530240169
0,458907531820374
0,462645542266583
0,466496310585765
0,463658867260308
0,46756745279094
0,458691021619448
0,454285697444338
0,459804783820865
0,461948309284656
0,461354218726499
0,456763021196408
0,45728647972497
0,453918058783244
0,45051461823987
0,46108185641207
0,460177078726174
0,474655216336539
0,542038135109905
0,482049404175253
0,466872932410875
0,424764907451022
0,451265179414959
0,420543483639222
0,452714118810451
0,493801734602912
0,479066360665271
0,442664966116218
0,429647665743682
0,426216422442836
0,468931289053437
0,43254297133943
0,443974244251291
0,411885774338102
0,430532627382442
0,49868641264684
0,524054579716047
0,59689039773946
0,527590832172798
0,454664416394428
0,40748092718727
0,479967923670537
0,455097989901536
0,432811930567742
0,406147543519788
0,415124787902608
0,467609036198024
0,433197654919249
0,418981965535653
0,390474372075261
0,401474844579989
0,44397138716536
0,452486720812014
0,424058108099647
0,462494608678086
0,445605010293708
0,447610859116926
0,48293259691056
0,526296209580658
0,426058943447927
0,385128753409431
0,384785629545501
0,381377123065647
0,419469049326519
0,43268452077948
0,403401611705569
0,396874970270491
0,355734707191658
0,373150137435788
0,365442227816848
0,417129492030406
0,351128466525576
0,405054111339708
0,384513067254073
0,366739448103471
0,367402160678305
0,389736813333885
0,423925688157812
0,418954939216971
0,359994459016367
0,332041255161992
0,420213630162452
0,385243119474422
0,364585555646
0,352081100672444
0,309948658245088
0,3384450327216
0,341520770036425
0,317469695433587
0,347699740034877
0,339888604577628
0,374084318621586
0,395445909525868
0,434631537922103
0,383985919998032
0,310540439463357
0,296379273755092
0,283449637064559
0,308742099431936
0,286419711505821
0,286950919909306
0,338079165199801
0,2851626024247
0,322709872798239
0,33791643086953
0,311718430678624
0,291829724607286
0,290786346630752
0,291259111197527
0,313139757748461
0,354991276060516
0,372489532294027
0,320509553447264
0,342336287219273
0,335756080039164
0,330395559114784
0,309643958030527
0,322497853804004
0,317007560380911
0,33463774634783
0,346381771708448
0,344021104423036
0,341342686536198
0,353536787326282
0,34785009095601
0,431666349037642
0,389534888137102
0,398069154339029
0,424801943735924
0,443329572539608
0,482993033684281
0,430930365043125
0,429304960771116
0,421474791724938
0,434821064176548
0,433281883756767
0,435106336528514
0,481965441689193
0,480292905481782
0,474387099222072
0,459899717128512
0,468542249264676
0,473985457012371
0,490228609700763
0,540423914049633
0,528729353415084
0,611231213852309
0,558578068632737
0,57101914859711
0,506424294783331
0,513035743874263
0,520201150770481
0,52431404943789
0,512304545792844
0,509442574325197
0,541522334090033
0,566266915174385
0,523521642633213
0,537775726764228
0,527256864637576
0,540662200297684
0,535232750732126
0,547204976794724
0,532412109002
0,552874087746051
0,558638725111652
0,545907680913042
0,574214002746278
0,655179471569628
0,58619245100568
0,586041366197867
0,574242001591213
0,59910264020544
0,572958444919513
0,592585813749167
0,615540539321218
0,611471392667187
0,600449784156073
0,598754180396196
0,607251066225973
0,598268101356171
0,64302349260977
0,65286727558032
0,614435462802954
0,638065223284978
0,605468949469052
0,718959387753452
0,666041964011489
0,686633472618697
0,651726815469575
0,675183831505355
0,631118373781772
0,649868945766858
0,639012360011944
0,66238590639474
0,637351120350022
0,653666720656135
0,649397707024715
0,656608961660131
0,658168053572731
0,645347671930481
0,664594201309437
0,691352191953931
0,660272545937957
0,663231248014284
0,652604188781407
0,646850934343155
0,645993856859432
0,683404618843795
0,673766870660709
0,675423173025979
0,651729821294262
0,689758563265622
0,708185695858471
0,667407200048204
0,647717929010781
0,659414780532275
0,639686108647558
0,671610071240443
0,635824963375786
0,689064573305155
0,695407253654813
0,680130033724732
0,660660928692411
0,670986135882558
0,663712326141796
0,680113003615832
0,66380180687581
0,678183626208581
0,666199697993645
0,686230390913225
0,687083569119753
0,6797362127021
0,68393557974211
0,697549365307318
0,702503728874848
0,705653667374251
0,672933240671195
0,687394938821863
0,661478694122905
0,68426198238439
0,683820295127746
0,66861795437913
0,643106415077351
0,663316724791753
0,633070503349163
0,665981965013672
0,682644005604826
0,656002123610292
0,653405440180813
0,620933254735182
0,623395169619051
0,61570030404829
0,611820677994417
0,602247660108879
0,606058631359581
0,609645684420839
0,593138470104229
0,596850397394553
0,592321951342213
0,597210858175311
0,588972442820871
0,59092582188921
0,582675001147835
0,584954172282789
0,584165864191129
0,582161090372041
0,577802699131031
0,582538658032398
0,571284146432247
0,578099462642575
0,595585641764874
0,608095626986855
0,61415490644564
0,592473821534478
0,595818775443278
0,5844134820355
0,574273108600796
0,575711801163913
0,573325477404843
0,579481714000819
0,570512358569369
0,577132381231702
0,571464207537472
0,574940278064907
0,571374566850623
0,575914432415522
0,564498526861555
0,567638571570942
0,57019145665689
0,573762242256295
0,565948790339571
0,57585172374302
0,568550754294895
0,581160470294779
0,572975142331656
0,578505283368406
0,569422823327948
0,57780205709528
0,570438962391873
0,578504795221498
0,575980058774364
0,575134736371317
0,564833651765911
0,568869279665074
0,564338683673342
0,572949630012239
0,563972191101888
0,5688140932747
0,562529113148461
0,564805075837649
0,556099073918366
0,563583675948581
0,548255001631158
0,548825210682975
0,546070421303616
0,538740697104019
0,533293250500356
0,535629001292988
0,528155185398278
0,534192411243517
0,515667222426395
0,523683400068238
0,513726576634776
0,513664127970257
0,510435320862787
0,507134733567056
0,502071478923903
0,507153252722773
0,495700912090558
0,497838994775727
0,496842756919523
0,493366564360991
0,496228140197442
0,500855986361942
0,492486133831084
0,498375811429215
0,496257562293731
0,496433841720105
0,495987312644544
0,496668780178056
0,494862418200244
0,506453734794606
0,498396628642169
0,513384489624175
0,509325974957404
0,514770961118972
0,510686068792744
0,513842718261417
0,51323203620409
0,517264465521476
0,519100955058425
0,523793415440154
0,522265128577285
0,52251996681191
0,528037190622801
0,525052282828085
0,535102897649556
0,528077380143725
0,52743667644772
0,529377066777139
0,529250729347559
0,528385069833685
0,525929273130908
0,528199489797228
0,528181000625603
0,529600649955278
0,523812702430332
0,528826774522371
0,522791752992797
0,52690117126083
0,520794728037493
0,522322748139554
0,520366035674364
0,522007896995813
0,519149182483915
0,519623391473541
0,511553861837395
0,51340220197085
0,511997690638596
0,51070561150517
0,508327706279147
0,507572313116468
0,498988831825793
0,504518442886536
0,49994192420726
0,501079892234762
0,495849312656471
0,500057921341394
0,495784122609371
0,498651681660493
0,491381624907641
0,491762807984981
0,48918245499051
0,487904860902419
0,492381099005497
0,485047841710714
0,481726146505224
0,48346389869067
0,479585873500932
0,481075524028741
0,475387083040058
0,477791639557766
0,470797991671129
0,472410268921005
0,468818102041091
0,466779985105479
0,461177767050681
0,460132279079046
0,452437916984561
0,449851125463588
0,449433189809156
0,447823231048255
0,441575403044692
0,437523186610901
0,434863794134769
0,433658781608279
0,428685210640785
0,430415298562981
0,430843887048435
0,435803184054612
0,42872946830764
0,427889253291037
0,42444042091626
0,425465482687146
0,4218641743933
0,421984300306228
0,417940351978962
0,416118840953519
0,408278847248111
0,403281529642458
0,402131036185977
0,393394195908981
0,391849711121731
0,386902679845487
0,382500788532511
0,384479449275013
0,381830512988335
0,3847718376505
0,389029224016816
0,392758547062573
0,39949170135706
0,406355487068021
0,413426334937489
0,42611171707652
0,437217263905136
0,453636153471207
0,465513226084198
0,486253123836555
0,500971577932275
0,518568379964663
0,5353503612227
0,551732682273223
0,572445176761794
0,591637497370842
0,609643175602655
0,623659593237107
0,640886056508455
0,663345162732553
0,668926766811741
0,692158065665091
0,702892102165211
0,720020076212134
0,726203873152828
0,740912482125587
0,754347854709157
0,76420126862252
0,776335574167225
0,779170480056562
0,789876451763046
0,794191227320378
0,806992756385356
0,81300633084576
0,816968374744991
0,83141046786934
0,832375328542428
0,83674987653121
0,835976181579273
0,844043820045321
0,845353823694661
0,844297645793012
0,846717287596932
0,84016528132729
0,846016795861618
0,856645051190671
0,860119784993686
0,856680491008157
0,859068261337755
0,874704038845941
0,859177708321956
0,887653597063077
0,886077544114247
0,890564319951443
0,886967293040725
0,911844301506867
0,909631819139185
0,917661903444941
0,930152402571624
0,949460286220093
0,9347671077382
0,957135669894037
0,966928395666707
0,99736774206958
0,992286011464309
1,01226822035119
1,02429797302913
1,03484312450692
1,04607741583778
1,0659417181771
1,08386230197892
1,08336384135443
1,09436713197685
1,09897563698222
1,09313954054185
1,08979282073755
1,08950704085099
1,09696950997465
1,08102995830006
1,08386267570947
1,08521572659697
1,05939635252677
1,06220053873268
1,07086826596048
1,07129166103239
1,07320419224504
1,09432491195329
1,08021629241719
1,11544159767416
1,13593061872362
1,14933889052667
1,14902153409397
1,17985595183526
1,1938362468523
1,22298897159892
1,22945781727207
1,24744183651167
1,27830134656679
1,31236239163442
1,31708485483514
1,34235548064921
1,32348856785616
1,35382545540568
1,37428942803352
1,41230480753472
1,45961269219724
1,43967011714549
1,51780501677137
1,5317822921383
1,50949975379396
1,53941098431932
1,62501145574722
1,6277275579138
1,66519072529728
1,70808659046188
1,6190625172872
1,7426681759792
1,7054277483842
1,81474977042571
1,83139459179451
1,69095278529847
1,90250206318659
1,76838185570348
1,95338630209006
1,78318314717706
1,81661072340033
1,84874664047735
1,79121640726928
1,97921202533599
1,79732584306795
1,8804286234775
1,78894299052479
1,79663435082861
1,87583788913716
1,87321357882881
1,81949779523057
1,91334508073305
1,76129564861953
1,79953953758306
1,8050716914604
1,89476993253151
1,82871316924771
1,91111207352365
2,22257355348782
1,83024279041562
2,02368467569092
1,99723493665251
2,09238244181331
1,8706898734763
1,89959709611142
1,97150094515256
1,95467354556799
2,19358139698133
2,14144074438572
2,06872496292325
2,01813845886216
2,07093095113777
2,04458361334439
2,08546243815161
2,01218991949318
2,18966226042386
2,09090748135811
2,17538562969671
1,9200196888209
2,15527173716371
2,46590601223395
2,35491438778743
2,20299783585071
2,07110348420598
2,23887712186703
2,39200987868238
1,98017066970792
1,91713688975409
2,23761914486845
2,01410469392173
2,14917255141565
2,17145420891753
2,09995938019561
2,12269933802623
2,04536987748984
2,20465471263188
2,14607707478505
2,10062071759206
1,93109368898993
1,96509522410506
1,78229417337342
1,90541802702807
1,74462017851113
1,66923250165469
1,65672121997528
1,57362172118524
1,49624432990519
1,41849152557624
1,41537411927193
1,38769976865682
1,33827046996689
1,306574188391
1,26436387422671
1,27108495532012
1,27086048311833
1,24388318175183
1,25358835155801
1,20862189083379
1,19704412902429
1,20832246879192
1,17334293144487
1,1466389244881
1,16557440574159
1,13604065327074
1,10902638493589
1,10493126650278
1,08733979849065
1,05465170356089
1,03648507030809
1,03630126773305
0,994771982458957
0,971292246525519
0,944804492493888
0,909539873346233
0,885843158350208
0,836861463214274
0,805210542966937
0,778831352301914
0,729395202044933
0,709372234176427
0,670440326559793
0,644618953848072
0,616871902887651
0,589853223768049
0,565375059679083
0,544281511631476
0,521494923316249
0,504245580978737
0,479902587285894
0,469708796515403
0,454564219868329
0,447474818459897
0,435318865299693
0,420996000182955
0,415603715926997
0,408678763471776
0,407318720532784
0,401486976151849
0,397976592016436
0,392201541634179
0,392539483821952
0,39674571040091
0,395923199579272
0,393135036322679
0,404433938164427
0,404716638855788
0,399301657611205
0,40103157162961
0,410169929854609
0,409460616691691
0,408619338819154
0,406967683176432
0,405750182213938
0,40336080249961
0,40454162601792
0,394761580048953
0,397835609445634
0,391533632350997
0,384640209502794
0,38826452601956
0,379666235653734
0,377240257478973
0,371478910286988
0,371941692727921
0,373450252221241
0,371243790188231
0,37053225386931
0,371144523194595
0,374081446730183
0,378200359184905
0,381851383177078
0,39248763150978
0,38459108733173
0,395901748342946
0,392097409037457
0,395291919345853
0,412079284921947
0,408164836278319
0,411445471467199
0,418637680197716
0,418869362236632
0,42426794422314
0,428349559698515
0,425525861202809
0,4212392702812
0,425873711236382
0,419310074707454
0,433268320704199
0,430642606638477
0,437178413505786
0,438097004097339
0,44478280027674
0,441733826131067
0,446373678921653
0,456534210771283
0,464975993178191
0,462690187982483
0,481899535095864
0,492043065289809
0,500443563180885
0,518153536527419
0,53673260126964
0,548012424918841
0,566362784634576
0,569439398372891
0,591397703659072
0,592298313843541
0,60084085718831
0,599619455134604
0,588653406216052
0,583982131400627
0,579520462827008
0,577111885583883
0,566665829543369
0,543270117639892
0,543757682722758
0,537347415199937
0,538277724126194
0,538819472586282
0,532269735572508
0,523294031851348
0,525759667671284
0,53166162412359
0,528150184124228
0,539929881758397
0,53330298889684
0,529875164213659
0,527014256428287
0,515831180693615
0,527699871503201
0,512946447564604
0,508377598278568
0,499064868917443
0,503807759844457
0,488773828279447
0,471258029063818
0,473562235357727
0,475539356296174
0,472942540433283
0,477668407144452
0,456363682926416
0,452336892119126
0,444070175703031
0,454919068051608
0,446355531912501
0,45003495851558
0,445777319654772
0,443908249357879
0,428190537159292
0,429409306307359
0,428364222409736
0,42740141343954
0,41869866965975
0,426792411467809
0,409104546497173
0,420818790792775
0,409955157510613
0,414965725862771
0,410902836080915
0,404158854347579
0,398957940305473
0,404308789390095
0,392577219332367
0,402755036472263
0,403105568318772
0,404189781125573
0,390630709446179
0,391044297996568
0,387040510475253
0,381302586218301
0,376369913231895
0,384669906817609
0,388365903454346
0,39061504668554
0,377911801855055
0,380061135672936
0,376114286006475
0,385255760224803
0,380824911707252
0,387461955721925
0,394769574653527
0,402389795116417
0,381440707091097
0,398822420818717
0,402171391287224
0,404151680581929
0,386600151422676
0,400429568861122
0,399964979311747
0,414418153799432
0,403466821197484
0,429572426779501
0,415575979187041
0,413028845694377
0,428999392932082
0,428123014448171
0,414417720457127
0,441477666799303
0,442411577498292
0,447695251104364
0,448457136852753
0,457264804170981
0,445549650820469
0,46597400232044
0,467553418208343
0,486949607585012
0,470418672097207
0,494939376240487
0,492583168539258
0,504014572918459
0,51305780353502
0,553930356346157
0,545487341372925
0,57962277250707
0,595063741028216
0,616318154345302
0,601894187454968
0,645688625406079
0,637584699836822
0,663522085533096
0,658007949676382
0,727697890286033
0,759909180551573
0,719454481323057
0,736509765568425
0,750808491362049
0,749573736331292
0,779451522291407
0,725507743942035
0,706295688158575
0,717061103798678
0,746570894753629
0,71948259525919
0,730047163087302
0,712728435799661
0,701382580442864
0,680530018675128
0,691902865109249
0,680169390024927
0,703899889804344
0,688900618064319
0,690919547714106
0,651239478360723
0,685435096071081
0,682265804011771
0,665354104105631
0,629774250129528
0,674372630147316
0,655519133282179
0,660635736081156
0,627450440201883
0,628662813896668
0,603265781574361
0,607394047893355
0,59796382226528
0,62909668288888
0,60664621367667
0,621816314160019
0,60861102324332
0,637207202511008
0,561674789598759
0,606713028620697
0,616999483464911
0,632867918967302
0,631113592973069
0,636242577854568
0,607622660192274
0,613214568098798
0,612325136848807
0,62459547932348
0,587770670423927
0,59481287131284
0,63070824854515
0,610798700732117
0,61982599831121
0,651100955845533
0,669923893749807
0,642797459340319
0,664531572062525
0,668740898281286
0,602944451791462
0,594649808213775
0,676662609326473
0,710789731790838
0,644556364347901
0,619858525722319
0,679940635074242
0,7229483629271
0,64129152638443
0,682559064772006
0,713431369227107
0,715858363118993
0,657744839873807
0,708127150062039
0,642559002115061
0,777344621265328
0,753241684017055
0,631886845233697
0,694828575633548
0,849189100755977
0,818542176878954
0,834730350199469
0,770525840233784
0,724142962789775
0,847544691827826
0,894552035683862
0,750247677819611
0,903487994822046
0,92032727139764
0,878576656081817
1,00536127486446
1,05099478447413
0,806683057108818
0,914989029259806
1,07707090372612
0,845073309180783
0,815531409352112
0,90716009601191
0,904339261219458
0,895096441098933
0,771595211679724
0,897638071628738
0,99237937565355
0,799826488503424
0,739392150869835
0,928421343402014
0,849697568657615
0,871542124893015
0,794525587113271
0,853211080992469
0,768438741763149
1,12932898703291
0,822389107123163
0,804399504670116
0,935478439817823
1,07286947967723
1,03674014450795
0,935276401314558
0,859648333521935
1,79194134732949
0,836688788125056
0,60131652844985
0,988605300699502
0,880518643483211
0,810836528619966
0,784194349114723
0,891915953407712
1,27871306166861
1,10243753590009
5
0,964732879891219
0,669535589308631
0,796883810851871
1,23030068430005
0,893580554302821
0,801084489725458
0,561312438454695
0,691440442243593
0,765069537784227
0,887907132506866
0,980010879146721
0,640082889095614
0,699067351626786
0,917164931282191
0,427029297956169
1,21309315748564
5
1,22770728953886
0,952097994008852
