3596
4000,36533379555
650,420452594757
1
2
2
0,115799298723981
0,111329023441308
0,110749396321311
0,113738427885755
0,116766542330092
0,117706758475697
0,106213628172305
0,104322753120433
0,112578816156261
0,11053608988203
0,111112233743368
0,112129209995127
0,10691436869187
0,104381168440702
0,10954118544909
0,110478996765542
0,109585367010057
0,107871157779741
0,101547358926623
0,105632332586606
0,10670381714235
0,108297089779105
0,111559872618554
0,106171557156989
0,110104438234233
0,117161942559253
0,119581418395289
0,111670265020897
0,108846817163275
0,118859659618937
0,116574611226038
0,120239613056587
0,111716610058119
0,116323503048585
0,114868904966613
0,107306158452928
0,107520635191137
0,113999858191084
0,111551956873892
0,115477320346439
0,121388935147057
0,115252680454624
0,109911617872705
0,111615583332266
0,11877584297309
0,116263929476647
0,110585644024886
0,114316141875445
0,105838794838162
0,110791896128908
0,113017996582688
0,11320733740884
0,127227044010587
0,123742616303552
0,114466331498439
0,13449960756097
0,122300087789306
0,11677895643296
0,114662980965749
0,1162427926884
0,13872253824685
0,125060245245522
0,110748361718575
0,111133915489913
0,10853776007166
0,112902694666783
0,109427171445156
0,0987479308967263
0,106568534882385
0,115546299561456
0,108936544191605
0,14127697299878
0,13179817537904
0,120537469825266
0,119208083764909
0,116000980577147
0,102804793013424
0,106219323281346
0,104527749735487
0,130010690056265
0,127604278196623
0,120496863156417
0,113365425559822
0,103839351006895
0,130834402691949
0,134467066433945
0,102690444924295
0,123556216780201
0,148378246455214
0,117574357444042
0,10874738736391
0,112508878707322
0,103380156468561
0,112788231548066
0,111504848090758
0,111091896353912
0,0982728933236218
0,111970956622367
0,0987894921062679
0,12319852745676
0,116968200709785
0,14824697832214
0,137712568076387
0,134380658193347
0,181760443821124
0,117484685636924
0,129162225836044
0,162222935521258
0,131849541661888
0,111670013578368
0,103158233629894
0,1092724462363
0,114154089730051
0,114183484227196
0,102624583881723
0,16183376853227
0,145446540271597
0,117617551957126
0,109058083932167
0,120993519771531
0,101126703235156
0,17419271080435
0,145933942177134
0,121177806606085
0,12033576613224
0,116929552989149
0,113898623671138
0,172139091458728
0,144255105181824
0,108457348470379
0,0999356420742481
0,108817741253762
0,09906435035798
0,127379701567439
0,154886005862126
0,116599137467422
0,117230805427811
0,112180607760887
0,153803822941823
0,177494782937914
0,126736971437627
0,113097772210386
0,0934844309234266
0,127999544362845
0,167628270687244
0,125069533410718
0,104845844729533
0,155257817511467
0,11663281449872
0,110989324933687
0,101609092027802
0,114955359885536
0,136509075971563
0,126316999583386
0,081584556505187
0,231243909372055
0,170807410333912
0,162193699081238
0,161361445977361
0,115361916024632
0,127726968569942
0,108862637626316
0,106225021775853
0,104577103083177
0,111413152712093
0,0988002312519162
0,132792753866689
0,14555783170256
0,115808812281629
0,129715074268635
0,156229013876008
0,133032862223371
0,123705731330277
0,198507455841456
0,117983702337654
0,123224226389235
0,145562373061646
0,121368427443811
0,0988030187490259
0,134536293048509
0,140185825558603
0,106214033526126
0,10065519060054
0,107821687505171
0,117582015266
0,132508333505205
0,119297821830039
0,122008551005659
0,107288207249665
0,103545266277129
0,153321564359214
0,199597970202956
0,133169651137958
0,117666328417302
0,111092919129961
0,101150541423842
0,160434256847547
0,154585262928765
0,109039927571426
0,102514918007653
0,104981201954037
0,103613361329183
0,0961752365828034
0,110795198138051
0,0962270994398129
0,103551937482154
0,167323950683301
0,127710772007431
0,110810863637948
0,110207211216431
0,123093790125793
0,124919037608506
0,182817550051995
0,143681049296602
0,11281478239753
0,115314687692151
0,106629477427236
0,140903147232721
0,131243088965343
0,112797397321008
0,104230747102485
0,106734733028029
0,100011481349322
0,111713183555268
0,113074293088619
0,110682557214348
0,109254549611
0,109028104741191
0,111675476315337
0,114614451895744
0,122530138569351
0,120696243408392
0,103945595973935
0,116617035864406
0,0935345363201889
0,137876401709993
0,13646386258022
0,122828835751505
0,107669781754692
0,111436897329063
0,111399586101505
0,10709547725734
0,108361524282829
0,11475337912277
0,102862390999461
0,130089005362356
0,160926939801804
0,117425206488612
0,117747984828662
0,105799002421027
0,152236721440579
0,124641532102953
0,114486144121378
0,109956063880902
0,116080260263785
0,0983952914162555
0,13193165918992
0,172082709400505
0,119876418863333
0,108122887297689
0,145139622460042
0,126118145007396
0,11969596847023
0,119668765413862
0,134665048194312
0,236558600216355
0,13353880763029
0,151353937364494
0,190312985377689
0,136479171691139
0,14066159419282
0,117204754588173
0,141429750628844
0,299970046021505
0,179835152889998
0,131221561453471
0,136949160369569
0,1605937193255
0,113734864084191
0,148990976116947
0,128572165304823
0,166773752033948
0,158876482016994
0,240369670782117
0,201041827911285
0,123062712725275
0,190170376189459
0,155167589745366
0,137093166274718
0,124467700989351
0,127285506369148
0,123537005514988
0,168039891000254
0,156749150737183
0,162669548210508
0,132480767145381
0,148574690631905
0,174506169593385
0,136622728102985
0,120839880998333
0,148954030614033
0,151912690504686
0,127688848773054
0,136811808754594
0,132502428115226
0,156277625116523
0,12920239609163
0,161142251796558
0,214519540164925
0,156558540170134
0,157398773820058
0,184006352235002
0,143030743986588
0,142407682764747
0,134823322592506
0,140692056940074
0,137291805059865
0,13287424307657
0,146689182536381
0,20353470005807
0,149538577934856
0,159075390888067
0,142615704063751
0,147101487501863
0,150558938658851
0,155936479657626
0,152239973007786
0,156648752347675
0,154765358036608
0,154672678273346
0,204518149990511
0,203027069845388
0,156528250033797
0,26154880837541
0,20087221408969
0,180888379007912
0,167972785941704
0,176441597001488
0,175053690951649
0,179216036180038
0,176268165169871
0,184050587444358
0,19653744983925
0,225275413329354
0,207109324712338
0,207509381351918
0,21412245733131
0,312248533423519
0,281945129510784
0,225917794382416
0,220470877169422
0,211543025050033
0,299359354178797
0,257302670442943
0,262611584320813
0,260607477692344
0,231554853866909
0,241123924470198
0,227521205917078
0,248158551865448
0,230291881873908
0,260286063313788
0,24687986653312
0,27383921636135
0,266661241309949
0,294624244356904
0,26004374179446
0,30516998861742
0,334556982825758
0,29567632695851
0,2834175395251
0,302167739824913
0,276329158646373
0,380084909593652
0,347321618754862
0,433355803674477
0,340966006256116
0,403114356361438
0,386106151248809
0,34636119610664
0,330041604910321
0,336720923356151
0,343421696961012
0,363010292502452
0,352812554496446
0,357121506870703
0,342285885480984
0,376663540278791
0,376697046626259
0,381085999110497
0,373307027242898
0,393313326520831
0,420661864316229
0,391353309232222
0,412155347333036
0,402121210962614
0,452791447914365
0,51446616234117
0,50241855003537
0,42894993926734
0,425938676198687
0,438467088586965
0,441294181440407
0,433823776055664
0,458438460472829
0,45840927814938
0,460679137113986
0,55320251074674
0,495435230008498
0,531767538633346
0,488280319690833
0,467935006169035
0,497492512237354
0,509000600692141
0,498432305961128
0,546107103910449
0,488808670945124
0,517690181923893
0,549856700221919
0,545021389384073
0,529393082007398
0,560027523142228
0,526753054385988
0,539939272308111
0,517288063797143
0,548721777684685
0,548484199413582
0,606836568260767
0,541424167421266
0,565989400887202
0,56094001265888
0,592114053721347
0,569457289382895
0,647407774595431
0,583894453138068
0,626789928041458
0,583792887764021
0,61297658547664
0,609249819201422
0,585028256576206
0,650220399485138
0,646595712186598
0,658650310445601
0,65010619760488
0,618436178418578
0,644205622110486
0,614631022877836
0,653665481034105
0,643632509980829
0,673599546488167
0,649540973160989
0,684763684065106
0,660483293518617
0,686047546845982
0,649917907228436
0,709670611225742
0,62566294775323
0,6917717068703
0,678138461455199
0,737280880790779
0,694786684984648
0,711324701603324
0,760129895623281
0,80149752478582
0,782161841830972
0,811346773137745
0,715158119592235
0,739149673609764
0,743340523076747
0,792451736881546
0,745057948028002
0,796012385672917
0,749749145178074
0,771728665983234
0,751834603945117
0,813361262855185
0,772062760248475
0,83131229097853
0,780519195061297
0,861383596203428
0,782401679708874
0,870028148599177
0,780708322048361
0,882849069955526
0,774341371986497
0,902185098478946
0,790180794359793
0,876471499410276
0,799994503109243
0,909968387210343
0,816808553800889
0,889418075089918
0,886071543698827
0,930145252393128
0,879164382429537
0,822366819411918
0,852593227055787
1,00184790423021
0,864174568371849
0,967299537440598
0,891550456491958
0,914836732754119
0,918262226150084
1,00026119565649
0,919184100202626
0,978249971571211
0,932176639271981
0,969602691385069
0,943185997644157
1,01670340320971
0,929784302280604
1,08480667700104
0,937462175873459
1,04851673143748
0,941041115341701
1,03183648137259
0,899551324528076
1,01825805548958
0,906982588827907
1,08271472239021
0,928760227016188
1,07084228220495
1,03907771517725
1,13675102584862
1,00540235294131
1,09465517295204
1,03411945629985
1,06126447014949
0,960137777177979
1,08123371639418
0,979886921329366
1,12310126348934
1,05455104379293
1,11628813454541
1,01470430709604
1,08826327861296
1,0656987061144
1,12193744907736
1,02591115923367
1,1637244983198
1,06644451773907
1,16328093122587
1,14742644854382
1,18970560424434
1,03645760405556
1,08587556991285
1,2340722240876
1,26823400099406
1,08034966309959
1,15036812427192
1,16228539874556
1,18106135141294
1,07599254738164
1,19187904622417
1,19403731808707
1,26632248445412
1,03551290148211
1,2140805952544
1,10439780473254
1,27464252042657
1,11982890621441
1,3463446169894
1,14899624024274
1,33739028015903
1,15413758388768
1,2437355994694
1,0901463828006
1,2595084929591
1,18849781756041
1,33293242303476
1,21867220108413
1,34077653237351
1,26108622690794
1,4998703628824
1,17900174590716
1,36522734573334
1,19935371583968
1,29797899227696
1,17623489622803
1,44102830938334
1,22890161271857
1,32782471849924
1,22411718257225
1,4700310683924
1,2123187283931
1,33166756220596
1,34531070892171
1,72053656565317
1,2695035242596
1,41282822108638
1,2281571800898
1,40783279419059
1,25554744165526
1,38262520118649
1,18800705230316
1,79963071708345
1,36755303133434
1,59433621847971
1,33610245465117
1,40447233671679
1,34860224576939
1,35061440353925
1,2039999171206
1,79057616141404
1,22142083427492
1,3451880881617
1,3236683990629
1,42347576017404
1,25327244812358
1,41218357062276
1,22506129579618
1,57506060526168
1,43998893902773
1,79373597438679
1,33528719977461
1,71251489513844
1,41844769311559
1,78223746984785
1,44724013159708
2,03848036659541
1,38751407750726
1,61469032157676
1,50790914577993
1,74778913803514
1,39989561763249
1,61123665453381
1,29920934750573
1,55353786095881
1,43803958974488
1,48541868526226
1,45177871647703
1,79843099332157
1,46793563555903
1,76969030435629
1,45192864552568
1,75876457036485
1,53733379738654
1,9397262271842
1,39571849767368
1,59571988230618
1,29866893229938
1,97544136579472
1,37372631390134
1,70117736850016
1,37313516690723
2,50440324989109
1,43084677095481
1,62290255515819
1,51964467482946
1,73820123547818
1,5000638170086
1,91298358405235
1,59942152049585
1,92403844984734
1,47852765205777
1,90177730497166
1,51235671880204
1,93166589524452
1,48267269265817
1,71547925928085
1,4648735847886
1,79902022846822
1,30672446137672
1,75507675513406
1,53384626705859
2,53508232067243
1,55954571431736
1,88484350828574
1,61428175301225
2,49486255322268
1,70808474244724
1,71777074579203
1,65911287353785
1,76673461153235
1,46589543875723
1,93830650813115
1,64456930390716
1,55709782087122
1,40810724563485
1,65874608520291
1,58468565359462
1,8580443712702
1,84941729071649
2,0395422425606
1,65634872946016
2,06301324719543
1,68520557958234
1,85571591081027
2,07308069619162
1,78092014116107
1,68885224292873
1,72823924610743
1,57594790372789
1,75068344655911
1,62805114207986
1,69695243277669
1,4376812010161
1,80469368124055
1,74591801698807
1,62791261761642
1,69853570574849
1,78990831627648
1,76433384016933
2,06961550533742
1,53452118450781
2,16972477565393
1,65467349602112
1,70520344300922
1,54320086974934
1,95154094746917
1,55996280790399
2,39658902894036
1,71004628362433
2,01764293658582
1,71157446585135
1,69378175060753
1,54758860857047
2,16855659915397
1,63625343642915
2,03429755067805
1,82898987552772
1,58809341065846
1,65455961574161
1,60138912101805
1,43545564431725
1,65036815508702
1,51417134767626
1,67868484873262
1,5752302868449
1,57296317309106
1,63893821595203
1,74067609486642
1,88811413868458
1,71709049605607
1,57392161942043
1,56648631500563
1,70228413282731
1,87550188084185
1,85234093125004
2,06335810656642
1,5049001998398
1,6493233714092
1,69429776475287
1,76425173257702
1,42734771511947
1,80779765528267
1,61265940821651
1,62135205681978
1,90118753698776
1,64217424905285
1,73091196041381
2,01362794749865
1,63135248419175
1,72991588505673
1,87941652216572
1,87725782875321
1,49651884438437
1,87990255547096
1,62062865241394
1,91261586314594
1,77951919806589
1,51593758183569
1,74102319434932
1,64646037829439
1,54008534799653
1,64212328414761
1,69219418896373
1,75734579919952
1,54689830779413
2,00036789569599
1,5953790181554
1,52964993152621
1,52389958885346
2,62578232319475
1,77388242724904
1,92824919314812
1,79975102714837
1,69105878050976
1,58759821581994
1,66777875155049
1,87614841032472
1,6669050452527
1,63466956578429
1,7441160846972
1,67673908403966
1,74586205792104
1,59381284337097
1,50775390631773
1,85393352883819
1,79065222762503
1,78876954423115
1,74209008382225
1,639270999291
1,91779465547104
1,49754409446854
1,62333724875845
1,67936007795165
1,67616688063908
1,55398665657278
1,78613010427609
1,80222322026835
1,98239422784137
1,73651797528582
1,82256839560887
1,5950018418851
1,63240440310578
1,63628823553233
1,66030262095246
1,6155697758666
1,70435217175334
1,7874199661705
1,73820870995571
1,64161335207533
1,69758527308813
1,5647874230328
1,93191341324384
1,71945770146875
1,61876781425077
1,58455348805904
1,57420345827266
1,57554889593045
1,62802202800869
1,64159271263691
1,65662216887922
1,5365417319602
1,71998646224005
1,74669090744405
1,59359469185281
1,60441590416785
1,59496019789975
1,53591063981528
1,5811409138763
1,62261363920043
1,67430570565109
1,51405425219932
1,5656066885406
1,5261179580777
1,62673041836248
1,55660668368547
1,66062939606096
1,68721753519584
1,69015907237312
1,56656904818412
1,72071035712796
1,57458144964568
1,57053656795103
1,6352570749785
1,617859915845
1,53026106164109
1,6642230224189
1,48043218440572
1,77101132232706
1,57009601506812
1,73105607984879
1,5406782490973
1,6018946362683
1,55876037994848
1,49582538186118
1,44710858950134
1,48070174597683
1,58157881647172
1,56379607999896
1,53681606210847
1,59547135112378
1,66356073581284
1,5948517662019
1,41721106766047
1,54042997125745
1,43234390946185
1,52545911202255
1,43339040190861
1,37513247926098
1,42994776611312
1,45469251365194
1,49232942481472
1,65278777005094
1,36482821238536
1,44835616024656
1,43903819782808
1,49611214386939
1,43119479396485
1,45823975027259
1,41906781295204
1,49523507107438
1,4467326865669
1,43213520777914
1,34693665283101
1,54358280570414
1,41662915593213
1,33782962379112
1,32257771105031
1,36401538811886
1,36582938053948
1,41392296061589
1,39775661739427
1,41356415553705
1,29634681400427
1,31254845962559
1,31025528732071
1,30552440358983
1,28937888479854
1,36923556776266
1,29713061506325
1,31461460368899
1,28979141525743
1,28290278157038
1,25603609831021
1,30030222685129
1,26151998872319
1,33029167129335
1,27325902515182
1,19618421534459
1,23055397250351
1,24342306977529
1,20854411874153
1,2176817817009
1,15534684939776
1,2232329398941
1,16266820501943
1,21863970559607
1,23084053575757
1,14601250959119
1,14862684126457
1,18518289696262
1,18266232810646
1,21041146840656
1,16602534248976
1,16611683103366
1,11716839565133
1,14375225761955
1,14090414785571
1,20160070819495
1,14774493465899
1,10753886803502
1,12164131466657
1,11638209458089
1,10789842806839
1,10277208098851
1,08711486889551
1,07328356010656
1,09281835420817
1,11447804761669
1,03462450993103
1,03349047276553
1,0678254729533
1,04250598454626
1,01189408036385
1,03755531718911
1,02769909485488
1,04769679747877
1,01623899861826
1,03418854962508
1,02725350635886
1,04022759496015
1,01804165563423
1,00852345606097
0,982358775839294
0,979990693217637
0,996168545525285
0,98923323983477
0,990587786649631
0,98084972963674
0,93150754690245
0,955270225496734
0,940758659513488
0,945761531942578
0,944502348458263
0,926364173404394
0,9064347149406
0,922370002416127
0,913007121430347
0,9050605540877
0,89895301104283
0,900527788334894
0,889646679140649
0,89271545811865
0,871802306307212
0,870338799776686
0,902060024023897
0,874576209120379
0,850007582355115
0,870528797091256
0,85064399149528
0,8392376895976
0,855211922501803
0,857621198076809
0,836716694887152
0,852143446245811
0,837730209872928
0,821220852176991
0,807926746098336
0,818674982401028
0,806384724816874
0,791546829457816
0,81438509083591
0,829840501830889
0,790398016326764
0,791645483164974
0,777525610810125
0,765151855390368
0,75641968502729
0,762748595806813
0,763016736275273
0,755898663507037
0,744716753229898
0,746087727042474
0,760034208023408
0,743434144775375
0,7306128835172
0,744673866926955
0,725051048301172
0,72812092183225
0,722805426944065
0,722070714644285
0,714205625263969
0,712725419940242
0,699769208728614
0,699170009042271
0,684628386986892
0,698781904769426
0,691929314163819
0,674590323327329
0,682724009919393
0,672007706802866
0,669806905928029
0,667699958457218
0,674551221728541
0,66639039159748
0,645683178639614
0,652748456805449
0,652866165472444
0,648439563482281
0,643288812959868
0,642685671583426
0,646611496533446
0,64134973898151
0,631056343456835
0,633581995851305
0,629454223242591
0,621368020797513
0,603764931838416
0,604051274858757
0,612903839080474
0,603688631800814
0,59857592760717
0,592498657370667
0,597160977985592
0,599242408626715
0,588345679867876
0,585435400361499
0,576689996259263
0,575985571570626
0,580966909337062
0,570627095431853
0,558888117707576
0,559803157559588
0,558247464163006
0,558803407320515
0,556552388296331
0,550652553198925
0,542007261526347
0,543884196586777
0,547177867539087
0,536696763329996
0,535687609046242
0,541064193933469
0,53619442379485
0,5315655514407
0,510964531752373
0,518011421467995
0,5226789136271
0,516617784940904
0,521177767108971
0,50971943580575
0,511070319100414
0,514334360690954
0,507162008393023
0,504967461448108
0,501435296653567
0,506236056997781
0,505435507936243
0,487465396904926
0,49400528133081
0,500864002974815
0,491658317261463
0,486661402339237
0,491352034166602
0,492011710712938
0,493452196243711
0,479688704559829
0,485483420410297
0,492369388986956
0,482959746675815
0,477646711368456
0,477363059663065
0,476736735955131
0,480186762020471
0,473399060510774
0,470697143263204
0,472690880577604
0,467594762412966
0,471745501555782
0,471977090088181
0,468701272288502
0,468222092712535
0,465961474718746
0,4674080031257
0,467128186079739
0,468532040279699
0,462858672358621
0,467467416450092
0,46456262533388
0,457062244912868
0,459001770597301
0,46254462500392
0,461615258266317
0,467782303906168
0,464907599717318
0,462159156587955
0,464124500327419
0,464026779864531
0,455265244618265
0,455176377488009
0,465298834845425
0,46645951640834
0,463425556008238
0,455976354226695
0,457583805663328
0,470581767926737
0,459129798505032
0,467193865724759
0,464720933350917
0,456730368385029
0,458160682142766
0,460517705358443
0,46793275753042
0,469035249167733
0,45742506319393
0,456390851652576
0,461517255937761
0,467206466696522
0,459601527095523
0,456236535565276
0,460032099032674
0,468357835663788
0,455386012067603
0,456901138076291
0,459523104445649
0,45065834166501
0,462653754764815
0,46280893625989
0,44606051822112
0,459599490599913
0,452760483757983
0,457299786923064
0,454419813643331
0,436845532193873
0,432656513016373
0,438368232418292
0,43879791890711
0,444298782350022
0,433506490390562
0,44122078022324
0,429426008566786
0,434654008797774
0,441365719039921
0,442029843462611
0,428684364998588
0,430472115301354
0,430888317471884
0,429123598103292
0,430152712191125
0,422328067082728
0,425747897481354
0,427999260740827
0,42107990411139
0,429637141318389
0,429684034565097
0,424355621104609
0,419610830255855
0,420075884715547
0,417034855721741
0,420906292498245
0,41762216008162
0,421191758442599
0,420299108629262
0,418397648126929
0,412849624702776
0,418601246357878
0,420747806067537
0,420784301189469
0,414695801066085
0,420620837476589
0,409639772404424
0,417276168472367
0,414738665887013
0,414213300787529
0,408663112579974
0,407327439562381
0,410850011550585
0,409130314977676
0,403409904803948
0,408892540985855
0,401447430662735
0,401900512418768
0,399174247849521
0,401067051254329
0,403659221814972
0,399067170271571
0,392470908416601
0,403449634000407
0,39401145336452
0,389167082255002
0,396601008721214
0,384448145024316
0,374639108110774
0,387881048544124
0,383232941194979
0,375584574480091
0,370532880221255
0,375152916373169
0,370507224797715
0,366526051370012
0,360965235652653
0,362879491835366
0,356369610422475
0,357505374943537
0,356754445572575
0,357097980946236
0,346973552890551
0,352696994701661
0,347068748727693
0,339124343366098
0,341795672263172
0,345854458692064
0,338976093606603
0,335382094339847
0,330773592018513
0,341212020084982
0,32983130632762
0,323275985294265
0,329924560978297
0,336917732143253
0,326573486370668
0,32612343065589
0,323584612556169
0,315917847321605
0,313871765609146
0,318655684709688
0,31064437168085
0,315089421666304
0,315075485910624
0,31485440951409
0,31012905032196
0,311277790177888
0,308413284743957
0,305815325184309
0,301849585657117
0,306831124919683
0,304114395337442
0,297817076469069
0,295437463491191
0,304607583499475
0,297228610223319
0,287807632842172
0,292514243494095
0,292644185710334
0,288276861459165
0,292280300287863
0,282928310642138
0,285711263085016
0,285821709653459
0,286553368147942
0,281194203444605
0,280182703406593
0,274741621329485
0,281366756258131
0,279473069786261
0,277306735187838
0,273848433980535
0,277647589277279
0,273497249078079
0,271182672514412
0,26968668144905
0,270131796132011
0,265399462834116
0,267990118174158
0,264654680303801
0,267949199514001
0,263416704206634
0,261737016842956
0,259328015908434
0,261310880507101
0,253673223578438
0,26011433306007
0,256355950599606
0,256200178614158
0,256570100927254
0,258164728837129
0,252947014011107
0,251513323462387
0,252232628062424
0,254172505376459
0,252764770508822
0,25368363948095
0,250407501526915
0,248951719466198
0,246485795782715
0,251339007353278
0,247658741173446
0,244140479331296
0,237498831434418
0,24517970529536
0,245642473620858
0,241326913405153
0,239232543812673
0,238483108344798
0,234454968138512
0,236180854105758
0,235247315165969
0,242329182447391
0,236166899021139
0,237072435657961
0,23157605101057
0,235249325565225
0,23174730233121
0,231341693971818
0,230766953601412
0,231666747103779
0,229721751438084
0,233153005186031
0,225880513703933
0,227280373233041
0,227722365236152
0,225059499435824
0,223455124382783
0,227114782836607
0,224200891719063
0,228410844035868
0,223866073268532
0,224614404569939
0,218944357717077
0,222216765958056
0,21942796011411
0,225971319572097
0,22256931592052
0,220519080691682
0,218747662483387
0,217195963000624
0,210847141519393
0,223170286548216
0,218850684863951
0,215525196422968
0,210992039532552
0,213969536710478
0,213695261471927
0,217884610220222
0,211908496242622
0,21321628581195
0,213643247259807
0,212238300349363
0,205573062135045
0,21216250604601
0,21133436914006
0,215055872749391
0,211650428052717
0,210256629465645
0,206683493615471
0,211559591553443
0,212202309727983
0,212131635593463
0,209975740347368
0,209764623871575
0,209677648492584
0,210090079971409
0,208384590551569
0,209710043765259
0,202940297342691
0,20396347492214
0,207201097737254
0,206142798781422
0,199795974437271
0,202351121390008
0,201970491812883
0,208156655353152
0,198412364316733
0,198848636685876
0,198947030191409
0,200817196296531
0,195442338814814
0,200398411116224
0,196652950205233
0,19501164944094
0,199150391353177
0,197656029038161
0,192421967278833
0,19739525469875
0,195334214541403
0,19791775256802
0,193517818345447
0,190954858174805
0,18821136154427
0,19369625394008
0,191591118396917
0,191001848180173
0,18619568416992
0,189941711301452
0,186999211043313
0,191067768463431
0,186310340355399
0,190181406753492
0,187303858244486
0,18368701878033
0,180510292879584
0,184983723407584
0,177866560848774
0,183797253016449
0,181997392479297
0,182193944188289
0,179540649695804
0,184357570644037
0,17927414527131
0,183430499216482
0,178337845865995
0,182666332138128
0,177753705207145
0,179333419794378
0,179672725596509
0,181037975904682
0,175118890083831
0,176998077652991
0,173226083016111
0,175827285127113
0,173824523617059
0,175420590963757
0,172036918730168
0,174107647456728
0,172896635524185
0,170982748207646
0,172804149521006
0,175387696493887
0,173943629897156
0,171090231498737
0,167105463856744
0,16662264441432
0,164113913591753
0,170584850737202
0,165485262858473
0,165561919165301
0,164738882159173
0,165030920112441
0,161651165396216
0,170635777120009
0,16500621258076
0,160977256041463
0,160232119185956
0,164620565249526
0,160195578191993
0,159606267025981
0,155837811125551
0,162592609873341
0,157045850825905
0,159616204837112
0,154162018355177
0,156083085739771
0,153522208899797
0,158426699460795
0,157763726454742
0,157668255222045
0,152226972458027
0,154303794707292
0,148555359551008
0,152342752235981
0,150895057916789
0,150374831940166
0,151002200625388
0,150966320469978
0,150797177316704
0,150798787164262
0,145465521507803
0,155690118983872
0,148965932160755
0,152120432039761
0,146163209256277
0,144587609897964
0,14433210432462
0,145062055904372
0,145299478660805
0,151450028128904
0,145599360791809
0,149885984945702
0,148318414911715
0,148490870925409
0,144578971088634
0,15068210953839
0,146785137410855
0,143693828545929
0,143007928050778
0,144878549128753
0,142296221330562
0,144775419978854
0,144578294547899
0,14652267795059
0,141322288465784
0,144203761656524
0,140263253254456
0,145320277922509
0,142605813378748
0,144431178564245
0,14014131204866
0,141035663538848
0,139271805873895
0,141707694625153
0,139558185969454
0,142191601764197
0,142231070895443
0,136637599986884
0,14056324089536
0,13786874144461
0,135149666511737
0,138921155658112
0,137422220317455
0,137355110233958
0,136086366134097
0,136749376256626
0,136247920162729
0,137668523564431
0,139019432777163
0,139153455411415
0,134643827096536
0,136024853908101
0,133526889627227
0,134917333552972
0,133600258229101
0,136761903360779
0,13464897990995
0,133603496849585
0,135576229702465
0,134017427819148
0,132355888933136
0,135176180419415
0,133496070859969
0,134902703685891
0,130856123674703
0,136095427245362
0,13228265529956
0,132791264728162
0,132705312914825
0,133701500609941
0,134675627887993
0,13233684125164
0,130874362101421
0,136337833808272
0,135217279802306
0,135989545770063
0,137245128369544
0,137486222539662
0,134305683734699
0,134924888222625
0,132556189932085
0,134133205741361
0,133431490899232
0,134737840753491
0,134181006424379
0,135686498606606
0,133384018831341
0,133177717570188
0,1313614611568
0,132857329857037
0,131751913433812
0,134912131013551
0,13376151529357
0,131971641175388
0,130093132259405
0,131126758647396
0,130077167232294
0,128316827820874
0,12700218123224
0,134467626984184
0,12822479721519
0,132285657082652
0,128991810183969
0,132974521522378
0,129304481283757
0,130902685967447
0,126992972490462
0,130306918248857
0,12643276372591
0,130297408234036
0,128268531383784
0,131180553879787
0,12717524754585
0,127945353759698
0,128173709749375
0,130483455362308
0,129027408971634
0,128831340631853
0,130189471578164
0,129303556266292
0,126108549143958
0,129774872013826
0,125921970036572
0,126503655439392
0,130077138586262
0,12940319076739
0,125748071176241
0,131211490387119
0,125275051793369
0,131316938593619
0,1272923554475
0,127878671851324
0,127619660198422
0,127057523070221
0,126349224454676
0,126111777237102
0,123590295063538
0,126903701139773
0,12753189506824
0,126302741072791
0,128520887387251
0,129222709593336
0,126805509505135
0,127727344092413
0,127695466431126
0,129611039514011
0,127961241093371
0,126208082006588
0,12268688542365
0,126654886509913
0,126135088426077
0,125005953802696
0,123313422206384
0,12661521042851
0,124377730310577
0,127634292680027
0,120400906942803
0,124659207985152
0,122909905006691
0,121877083263024
0,120216574451761
0,126560229105685
0,12182093435168
0,123632095257203
0,121877779742096
0,12274940808017
0,121084706158795
0,122595598814981
0,121360350636683
0,125226247654919
0,122366329631468
0,122651314463263
0,120503462185901
0,123248438930451
0,119081781858763
0,121580358694072
0,121506647289994
0,123235109276854
0,120724365459449
0,122517467087334
0,12173246728685
0,123274387623219
0,119114421228878
0,120122529003124
0,119708122162473
0,122291007724986
0,119824264652804
0,121268381647716
0,122469984371171
0,120869371209433
0,117147045799378
0,121949861433068
0,119616971797812
0,12052027218549
0,119912012595646
0,12182711801765
0,118826150275778
0,12778349943842
0,119697740439898
0,120319854394664
0,120861977790636
0,12143121861289
0,119313154235988
0,119403267384156
0,120754088166923
0,123896157952064
0,120748619998564
0,122204849994387
0,120991456132514
0,121439788148281
0,122788872209502
0,120151502296408
0,123419704858603
0,121645588302207
0,121284115580682
0,120116401285424
0,121562447733998
0,119529123148483
0,120134700468874
0,118407532213963
0,117399072028494
0,118838206725127
0,119464590563368
0,117575245014875
0,119845795091071
0,120376462417586
0,119299385327536
0,122685466362464
0,119927659982803
0,119453003524384
0,117913904446758
0,117343401968837
0,118134465208011
0,120502668790936
0,117449212777522
0,12063581292269
0,120170593303726
0,117487960728139
0,116595721147438
0,119367528325929
0,118965221034795
0,120463498814517
0,11751339703043
0,119076841389446
0,119508096949772
0,120981235356272
0,12021903665677
0,120320241497974
0,122587768602739
0,123575711250763
0,11915499635874
0,121993139596217
0,118803413736848
0,121398353765129
0,122551856994306
0,123148508578552
0,124262525922188
0,126278276015327
0,128578013405602
0,125992816615352
0,12656664789313
0,126932095530803
0,129198011588142
0,133370231015903
0,132550773414906
0,134473648952448
0,131995324338831
0,130629166763074
0,133744172429437
0,12813607678608
0,127261558239194
0,122630367125605
0,133041642812658
0,137544923663152
0,130086221450518
0,124672074752374
0,125481169162987
0,132175152488554
0,133683713885515
0,124278310694045
0,134348669000879
0,125482091845011
0,126332714657589
0,127218500956232
0,123337267131279
0,124141558435933
0,128035687834643
0,128668919728776
0,129648859027185
0,124581253922847
0,135481489997757
0,13162786635188
0,127981114297387
0,1188260518837
0,134900756944186
0,123323553835667
0,135725493815365
0,120373924400654
0,133679594066361
0,122479075591634
0,138836635156821
0,11833187700391
0,138203000200319
0,117684480284683
0,136230162259878
0,115824477980447
0,140720191121893
0,107469683648699
0,143024945429959
0,107033098519452
0,150143190534986
0,114535875501033
0,16547640761589
0,111179155049954
0,148789766062822
0,107140891645262
0,164563184694575
0,108575034050548
0,164577537091661
0,0998138160771679
0,1673382115445
0,1114905642092
0,160417824214663
0,113749748960005
0,15564661127991
0,127626063222985
0,144929923150327
0,131191146959724
0,132623085222385
0,146253505545916
0,123456012656981
0,154801596261269
0,121118864622133
0,155279917410559
0,121009123039293
0,149738804538324
0,123647952827257
0,144054920500365
0,131937645144323
0,138565861363034
0,13503975198949
0,13585099902042
0,137582566895264
0,134156533338885
0,134299742499659
0,13325201093535
0,130236989962967
0,143011458364731
0,129854145450591
0,133360855280999
0,129552029107208
0,135407498482407
0,13223380763256
0,136391235854625
0,128839141426448
0,131862986207413
0,13378992169971
0,136595289546817
0,131015786507893
0,134615162002095
0,132235005902683
0,134693819519878
0,1320209251431
0,133070984327583
0,132624007482671
0,138629010582974
0,133814089730327
0,138094337601222
0,135104275100432
0,139390898274715
0,134374590267977
0,13838590654162
0,1353430070612
0,140268009592139
0,134689963100523
0,140827853647418
0,137380134759366
0,14029664751313
0,13739367817229
0,14177189101532
0,136615954128702
0,141209438793077
0,137123569386085
0,140656503403195
0,138212896432941
0,13981242365114
0,140117838572925
0,139214084217234
0,138735138954669
0,140921030354497
0,136898117031492
0,144784068793614
0,140031762033637
0,143348645062523
0,139493237424516
0,141570419496506
0,136720951436755
0,140975643522827
0,139525011116185
0,143314349138851
0,143038427397024
0,14593977173988
0,141850545278954
0,146029596491017
0,144925106715851
0,14549914835152
0,144482899605643
0,144828343078913
0,142840561055755
0,145354620669523
0,143593471769689
0,145522050853288
0,143079482278542
0,147371493983008
0,142352508411627
0,147895103500917
0,142678745923071
0,148350247056734
0,143433653059134
0,146247735154749
0,145725558902203
0,149018953197971
0,145552658371644
0,149445445488245
0,149230094672502
0,15067707079351
0,147731214939282
0,152484324902342
0,149781792844781
0,151127384625369
0,148043878677107
0,150776077292887
0,149189431504
0,1540893698324
0,150931548770414
0,153784980837197
0,153348737934788
0,150900152177037
0,151636587487286
0,155766754898715
0,150396095480359
0,154378362766675
0,151277988202664
0,15376875920107
0,152394491411845
0,157466965103656
0,154366464815079
0,155868443591546
0,155105525784209
0,15779031559629
0,152851510344013
0,157173174862777
0,156507025898779
0,159120092995365
0,158739122248154
0,158182424840727
0,153010626558335
0,15538277070411
0,158733122009236
0,158197581549505
0,15691360797169
0,162475054227911
0,15897183671435
0,157440826419605
0,159031220772878
0,159475383052193
0,157541515689133
0,161240295787074
0,157788342151064
0,161164756876782
0,158838900580123
0,162727058140502
0,15730386229931
0,160680414488343
0,159428617714527
0,160863808429961
0,158622554105002
0,164072221471683
0,161805821025634
0,161923676642691
0,159477967327032
0,16466015704074
0,162805442394258
0,16547630080871
0,163295404745751
0,162418062352435
0,164600620275079
0,164910482214611
0,160944145313174
0,163478769156612
0,164591306015348
0,166352380606379
0,164777843982882
0,166195897801176
0,166046812190746
0,167284759038175
0,164411061668153
0,167475382147467
0,165764616098271
0,169433144306068
0,166096921617171
0,167857721464994
0,169434625020537
0,169546673972519
0,165368062169228
0,16703752125746
0,167546458344893
0,168093912643182
0,166742882348947
0,167551315348845
0,168559801004511
0,168214631277683
0,165899913995092
0,169452151375085
0,166593811344347
0,166125177064186
0,166379227881343
0,169917058206523
0,168102836937375
0,170381910135631
0,170809054067289
0,170449260741395
0,168438207795506
0,165954835243404
0,169391377256153
0,170308332761461
0,166388975733019
0,169569357758392
0,167588159662722
0,170266422920449
0,165473522046354
0,170249379425602
0,167183334934748
0,165525488221949
0,169488513657377
0,169234568970006
0,164942581920791
0,167006188286116
0,166983791278348
0,167858707493551
0,168469422287042
0,168040856639908
0,166353815439577
0,169428295695425
0,165397155891919
0,16866751719013
0,168023454764089
0,169675639469161
0,167481539248819
0,165510168382622
0,167342336829985
0,169565046247447
0,167903741823615
0,167480370786325
0,165594093572737
0,167942921210039
0,166964912517894
0,166939088613038
0,164910838563097
0,168692940392548
0,167239785602543
0,167159371267747
0,166556864224865
0,169269523698832
0,167738515054951
0,16751336208409
0,163802790825022
0,163693356254199
0,165584401593181
0,167318487598035
0,167378690257011
0,167405660919794
0,164518375348598
0,166966376681291
0,164914494417893
0,16628599289993
0,163392941316608
0,166123312588592
0,161830969475078
0,16469399855697
0,163925464540586
0,162330459155668
0,162013249876669
0,165225416739834
0,161632608529998
0,162494378545388
0,162069479898048
0,163114061469794
0,164023111022187
0,159935878665571
0,157689341952107
0,162261546042761
0,160034744766463
0,157571743424998
0,156604260309618
0,161228120535186
0,162383140014402
0,164678602827179
0,161941653988626
0,157726390149033
0,159507025496678
0,158633895864389
0,159372094293637
0,159183475742186
0,159004668809961
0,157207130338204
0,157596946939441
0,159224238151873
0,15949857736144
0,15799941334949
0,156528544092405
0,157833292674416
0,154244879497868
0,156321391815147
0,154688724277007
0,15472997237999
0,15507388026779
0,156044579566256
0,153507408437625
0,154319240507965
0,15766406578573
0,154749494609972
0,154339550877484
0,157177860340788
0,153797704770279
0,154927763508557
0,152662771929324
0,152923396106839
0,152882135221603
0,151474519486989
0,149650353720837
0,15165484944739
0,149971337284635
0,149543184033413
0,150026714516845
0,147838234700915
0,147797953028032
0,150637689872022
0,147540083682942
0,146495359048665
0,148157688923423
0,147524987397561
0,14530449984246
0,147715894209952
0,145943252240154
0,145293695920232
0,145209705079232
0,148100211417229
0,146937493479387
0,151998708851186
0,148997970788248
0,143904220119609
0,142574926012012
0,141911765447114
0,140943951290491
0,140704843189669
0,142936090714607
0,144822039801106
0,141354847720247
0,140302452469026
0,140299010346766
0,139739003451814
0,138288317108675
0,138721440585755
0,137615099490491
0,136513313287358
0,13884484993305
0,134240289533371
0,135860398141015
0,137764995745871
0,134514000594784
0,136208752923737
0,137828215137923
0,137132111528699
0,135873576261956
0,147711111984888
0,154884691719295
0,136276994353569
0,136825960070092
0,139948862576679
0,13918733917219
0,133336483219221
0,134809486059749
0,1347076657493
0,133297106002847
0,135394086312096
0,13105087917203
0,131915625485504
0,134162122877731
0,133526512633359
0,132276079016708
0,132147408266099
0,128508775324392
0,130197265858537
0,128906296278108
0,130609765327411
0,129661062383543
0,128760253170615
0,127914997121418
0,127186339589387
0,129037556897768
0,130062751234651
0,138325460833779
0,13519544592743
0,130364958654479
0,128049312928155
0,12672687209857
0,12403478482082
0,127295965732985
0,12836765349423
0,126105566026954
0,126330333580188
0,125247998472961
0,126487894755142
0,12568530051118
0,128445787852637
0,129200626010426
0,123070655668285
0,124280417837471
0,124601124939668
0,122349836518563
0,122795664642308
0,1219458457852
0,120351685944446
0,121976840893337
0,126162206618671
0,124014934438194
0,122400545666497
0,137391493206624
0,146748984781989
0,125591313268632
0,123545681701974
0,122359347871449
0,118956824832448
0,120368989033185
0,118112633158188
0,119286638421716
0,119767958162431
0,119879360697344
0,121553160531947
0,120226189138788
0,119671498269274
0,120202461301299
0,12022793888437
0,117527018099757
0,117959412073058
0,119452946800496
0,120562228647925
0,118461225964848
0,126042609214888
0,141823487729693
0,127853281231895
0,119030380164197
0,115867071264659
0,122655902156657
0,146651188899761
0,131139496322904
0,115166701950321
0,119078146654737
0,116584051295026
0,117024299774293
0,114697634740289
0,114419260963162
0,12322780156007
0,126609956521204
0,120383171065293
0,121009352336149
0,116892691131439
0,115718811079172
0,11532079460695
0,114877305688124
0,112637984867219
0,115715009265699
0,115406833681891
0,11201720134403
0,115326986256202
0,115450600780185
0,114075030158349
0,114692834245658
0,121298219885431
0,12553141971985
0,117454185378225
0,115913786335159
0,116204195177772
0,116347512403955
0,132926349265191
0,138488438634971
0,12023302924743
0,115769840927373
0,114257567384731
0,115591425469124
0,117462824468084
0,116401283554851
0,116250829158252
0,112338270914488
0,113497170299707
0,115092199476748
0,114243034514296
0,112400226463303
0,114213354001606
0,1141221759344
0,114045804385824
0,114667471482499
0,114324397221004
0,113385733303189
0,113742002528828
0,120746619824001
0,14561225914486
0,148626534351017
0,137855436647279
0,132742046273434
0,121545151684904
0,118317867833617
0,119208078937372
0,114133872745676
0,116607552333189
0,117640146711474
0,119236626977363
0,116203624894884
0,118772116690585
0,114176353653957
0,114807820307355
0,113144312919012
0,11409550617731
0,112190905508244
0,116021351399781
0,115542313351817
0,115006618342937
0,11216304767616
0,119013262306553
0,127055855574995
0,129379348583145
0,118298421053871
0,129532144542563
0,155524267974123
0,147717302108377
0,129483203945926
0,123114093305527
0,119271650950178
0,115321428095347
0,116461340775788
0,120668526542745
0,125595575445822
0,119466849963591
0,116213142301143
0,116401353576841
0,122776550230131
0,115603032344691
0,116081147194689
0,148100926872645
0,165596657681118
0,137303440283135
0,12339030914103
0,119209984268724
0,14560109373218
0,155856706147156
0,127724017981498
0,122751800459444
0,124430706558651
0,119039658161539
0,120607864798282
0,119367808874544
0,124755032333104
0,130392851015922
0,121847851788601
0,120982250102568
0,120386468042116
0,11820450628091
0,125689253146346
0,131544279493548
0,141279794841694
0,138814961984745
0,12672913930538
0,132520616942146
0,132469127226331
0,123073070252048
0,126416629095662
0,125562266292212
0,127844274446358
0,143507254250081
0,147559567440259
0,142605091678997
0,153081018478034
0,144646760499574
0,131071443407174
0,137364596028934
0,15032785571527
0,140080520378778
0,130423235759915
0,157415653950905
0,166187605187296
0,171874226430047
0,152602420596112
0,141447633467594
0,129799967718023
0,138566183948466
0,12420734757363
0,143992777764528
0,155641762902393
0,147100181582008
0,131568552727422
0,138554486022153
0,151309192822834
0,15870035027166
0,148726860884824
0,145611412342978
0,136670091371122
0,143903353819041
0,166418429161465
0,147556366953564
0,154134551969375
0,184870402268497
0,189344540610561
0,181720742023592
0,151855372261186
0,164623628656399
0,183579739142863
0,166147902309638
0,150643358137318
0,152367853762448
0,152427759007535
0,148876776336947
0,175737247834077
0,202340156781045
0,168819158203493
0,158577460883667
0,161767795603962
0,170396493813068
0,189266492087787
0,179552788126477
0,159532751537
0,167237990531638
0,160779026299394
0,182251911285761
0,222435183341994
0,202942443688002
0,199935514285524
0,208025983352766
0,206578893489472
0,191963553444707
0,193787594722169
0,183250248173344
0,212565296809131
0,212974508501884
0,18879906182572
0,179427635509217
0,226409002925747
0,209894112812015
0,2025394711287
0,193283980934243
0,197352939591831
0,202568941208253
0,27131574707825
0,276562563465962
0,244305793302464
0,211053685157631
0,229924025187768
0,242788867272508
0,225759406565415
0,209125509613993
0,217134094161958
0,219574239083869
0,217868966582554
0,228870331995968
0,241630134969518
0,233328525395017
0,241551496737186
0,23540063277599
0,253030216440132
0,284579937341188
0,347360106693374
0,290141694850746
0,296271157420191
0,293261535068271
0,307565264008026
0,282982258081216
0,276530747420592
0,275235467130658
0,292527155641787
0,294540884818389
0,292186347344212
0,299706419483491
0,332612546268273
0,326076670343497
0,354291353855733
0,333256138114333
0,338976244651682
0,324765838026257
0,406552178125348
0,496373217204066
0,41153319418947
0,361963721362621
0,383493134673141
0,416107227044188
0,459551775374654
0,413120335150085
0,392670084188515
0,402882511393175
0,403152100342083
0,423491455512624
0,441447235431971
0,449502248706671
0,468298850987739
0,453468462050058
0,465754105971887
0,505621426247375
0,601073492167408
0,579239636238694
0,517737278165049
0,504415939975078
0,538605172348874
0,53784221633344
0,528999058386142
0,544709190901646
0,544394605537989
0,5907464062554
0,621770250998913
0,604670367869831
0,574383392407875
0,622262035006652
0,632982291792693
0,634031511845684
0,671412815192183
0,69035583578555
0,659242097227618
0,645145781370535
0,671852181948556
0,663988967014535
0,688416221417376
0,719991170054311
0,730919263667213
0,718470298477512
0,719745169288698
0,722665373522592
0,743008786708798
0,764994774115763
0,760609136190054
0,777903793779094
0,85513574226786
0,921066059688225
1,06062642433516
0,839834701875231
0,815611130276642
0,800488244474882
0,815233101359078
0,866021480115613
0,922112965938655
0,946525992652874
0,895613016484441
0,838642706140061
0,851506213671002
0,862182677147092
0,853587549067158
0,880008426045957
0,853536793586992
0,856415261745266
0,922533830899345
0,887860782326697
0,957769373090392
0,983302679010526
0,897270886557939
0,833339594134279
0,858879643988206
0,831751264141927
0,843221302722427
0,832051654860419
0,889558702633025
0,849070947295326
0,860870005189651
0,814343824039068
0,826824806925197
0,862375426694291
0,864166644856911
0,797361458418945
0,79102470510829
0,76838367628
0,780729097069335
0,753549844493996
0,81392934977164
0,789186579363803
0,751678919466761
0,711119474588714
0,70789322593235
0,692732734890565
0,704430489409532
0,666803159969959
0,687216168405211
0,666650723780937
0,671532991444351
0,650727536115858
0,643427723862909
0,614804308176605
0,624739237000833
0,626132654773732
0,613740518734086
0,59915343339556
0,603881643412895
0,591174688089374
0,594410455688192
0,578420850537202
0,580425196999198
0,574613183204893
0,573043886240491
0,558144109109728
0,560638848210122
0,549910458388141
0,543471439114718
0,544125294289967
0,535626191421534
0,529840364584286
0,532478720796058
0,519057103497182
0,518294762749855
0,51991631387163
0,511229700265484
0,506544831864568
0,505625309929183
0,511042681951675
0,499579382896673
0,509123286179222
0,498619971886395
0,519296462838947
0,59955796849664
0,536316340588123
0,512534403551169
0,483439078545179
0,499536125545897
0,46502504554781
0,492713433776922
0,53932590906593
0,529835936732282
0,485774654175366
0,47986216571143
0,47153775332949
0,508939691977788
0,477350073692419
0,488085695817642
0,456143164277791
0,479286529515523
0,544316481286965
0,579076658847083
0,650669912392203
0,594507870113725
0,500454273650779
0,443248769249165
0,5188261902358
0,500880122954828
0,474810399623795
0,441238076060687
0,449221447516259
0,507078017747245
0,464735689950576
0,450643925788847
0,430421543509002
0,436940653947681
0,472734393464984
0,475179675062264
0,459936031239103
0,500428776884095
0,470531928929855
0,46648705709608
0,52226680102856
0,552772511365842
0,460055316528027
0,414207020908712
0,417435150525731
0,407994701453856
0,434899351804922
0,46585767706832
0,441809590817367
0,437052454280276
0,394313036997004
0,405357588912623
0,401801511193449
0,453107933516984
0,396147815444367
0,445583176876652
0,413635868971405
0,406637643838492
0,406736003055136
0,437313261510533
0,479408612664345
0,46473942229458
0,393807184839308
0,374975531871041
0,448768443309492
0,426965059423017
0,402816317360703
0,386258799648014
0,353855521026448
0,384677486127943
0,379723469947081
0,362141312568103
0,390776555786774
0,389789617325537
0,426408313179922
0,451602912920763
0,49154798443709
0,437492568656623
0,361604139068191
0,348688705097256
0,329951812155378
0,356370372174941
0,333841802350848
0,339331911951118
0,387340012259602
0,334712176889913
0,374662758632548
0,382027787756444
0,355716819433472
0,331128012852913
0,329622773667345
0,326718548152811
0,343417639088068
0,383209507947589
0,406078252153003
0,348828031250569
0,372696641883985
0,355388246247527
0,354246153464482
0,330039992586948
0,337787536980136
0,329591866064268
0,346503942737631
0,353289151427802
0,349651134322303
0,345202846652379
0,348998776850823
0,344510561177807
0,421736928634889
0,376123436381914
0,378968636698694
0,392384208415299
0,43086445938278
0,456649673327702
0,399074226326495
0,39033944564158
0,379031651199524
0,388896080519019
0,391921372629661
0,379527153726074
0,430782599012753
0,428899735048528
0,409918506993442
0,395502410086518
0,404367702489177
0,392373522833849
0,420474615952606
0,45130296465494
0,448961978322608
0,529693873590032
0,482082178898502
0,465522648421465
0,411831981130093
0,420873023094584
0,422353378972991
0,427224925281326
0,417316468539042
0,406678103657141
0,439179311637605
0,451401293754511
0,428782485307714
0,431465048747039
0,426984036029472
0,428907721062786
0,42492771345454
0,433671740452989
0,433455258307023
0,433839903791167
0,437260240217311
0,426639498820081
0,467626744609391
0,525541037393475
0,458773939207839
0,448019446829212
0,443494208373413
0,465733952694731
0,440708430649781
0,452636174979043
0,473678529228011
0,4636502772255
0,459774763434487
0,445146516104833
0,456337885930536
0,452038270801505
0,485747818744409
0,487608961531942
0,462335020174436
0,468485899377464
0,443962297262341
0,556882231428642
0,503816706315156
0,519754723739656
0,488071704745602
0,493850950020969
0,467229652440568
0,473654182326539
0,464174461193013
0,482884401216887
0,46893029813417
0,479693137992143
0,46751976355011
0,473286540538143
0,476845296367941
0,469787427665169
0,483172703676301
0,504276202595749
0,478442930254716
0,47426518936293
0,471282214099206
0,468347061387007
0,471083648136035
0,51110260455079
0,494233892703526
0,487627784167686
0,470486117131927
0,498260283420957
0,507851348303092
0,489460098540888
0,464228785447491
0,471598554712306
0,461469041426062
0,48636320325645
0,451361535168934
0,505005584751912
0,514345685494101
0,498411139910275
0,468289636233846
0,486090455434941
0,472190861721372
0,481127421750003
0,474993060598986
0,488856239175408
0,481337201089106
0,494814040293698
0,491842380335109
0,49272612183518
0,493098253769461
0,504155160336395
0,53105981559056
0,510360231980436
0,488615223149718
0,498032721926948
0,471910399405481
0,490995951842894
0,490839960538188
0,493932272769805
0,468741061187602
0,482025356782556
0,456676107279735
0,494540375638368
0,513920631608056
0,482939467939082
0,486167208482877
0,458908040846025
0,461521134044487
0,455209526689853
0,455779917695642
0,452670691056324
0,456597660188567
0,462646277945821
0,448021534281108
0,450179342033352
0,446813648332911
0,446431990355272
0,441787568500286
0,45182324802913
0,438105406859968
0,449182862741818
0,447307940140466
0,447152576221539
0,436258534834917
0,441601225531809
0,435289898702708
0,439530509085657
0,462344573714656
0,464072057644197
0,468349998444601
0,448607662006657
0,451712884106834
0,441298347914817
0,434064488857113
0,435154776251605
0,440602925452274
0,432005583695596
0,434050120389238
0,438712027988935
0,432094400250422
0,434710088333471
0,435341252880287
0,436223970556849
0,434902314993921
0,438349069560916
0,429187213070488
0,43393311520575
0,428742332155762
0,436075629809198
0,430837900435802
0,44874939078418
0,439034843018738
0,447937243366708
0,43680690669855
0,439557528357814
0,432203520612794
0,437717308940266
0,449258433422283
0,436942894726331
0,429342555208621
0,428318877786837
0,435447509465681
0,434262674772783
0,421643488211752
0,431805794242635
0,423186327810316
0,428793658579649
0,420166988309286
0,415749713449593
0,417819434022929
0,424036039173998
0,417000988090959
0,416560987802406
0,40360667633734
0,41396900895353
0,412193402588243
0,412536516915473
0,407106831966615
0,408881299679115
0,405862273612498
0,408867806599035
0,407578947140587
0,406856940610406
0,402888714485194
0,407355081980017
0,401248288256921
0,405090944611756
0,400503086643032
0,400310454154251
0,397548926818344
0,403547925483601
0,394442723769285
0,395224845608676
0,396744983570468
0,397635886116781
0,390840210688514
0,397002244484727
0,399365226646332
0,397673628508509
0,394928750160722
0,401787645790621
0,403504067531722
0,404097868432999
0,405046489088402
0,407904034634388
0,412995335911263
0,415914218623485
0,415667690024716
0,417033007439382
0,415608010113187
0,419466671419839
0,418274990445641
0,420511813870284
0,418880136397651
0,423771705078354
0,422161899295974
0,4215280812546
0,411299037681527
0,415873479220471
0,415892925092221
0,414225457907992
0,409021815970742
0,409229448170288
0,405836083522912
0,410207314696556
0,404578254206601
0,408919855432412
0,404936447838027
0,407013443548225
0,402151095248483
0,410833735404238
0,405672809033959
0,407298057303282
0,407849385715437
0,404152666795194
0,40269307124611
0,400503661499584
0,403522994194107
0,402903245576617
0,400708356884963
0,402817546441629
0,398931231697064
0,39946402594185
0,39808697921042
0,396689348263244
0,396934804883572
0,395873556762806
0,395691898539722
0,394497045985089
0,391771080822462
0,394167966707538
0,394078341878707
0,390029655220865
0,390384091964234
0,392281386041201
0,385405496146952
0,387422363652258
0,388286172307933
0,38701249559208
0,383529227392613
0,382994352977883
0,377990231480272
0,37696682681387
0,374377585376544
0,373647050448307
0,370702468662204
0,369024136426852
0,370055222567356
0,369334541314061
0,367156603465184
0,364380955423012
0,362873122379324
0,366092467508207
0,363931372581509
0,364709329482524
0,3635646261328
0,36605971400965
0,361181004195744
0,363954756223452
0,363111765323673
0,358385407104338
0,356959823673376
0,3558235546962
0,353735777445969
0,348291998653461
0,344218098208873
0,347909655097378
0,344146664847453
0,342280707208361
0,336423098636457
0,337529486195559
0,337495346763943
0,337848121158979
0,337128840644881
0,341173385883898
0,340535404025478
0,342140740776589
0,344715766299055
0,346195112545874
0,353465683253593
0,361404168332731
0,361042154686624
0,36755068159109
0,370689048791458
0,383928595288574
0,391520463759173
0,400828449110943
0,40941439677569
0,420358035713739
0,430915364046765
0,44110516047279
0,447524968780697
0,456247294960871
0,466818617296244
0,476075652267068
0,487033033019444
0,493048246216434
0,497723746406481
0,510008424221569
0,516515875058474
0,52532721905962
0,528513242538442
0,533678372024092
0,542469776172266
0,543653182411031
0,54560418505075
0,550606226904311
0,552400881283431
0,552702230673465
0,557441354308337
0,550050211090339
0,551227641942345
0,551111696518086
0,555179211338349
0,55598242625703
0,554392852476151
0,554274207125891
0,550853181102689
0,55078478335512
0,551630438963677
0,553431826051536
0,55841225531726
0,559638281460605
0,556351618274292
0,562558081648168
0,563154308398558
0,569939665021349
0,573905503178224
0,573949469532698
0,577311718756494
0,580657565802552
0,583846662603587
0,591732971388844
0,59706263022925
0,603398421852346
0,612022237924952
0,618010500482032
0,62216731273405
0,633139838333218
0,644494519161593
0,647257238261771
0,655503971560077
0,669435643366996
0,677290285074433
0,683700230222634
0,682184803792467
0,688088249120114
0,686169652366631
0,691803882343043
0,693684076605694
0,688888609279198
0,686931383253358
0,684165195290867
0,676404357605389
0,677611200162826
0,674113744674756
0,665114958899497
0,661049850589474
0,667772346058069
0,664208497162519
0,673068729918367
0,678377224469498
0,683340496773443
0,698965873071287
0,704150574728901
0,718468151148165
0,724409216353432
0,735725232952616
0,73739347340043
0,759740411329444
0,764377860252667
0,769306635171089
0,770689800862931
0,787616649689074
0,799735165316722
0,810218059584967
0,817306287364556
0,820366100346378
0,831048708576203
0,834776028464373
0,853507879943753
0,865185266004124
0,881001932712952
0,890819030988241
0,929530970885708
0,92826607582643
0,943009707223766
0,958897153716417
0,989431444148699
1,00458966209599
0,994782344214633
1,01148222274261
1,02662328249622
1,02227691796925
1,03229698701444
1,0422977005243
1,07040752585643
1,0684639708319
1,06499912327368
1,07191291084763
1,06057690284863
1,06264248420803
1,04568450653788
1,05367669769541
1,02663927027327
1,02375995556554
1,02323079884289
1,02941857304277
1,01951897130387
1,01249558351591
1,00679582334796
1,00075917762695
0,993096029322689
1,0049344118112
1,00312366060752
0,995418045096592
1,00293592876079
1,01689055936069
1,04228328097683
1,05368414645013
1,03961466603361
1,0459483724901
1,04106200057349
1,08465094168234
1,07764840182954
1,07733312824544
1,10262062342175
1,08396788289392
1,10401280375265
1,09011310415706
1,1316980590036
1,1018010635833
1,11500865157765
1,09418916133433
1,10087546633585
1,11775156386228
1,11251260256448
1,12854256014864
1,09886470462001
1,11856216521291
1,10998788269183
1,10588471523324
1,11226276117161
1,10609808108483
1,07169775590439
1,075212686074
1,05692918418906
1,07611690283964
1,05476496796589
1,06992718964635
1,06289251949004
1,08045043970313
1,04148090295261
1,04135906499429
1,01520515760755
1,01989792642511
0,981692344484829
0,982382370151011
0,954992633088123
0,93000398806982
0,893674404326501
0,866326948071436
0,840403615978924
0,814734726626187
0,795858118327262
0,769865718457073
0,754216871094835
0,731532276458164
0,718059360176357
0,710345753475677
0,700226597916631
0,702343486357494
0,688948020025973
0,683512456499046
0,70685855773322
0,688533556152609
0,697266426636516
0,692250657234227
0,680314946616336
0,681005094202119
0,680464052655676
0,670263896141639
0,670679510107479
0,672905451974169
0,658597550676402
0,660201157211467
0,653724004685543
0,637862436454302
0,633280778693345
0,615166773404732
0,616332427139845
0,60173869705126
0,603182745779184
0,589472106678096
0,572119599996879
0,566581663695268
0,551287031885816
0,543245145519556
0,537366884782336
0,52935559452152
0,511904811462971
0,509511710330296
0,500342389737966
0,488082226844378
0,488461681092306
0,48508797581855
0,472782709586189
0,4691804322403
0,466191517125657
0,462451738024121
0,460207928321409
0,46011355016324
0,455171583882847
0,456753059196728
0,445664984206291
0,446689430183852
0,449116494128449
0,453519015772275
0,450336012588164
0,456762883271166
0,447184258653931
0,451759301923238
0,455057165188956
0,450491578875529
0,453685159151505
0,45460893736382
0,463301096252543
0,46266753876285
0,462282219408813
0,464364670534118
0,464833965686796
0,462566678262836
0,460387358406835
0,460842760597668
0,462006001696718
0,465813485799774
0,460175066869092
0,4586693809266
0,459120637770679
0,468109029917675
0,460805563552407
0,458619705955024
0,45387761882508
0,457482255745958
0,464986200251778
0,46690001630577
0,460927180025403
0,466160510804669
0,471710575498184
0,484524615269678
0,476993224247472
0,481185609408514
0,485942864735695
0,492626717837707
0,486425914778904
0,491726536026765
0,48655858250453
0,490308245246627
0,491451873027312
0,507200076309782
0,502837956582592
0,506795937013604
0,515916067596494
0,516969161533584
0,519408432269455
0,512578350302738
0,516216158148028
0,534128286864779
0,521734138907631
0,522939020972991
0,529337676099857
0,530239179273322
0,530839455595968
0,543859562409714
0,547458213432855
0,55460184453694
0,563032709749551
0,557210235204062
0,553498450549445
0,576553432986576
0,588602904843844
0,591210848866005
0,598682938453477
0,609694921613335
0,609092701179211
0,63240169689755
0,62755406530207
0,631797545803129
0,624898644208567
0,634071542063733
0,63247966809807
0,633969908446387
0,626624914765909
0,640260085565722
0,642750644187004
0,644005406664925
0,633860074956425
0,64131161804635
0,646352561854007
0,648679160484136
0,647726013469307
0,658669471236726
0,662256063769602
0,650289775970484
0,654362764696822
0,653336734052745
0,644956214008595
0,655410768317308
0,66596690855146
0,67223693469832
0,654732259622821
0,65490459793694
0,653868796852285
0,674963109686167
0,681220880825613
0,677685810928589
0,669042374470014
0,694640010360607
0,671216564246411
0,693071858467683
0,691094281454607
0,683180293009246
0,674220050712984
0,690945804636478
0,674958122622691
0,703772920102015
0,690604008982689
0,719630414542445
0,709974225195916
0,71697502139771
0,716944447615557
0,714050529889484
0,686540137560185
0,707667897927106
0,69823197390447
0,739176375897237
0,719209248653967
0,746504470146365
0,705113152885258
0,727434292393364
0,757051432524017
0,7329077564706
0,74891825289504
0,746239755938079
0,70798807195233
0,756061114227348
0,746562049189006
0,774161538264598
0,748719696195226
0,784323901804373
0,754299650521557
0,794023731149277
0,770888036924701
0,790513889151841
0,776761041729997
0,813691261081726
0,789575097359996
0,797083436850813
0,796010152621803
0,814547325554448
0,819755680061063
0,818836027511872
0,776034100746284
0,812166970642783
0,819860195686312
0,868008158483071
0,855175532533183
0,857551149128014
0,849922936320423
0,853872029651303
0,838182914681998
0,850047769439159
0,854679487292748
0,890586273402536
0,859827466890623
0,866919742956193
0,797505901684644
0,897820181194163
0,8551141973841
0,867128449455953
0,859586783540209
0,87715584320372
0,873047125243891
0,914225387877564
0,860800272843564
0,920108433503422
0,955683531938564
0,940116132180633
0,906962252403381
0,971445937917118
0,947955767971028
0,948851350695649
0,933112476017405
0,99496518216448
1,01120271845934
1,0152673088741
0,976671664590196
1,0449882782283
1,03240850457353
1,03764976874787
1,08088704892041
1,08535746291096
1,06347228968867
1,14968330398653
1,01217649023714
1,1451946251221
1,13991438575917
1,10363132557028
1,1057390746894
1,18478449697723
1,07925269491142
1,04544876632869
0,985941318323273
1,04799399540787
1,06323292828561
1,13969159045333
1,13140298940314
1,11230725532532
1,04537902517267
1,16970573930875
1,11096509105037
1,09421428987918
1,10700159202706
1,22650207564122
1,25073955022192
1,28755604841785
1,29697850220986
1,24258890008412
1,12046187984874
1,28087028317302
1,162187735085
1,20183958408717
1,07282304455807
1,1213366182345
1,13798408816678
1,14888424726088
1,10874024719
1,0965204071921
1,06841058690261
1,12453731903948
1,07823691970793
1,13325874724389
1,0921929865904
1,26219349880151
1,13848394322039
1,04293702714165
1,12338192742761
1,2079930164721
1,11557414494262
1,19290380766347
1,32031317736497
1,34214656041779
1,13332931664044
1,0969428378391
1,09570043969281
1,29084129439675
1,12001660193528
1,16308339836941
1,24905206370413
1,39246601118814
1,23233179642933
1,2969679981738
1,16169838872797
1,21016275039431
1,26712962586201
1,48025860177905
1,42486461041997
1,58418511513922
1,12999850712673
1,30061857445549
1,25152703868152
1,2311690765477
1,25514238513197
1,50862683357581
1,21924157296051
1,20575270794914
1,05274649775905
1,36488299928318
1,37164414131493
1,23741473424112
1,0199716666014
0,99801601098175
1,60640029734693
5
1,34255047411779
1,48665004664668
1,31318359963345
1,67137281673415
1,98552223559862
1,60826684876616
1,29895893640597
1,74615996595418
1,37666625801326
1,67964532017191
1,27542363072963
1,49239468132122
1,31380201883068
1,33196769360536
1,06284629849753
1,27069835244671
2,02770343185508
1,35181312531374
1,26081196707885
1,59774458848112
1,31210097601603
1,43830078228726
5
5
0,89784271563275
1,65548421346939
1,28547097280091
1,29932021004229
1,39296660664841
1,35936135757365
5
5
1,18975179107011
5
2,76994992826154
1,37563464490935
1,280871321213
1,06829552265237
1,14402601778323
1,80117677790997
0,736795034611212
1,35929690987474
5
3,16627924774789
1,13106884699479
1,05748083258053
5
5
1,38515221598854
5
2,0528968233135
5
1,41455892954256
1,2578177100837
3,71640686265462
1,27598591897759
0,811890114989747
5
5
5
5
1,33549947318456
1,57059312647525
5
0,677169757041457
