3596
4000,36533379555
650,420452594757
1
2
2
0,103505900910602
0,104497413418061
0,110275797986678
0,106749371550494
0,109239090089471
0,105650766074884
0,107191034150897
0,102615682016872
0,114914356779463
0,11358846993726
0,10862221692972
0,101290329802518
0,105137738427428
0,098080791942985
0,106858504367113
0,105422028630213
0,103803189105024
0,106072137076765
0,101947859934675
0,0989455563765805
0,0973444928526866
0,0980870353203042
0,106925919102351
0,111317921438393
0,113636342866686
0,111718166429699
0,111576667849712
0,103332926936393
0,107750341196105
0,109377511211639
0,102259363452037
0,109830244878409
0,10576072098052
0,107508657696636
0,110330946792222
0,104397002760859
0,107556060965599
0,111287129047298
0,102410171541222
0,116977901680348
0,109344739037168
0,112416285564587
0,111434736369515
0,104698380318998
0,115986823693193
0,111164449300367
0,113174165832587
0,111687009333506
0,105273603790784
0,102560867595486
0,106794468724295
0,109872146738088
0,123319855612514
0,111213605237009
0,120846483583478
0,13457834568288
0,117221050247418
0,104193161201967
0,101083453437673
0,114620870423512
0,132198349511765
0,121492101409159
0,10767027247549
0,0997920715951707
0,105151250928457
0,11065819864393
0,104329085703239
0,100357383358512
0,105129396630983
0,114253639443061
0,10694695373642
0,142887207206371
0,131517708602959
0,108851733302247
0,121135073978967
0,114190981479361
0,107750911526833
0,100634835252071
0,102636638046021
0,125635145518635
0,131228947192093
0,115974286607846
0,1048483540624
0,0973324333071289
0,127365377404573
0,129436394568376
0,0974958477021776
0,12912839253662
0,145492642176802
0,117068817065268
0,103357655769493
0,105320695468814
0,104182799979442
0,105089057406257
0,10876045620926
0,108319410452671
0,101001900043388
0,108325610643563
0,105347840704979
0,125680323247026
0,116508521119333
0,147656315900845
0,146532978139657
0,126069769204625
0,17219740079008
0,119370135155384
0,129186460891493
0,161324591929061
0,12902852542715
0,112117042099329
0,097149658520824
0,104052184965912
0,113204071272762
0,114763265908081
0,104383949013886
0,156590224850618
0,136325225157553
0,1123799814857
0,0998172559085389
0,105676257259164
0,103435712667589
0,167039124698339
0,144156618676546
0,116039157151187
0,123043696683699
0,113626107635809
0,120501224904147
0,177665745664941
0,139109899547073
0,105485154637765
0,100411143694249
0,113288942559931
0,0953603826615867
0,120091870144384
0,145926739352972
0,115114761552128
0,109009854480276
0,112407303913903
0,162614380231295
0,163022190149944
0,119932220965332
0,108484990586836
0,0981494141391603
0,134611737376234
0,158871517752295
0,116806695328882
0,107852084990366
0,150519327761065
0,110037305628382
0,101433405484854
0,0982580372437988
0,119495488490651
0,13447327709434
0,127606509902732
0,0820261490748591
0,220579432935621
0,167292302206284
0,174426040828532
0,165840768899547
0,115927481499205
0,11972815047832
0,104027108577093
0,10861437334341
0,104361336729781
0,103769623972124
0,100380887296721
0,147758988105879
0,138998531732499
0,113420121166359
0,130532614244299
0,162966718356164
0,134795299021481
0,137924790776483
0,179507330481604
0,10560549693202
0,117024143008553
0,141547878294078
0,121263579260035
0,0912684118853741
0,134258743840592
0,138825900516715
0,106911410936966
0,0997655663138041
0,102801875063978
0,123932991279416
0,133532274240519
0,111428384739308
0,11968658619797
0,101700275409785
0,105397244637691
0,152484157829645
0,192312307574874
0,136864028991833
0,120336449312311
0,111767876656642
0,0977901978570852
0,167810566262199
0,150812411073742
0,107073595011806
0,103160287901569
0,0993075028216052
0,0992302955724748
0,0924146260620936
0,10420775512967
0,0937478040082832
0,104317484747854
0,166802270807519
0,123574012397993
0,10178537199031
0,108873801533849
0,116788482954205
0,122335896221974
0,188525481439902
0,140422667925507
0,113865240307692
0,106050406135378
0,104623282020406
0,145947731852146
0,129753321569123
0,107360984345293
0,10202973314119
0,0938068240447807
0,0979447459912391
0,106178068453649
0,11275579015024
0,10503235283516
0,0991365407673384
0,109401128197258
0,107149510858208
0,111618449523301
0,120098045645488
0,108495279781566
0,103711955945388
0,11364541369057
0,0977702311038471
0,13794619780552
0,122740345846726
0,113005148346879
0,104535476256646
0,110633265686932
0,106147298940107
0,102695748499406
0,102713133176588
0,113475824036337
0,100265043025034
0,119956829634474
0,148472768414257
0,116815509024137
0,107148345066066
0,101254297151906
0,144502282680699
0,11645566680156
0,109952089368538
0,110471991350556
0,111897108345331
0,0997079960908551
0,124230908936176
0,15733738628143
0,125473364339455
0,10621963540038
0,13522453021084
0,12366742745977
0,11640343004117
0,115254658124006
0,128553332062572
0,222035484750491
0,131729268432257
0,143719067582245
0,191472205781316
0,143908426239027
0,135695087409797
0,112640304091481
0,133196588605906
0,271548290643337
0,173958818979038
0,121859831526693
0,133369784236158
0,144635844425023
0,115810858681939
0,138861883956662
0,12646480654087
0,158983996291266
0,162588926249371
0,235609969354588
0,189884127643425
0,118006940687315
0,175341957818621
0,140810258356393
0,125066497971482
0,11137788201865
0,11748646491089
0,114942570418108
0,153873565447843
0,141994562957733
0,157848593697944
0,129063784476583
0,140948479457824
0,165056110528689
0,130070184417255
0,116582122152374
0,135738009180783
0,135596642269509
0,121713962355312
0,128027948692087
0,121939324620838
0,140260830730541
0,116811247206696
0,160052937573234
0,194767050867662
0,14572865668739
0,157406956911979
0,172406215870453
0,13231496460045
0,129017614674212
0,131498453375838
0,133677286279495
0,125699679380331
0,124307053491771
0,13003043480191
0,181424418526508
0,140633998980724
0,145559938085898
0,128639336026331
0,135056137706879
0,137757202463811
0,149832051780927
0,141056598134692
0,148907196023638
0,154827531604893
0,144215205319643
0,194475013021423
0,190352627011434
0,14716297876488
0,244987845232366
0,191111620845627
0,176671217885362
0,153647352048501
0,161017671665579
0,16323002837306
0,16214783475563
0,167944985393688
0,16681008694586
0,180797811995392
0,205815551682865
0,198100506768856
0,199430391429531
0,20159960791969
0,302393365915323
0,273925469236153
0,216374253739575
0,195583085928461
0,192080348575238
0,288389023346603
0,246708919709493
0,256674910049905
0,236119927875969
0,210219414821662
0,223136212114105
0,212206178908667
0,230886490190971
0,210677912789757
0,232908378343649
0,230031951267766
0,242213675570037
0,239811934959065
0,261584058603992
0,236096434567164
0,29529159130266
0,30757656177045
0,273604991854361
0,259555068685596
0,272621363076754
0,249271628045355
0,340471815623088
0,319900722572742
0,391971774040111
0,302221249208797
0,381351642431959
0,339781433048051
0,315044071585844
0,302846742177191
0,296325469345
0,310911929927952
0,314014511389821
0,32741988661473
0,328350470505169
0,314482080579671
0,343611830956387
0,332346406629447
0,336290300055739
0,348716426462797
0,361479825662133
0,369492421478157
0,35678485840781
0,350910895766366
0,36740658118318
0,413557022081707
0,468449836633117
0,446172758054993
0,396762688261072
0,390180885471685
0,383981612859538
0,381355527829207
0,38885534627328
0,386528837157279
0,415133387390648
0,417044874412841
0,474933633526437
0,423274414175595
0,496176582552035
0,434458672752621
0,422563439823796
0,473497219899169
0,448101660837777
0,445728167500755
0,494641989640377
0,453314733135512
0,443036583105945
0,491205437939714
0,479777665642817
0,475662268030777
0,507829469853865
0,446714601855307
0,46994484481649
0,455197061108961
0,500966263900287
0,480155193673687
0,52094750492498
0,490307192858496
0,513331265198925
0,492204866729776
0,510920740718905
0,496146637010201
0,561915864066118
0,505589671476444
0,534100499602696
0,513977306315131
0,538104574616326
0,531316404307613
0,522839186452377
0,557002757168234
0,574342235099526
0,613570962220098
0,614976105884233
0,540751278880331
0,542040233230089
0,558685539148406
0,578577915081935
0,57194137455798
0,592327493468416
0,562623543981654
0,622795213614217
0,571683094780399
0,581158128843014
0,573976835051276
0,582855632867274
0,57701472911993
0,626209497840833
0,604406462142245
0,655553495172923
0,607877648058617
0,631875134306093
0,662484361243995
0,736330659178
0,683628378084234
0,709437771418481
0,656156959418369
0,663083507700415
0,644781456631842
0,673031556819734
0,64947607854634
0,728475005384615
0,669458058081746
0,710400661443175
0,657115346208729
0,731043714606983
0,662949626409366
0,728284773447409
0,692880658974944
0,752432612833277
0,692441542575401
0,750136382950738
0,678451055828823
0,755339537652439
0,722032989385052
0,794472128274282
0,716725196883537
0,781132586070448
0,72784330964793
0,754585823185214
0,717307806694448
0,803542560029734
0,73147591775049
0,784345391100035
0,737569275641344
0,774665527891961
0,744386711174918
0,891416050551732
0,740681305981263
0,80418881171383
0,788686622367943
0,788736969211181
0,790620934994231
0,906661014881063
0,787537607944026
0,841291482239663
0,797342630998983
0,894480589543554
0,827504925059828
0,895372658621069
0,847519829864271
0,912228677049122
0,763578112165478
0,8604540043897
0,793486596988206
0,897690403376395
0,794554567149967
0,919645364238668
0,88757249633358
0,915477557519579
0,850620941821187
0,86434518500579
0,869462383776476
0,945075387595743
0,933058272559791
0,914938680504607
0,922129424471515
0,997987499550183
0,895569158039258
0,942670913413274
0,886690619238572
0,957032504827818
0,882794565314525
0,978764385574404
0,872519385183147
0,986915549142921
0,909317739405973
1,09305700027521
0,852666005149613
0,992928391910853
0,922584578642912
1,05675491854463
0,986206544619203
0,980097819131122
0,942969064614561
1,02780114628166
0,967952524838208
1,038706890526
0,997145850364067
1,03614488434804
0,977061033576898
1,0587298508379
0,991601438771085
0,99769791701053
1,01069164493879
1,10736805021412
0,968975804676455
1,05280017323475
0,991165943560338
1,08412568459185
1,03407278807315
1,08675321691711
1,04375874422577
1,11698171217923
1,01507352383002
1,16933232690945
1,05969519259046
1,05497178120656
1,06525952951197
1,15317794109105
1,0871972672088
1,21597409722381
1,01465805469243
1,19004572954979
1,12644468415654
1,20796142495874
0,996219937325893
1,30215661585252
1,04011424191397
1,20217330325185
1,14331983181007
1,19369595044122
1,10710603127162
1,29018419859271
1,15291028088607
1,28596215521248
1,12646119392731
1,2733470386786
1,13656863419311
1,18560692527235
1,05752744411455
1,24840672845776
1,16739523450062
1,49734820382225
1,23705996073097
1,21631250251442
1,13113812068123
1,32189625966992
1,16574726750667
1,26706292475863
1,14393488276251
1,2877855251071
1,22905748289809
1,25642410235387
1,18589255096497
1,29746403018717
1,16975501332902
1,25573844091933
1,24497337663483
1,40367545904079
1,1683218772092
1,40870227356649
1,26343697891434
1,40066624362897
1,22961360442827
1,32318157606204
1,20651230636125
1,4781408328134
1,255571079899
1,36447670482181
1,21248625669136
1,33827227938658
1,21962669089962
1,54761573398297
1,25017865548924
1,4798184340964
1,11818211957027
1,33340724740173
1,24341370878958
1,34093216499972
1,31091443291312
1,46736058255931
1,30436280508246
1,43547920442783
1,45990747268062
1,43016649843616
1,37435363865908
1,45799630507022
1,31506085106715
1,37109136573388
1,32593262175614
1,33650788131254
1,30505270856582
1,46835750827329
1,48368264145499
1,39729611822224
1,41527765442665
1,47186373463927
1,43328846371386
1,307656519465
1,26881069298825
1,41412915649288
1,41770536606608
1,59354027195946
1,38255808829853
1,51419659591861
1,52101805744654
1,55590596805193
1,44911175115924
1,63934795548807
1,35901952565005
1,70972385285148
1,4056737116471
1,6040368383954
1,4655611601882
1,44905867891096
1,44547433210258
1,45897451854705
1,4531921173208
1,47046948741477
1,42094876111671
1,73129089775935
1,30850657728631
1,46825635325313
1,38353965223764
1,39354005276295
1,37782799455132
1,55962513142746
1,37589657600662
1,38671416364897
1,67907266857022
1,69807476135213
1,55868529441961
1,60609784662215
1,41305712999838
1,54631530769126
1,46189508349276
1,42691789420574
1,4033608733336
1,54221533418566
1,47493869757503
1,68723279291649
1,35496180485628
1,58750635338527
1,49808961058346
1,73460015397955
1,32086025708691
1,59918065609259
1,51527301372183
1,79232750581545
1,43554197828291
1,44360052047065
1,47888750743988
1,60908113237392
1,49872610363856
1,65653385158618
1,40762287203447
1,63648636268241
1,40048050526526
1,443777490844
1,39552746736692
1,42337475198868
1,51330721139866
1,53422977370195
1,49858553878474
1,47704066980107
1,45541816889326
1,62220500015663
1,47853870966338
1,5867195393133
1,47216589704279
1,63831885706922
1,54106941173051
1,59871588629358
1,44923761058371
1,59105319138913
1,47282593153943
1,48908865243742
1,44325065585718
1,44445353679199
1,38884625385252
1,70525674624295
1,40742151619422
1,41091758164401
1,49111876657721
1,47526916328021
1,55239451821036
1,61003383830025
1,46351128855374
1,53011524510712
1,3504332576947
1,50688619397334
1,4980154992002
1,56509153654995
1,51015175188127
1,4334632731766
1,54901021044972
1,48442280093575
1,40794817908944
1,41427966690532
1,44643728480363
1,48634683600118
1,47994172718716
1,5488853535644
1,47885516149522
1,61700635422975
1,60164711841126
1,49985158796729
1,39065882582546
1,38196605545827
1,37899498245279
1,58301830394808
1,60322890731893
1,70584968718019
1,61473457203513
1,59678770982408
1,44596367616642
1,43803582115103
1,60768358940219
1,68749034521725
1,54321685886829
1,45645307789926
1,44427528406341
1,53639836637573
1,41322305489056
1,43271475527016
1,50208850950045
1,51280404631278
1,49406254303203
1,54359331627186
1,50693533255541
1,44499540158629
1,36641331683023
1,50379000526838
1,44248997471547
1,58240516014558
1,37708218236218
1,67145713216326
1,49836132367549
1,51168280650856
1,33332588120317
1,4298036462288
1,48089360271342
1,56938436619838
1,68950083892239
1,53670771285837
1,4868684067955
1,5791652684244
1,52586945767243
1,46376770350152
1,61710548481312
1,58630418330458
1,33297813651234
1,42697115259134
1,57236206389316
1,57041610776851
1,4146491384928
1,47391457073198
1,47588504953087
1,45399104751391
1,42842004908615
1,44139327697538
1,57715345196209
1,61275389550701
1,473052870917
1,48529882233142
1,35016600748352
1,52988627057378
1,47892230457319
1,44184699853421
1,45871044001021
1,45028216034816
1,40972683804657
1,49352064659347
1,47860366861501
1,4379205406084
1,38706402635015
1,53937080873611
1,49798601571424
1,54454420325322
1,59507367335567
1,41014311453448
1,35144786281801
1,48300372087215
1,41372178812506
1,49784466425851
1,48927157767063
1,57809442178184
1,44762095455648
1,52072767006893
1,35427097222065
1,38667137214862
1,38629575611726
1,52344954052436
1,40414201103702
1,37661399055986
1,44293959087937
1,31800572751185
1,30418862252326
1,39896574572302
1,36089095734703
1,4089178060173
1,43453408927367
1,42682706398036
1,29901607449863
1,40254954652323
1,33941498086534
1,33723920396221
1,32155158134885
1,39091982122899
1,27492820202469
1,33136863503654
1,34613362287527
1,39921594292401
1,38006886038885
1,3780058514229
1,3211984445457
1,30687204059586
1,27379553687141
1,36071948480342
1,40735529940558
1,29843743871637
1,25982866789087
1,37847784968109
1,29783242634955
1,26505890589624
1,26899473845336
1,220936151614
1,23664676650118
1,24890953766037
1,25090769558545
1,27019123377661
1,25604898307377
1,23706271748011
1,18559396796308
1,23934366779678
1,21201058144014
1,24555480767707
1,19920967054627
1,22950457935872
1,19929871912073
1,24863104951878
1,18229214592246
1,22473317516426
1,14350166165314
1,18102639943781
1,16360748722568
1,23987150740497
1,18447825914643
1,19119088533572
1,16375230936956
1,15427719622375
1,19603341010588
1,17731678754827
1,14259796107924
1,15492926646354
1,11248366805033
1,1823621254849
1,10277589539673
1,14494588294588
1,10136075635503
1,11038583692091
1,09722464119317
1,07470550083493
1,06888306856021
1,1029298324455
1,0678718464959
1,11618136155787
1,08732461525071
1,06222395610024
1,05727761159979
1,04629563500896
1,03774171229132
1,04465719217594
1,00863514852363
1,07400042088731
1,02631081793871
1,00999109424217
1,00915214685573
1,04915011401314
1,00379285434014
0,994061546100487
0,976608405929029
0,984919478155811
0,926543535420773
0,98131797084597
0,972649766623433
0,970640749211714
0,956539727791993
0,948654262642344
0,952883538902896
0,965456173533068
0,941281423701414
0,931990937810886
0,936152003082958
0,94101902722486
0,904576073948367
0,92158806884513
0,921667690855332
0,888378583739359
0,875949579173729
0,909054230266379
0,892265920471943
0,906843176636991
0,873719065555433
0,887132707978371
0,887178444875838
0,863143261670797
0,864690965738095
0,870132031830632
0,834670424047239
0,851297494745037
0,832710201785159
0,861757101099792
0,808939888781065
0,817965144530503
0,842523665609444
0,809701678549238
0,82657069264618
0,828764824192933
0,793579680973369
0,810940889994212
0,805276259195395
0,799864768704931
0,776663382136154
0,783633582920579
0,784537219287037
0,775484220182719
0,769171170370879
0,771871384160233
0,753359449254442
0,751698979557802
0,746126602247665
0,749322157271245
0,750534959677999
0,727392144979317
0,725786663710066
0,738484422806972
0,730233938809824
0,727130423724937
0,718790350700306
0,725615551492399
0,715634925499566
0,730182298859769
0,70836524149394
0,692269296800151
0,690951908024635
0,682047177255824
0,680011516977213
0,688747148920025
0,678600533338648
0,688290336134128
0,679154500929253
0,674066684348356
0,66624659578241
0,655183195551846
0,657131112400561
0,66515707865878
0,652004137225267
0,661409833058088
0,646472734095418
0,639328200567254
0,636924287674364
0,622860857905526
0,619789657890028
0,623782922546377
0,616186933534618
0,612984426588451
0,609948139338209
0,61587022370415
0,607877408413435
0,612335224590449
0,60084327939899
0,60856896974037
0,595995851426464
0,590614953411508
0,587528052226318
0,576294961672668
0,577379913188954
0,581774199570778
0,575567606017698
0,572441268297668
0,565222144385448
0,563255369540631
0,552650985209972
0,561578758194739
0,556189309720167
0,549975640182007
0,552754629995069
0,540480359346107
0,541921726857757
0,542114863189857
0,533041091109157
0,540230247450205
0,530124335271185
0,523691448079162
0,522435066987686
0,523423063468453
0,523577463667796
0,513777541964415
0,513207979315622
0,511675498012502
0,501286016583174
0,500433067562601
0,498112107507881
0,490797678394355
0,484534198665844
0,492924081605966
0,489747009805666
0,489787962443387
0,481226491891006
0,479185550938033
0,478568442700373
0,474870242286753
0,476857911664836
0,472114713045689
0,471382465759574
0,46827675014245
0,459363480277076
0,469067105346164
0,463691676757546
0,458751158872505
0,461466548809093
0,459559735871017
0,459680907934077
0,455058943926096
0,450025348979729
0,45002543277226
0,44863543504248
0,44382140433583
0,445296174265254
0,445781816580676
0,440424240839189
0,441430918736664
0,446052518920072
0,438383246172411
0,429863264392501
0,429676598466948
0,426508146852092
0,428140017429056
0,428259323552633
0,427419394203942
0,436640624233299
0,438342772726013
0,437461039001721
0,434833493819022
0,422593897519068
0,418412318559272
0,425266885420732
0,427109424429155
0,419143225027008
0,414628430307065
0,421903798574241
0,418525875473534
0,411374109313088
0,417652529615024
0,420422926798093
0,41746149913464
0,412165741956399
0,414053083681345
0,411964495960442
0,403869006943096
0,412336513113427
0,418640389143825
0,415085165958126
0,41684268292938
0,415897661220437
0,412305246723198
0,409815654355133
0,413735021322103
0,411704222279984
0,401301931800505
0,408853535874379
0,412994544312952
0,414328253335698
0,419398943968104
0,415499172231678
0,413302292619767
0,412691077764826
0,411481855694088
0,415280508398233
0,404827021645819
0,407054662041796
0,419045898349256
0,416685644812171
0,423326422863682
0,423475479946655
0,40886235391239
0,414363976232961
0,413176894084963
0,414206396622398
0,411607707877362
0,405079349314563
0,410819153049584
0,412520710804171
0,409016185099535
0,404650164922351
0,40569059316048
0,4118550181953
0,407488842587548
0,412368972460337
0,406347948104871
0,407203024538902
0,403494000955581
0,399664489858889
0,403217347148384
0,399304831972506
0,402351911367612
0,403655391923543
0,387883998214449
0,393383505238805
0,391297662247783
0,383836083135736
0,383410666850579
0,384570343375364
0,386938257727026
0,384568263093397
0,376080574391739
0,385309384880921
0,385836433808743
0,389294924532748
0,388337179221293
0,383215756299321
0,38649532074246
0,385233231748594
0,380598911302304
0,383437100975073
0,377731390737184
0,374675477282127
0,379272967187778
0,38168101886102
0,375886341883152
0,372052877926501
0,37551966220186
0,37723704122791
0,368820485423773
0,374020277833552
0,372846159425274
0,373153601335557
0,367434211426196
0,372948235731019
0,375616708865256
0,376614240989647
0,377459798494326
0,372589936316964
0,369543105205748
0,374370865701556
0,372492058365992
0,367964828360098
0,367551001832201
0,368061094892911
0,366693095107374
0,370734718950246
0,360026826105659
0,36493065409817
0,362302866288042
0,355840495429201
0,359062980321124
0,363928110000488
0,360802821386881
0,358012187235921
0,352129103785639
0,355470963929467
0,354281170435061
0,349255990298907
0,346480486973667
0,347798239158749
0,346837295242731
0,34188946109861
0,339055667496653
0,344649520017137
0,334659562230402
0,330492440336011
0,329561327053875
0,332606176143228
0,327888508366563
0,332727357770368
0,334015274541741
0,322967335863332
0,318348619898715
0,319965906460345
0,313580160482561
0,313747881788402
0,312576877594906
0,315787724113709
0,308366435189072
0,308098481968816
0,305676472829233
0,302797359821228
0,301909195790578
0,308850280598457
0,298147895145977
0,297270226425955
0,299302215363633
0,298259805972608
0,293638872681831
0,292316613346799
0,288945390763376
0,294623198088737
0,284508963159465
0,285245246766356
0,296087799012943
0,294024162074684
0,281652773798484
0,283504843125634
0,282743648090385
0,280303891262823
0,279116374782348
0,284431787991648
0,280697152385913
0,28224139879995
0,274002903100154
0,27441700522479
0,270728983275391
0,272401036659525
0,271008941384315
0,26788141538035
0,266786029821489
0,27000380410681
0,265004949701057
0,263852815510336
0,264433086117982
0,263625635057925
0,264045466911885
0,260985109751039
0,256339531236473
0,262420536639626
0,257860239041952
0,254271866752359
0,252984580438642
0,262668799649533
0,25504739124048
0,251467172282729
0,25540883808233
0,252911488909245
0,249094067661097
0,252131691996491
0,248712229357057
0,247241368373406
0,245297945524057
0,239873082630229
0,242215488379705
0,246253859445351
0,240926779348569
0,248660953861566
0,245861463061259
0,240912167768576
0,238606106809539
0,248551371046056
0,236716234405345
0,238626959693652
0,238191037835312
0,235535603200667
0,236043394392722
0,234748446361013
0,234049104833145
0,234491705048203
0,230410305110448
0,238382398976118
0,232541367290456
0,229274844435015
0,230414217752161
0,232890674160363
0,231841129341314
0,2310301067707
0,22762604477457
0,230548706095893
0,228656233430999
0,227268834531762
0,223830844541308
0,228702452353891
0,222076453152018
0,224645908924795
0,22543821754248
0,225971319757587
0,222259854733325
0,223738818432627
0,216525871127624
0,221976469356188
0,220240380039643
0,220440245924698
0,216351507420118
0,217747036804734
0,219826718102024
0,217269493475264
0,211098390888146
0,217523161218236
0,21456616587991
0,215618130542149
0,213828552628373
0,215815498850784
0,210972017558953
0,209967162996338
0,209971684415694
0,213724386361778
0,209161419649398
0,210673291826456
0,209376419604087
0,208994816964665
0,209004218621706
0,211854475784
0,205495090469253
0,210662878272495
0,201631185234727
0,204323806623781
0,205401314604424
0,208747940240872
0,207875502379858
0,204728595183354
0,203067003314292
0,206454956445024
0,199516037087336
0,202470945510864
0,204135471045775
0,204736230705102
0,202137201069945
0,206637356412637
0,200830860347599
0,203022505842599
0,203664524481476
0,207297322646549
0,203261622818473
0,198332395432253
0,201836859940528
0,201995900588448
0,200432500165042
0,205512897465162
0,201136317077912
0,202734098200794
0,19714898828431
0,199486315009812
0,198442236389155
0,197971958346523
0,19244969079013
0,19720027874775
0,19054683899381
0,198666867734072
0,196824899455024
0,196481212828882
0,194491901384049
0,196463277693495
0,192563255267626
0,193582928357867
0,189807897006737
0,188409789459601
0,187954025242869
0,191527553537088
0,188742956728659
0,192006246075937
0,188466635100748
0,19162544285243
0,185744669991661
0,1924466193251
0,185601489623125
0,185471452682361
0,182106365631635
0,184482449523784
0,181621517611522
0,18517485785492
0,179794828078425
0,184064577072938
0,178853232789126
0,178248113858737
0,180037905002969
0,187041514164467
0,174276581685577
0,180152061533929
0,178237597818822
0,17716983039673
0,179901286662688
0,178630340558896
0,17845598535736
0,178801367801271
0,172982537493482
0,178826806856018
0,174709373192504
0,176612356055776
0,176686573974646
0,177652176207689
0,170732518089093
0,173021832942839
0,175324804244348
0,172318205097527
0,174502783097269
0,17535389871967
0,169540579903068
0,172946091285003
0,168122539036937
0,170963015888054
0,171230278831704
0,174543273779556
0,169890068988162
0,173328443434841
0,170061060393581
0,167267471435755
0,166406978878122
0,167191889545046
0,165465297670481
0,164406385701194
0,164288920566889
0,169053103267874
0,162988771565143
0,163725433357249
0,163627783880225
0,165387588357661
0,162883461170531
0,162895471182031
0,156217001022449
0,160998515289712
0,159231754862974
0,158757911672711
0,153242253758259
0,157191332870765
0,15469093754599
0,157978648376706
0,15374072890788
0,159565453497203
0,156253685633476
0,158158140382432
0,152031086496768
0,154840614905484
0,151171691897976
0,156653111703846
0,151534960459352
0,154467100516294
0,14896498268326
0,153291116880239
0,153352952441457
0,154876123005179
0,146372782288749
0,152150174159646
0,153014583215009
0,153644348446846
0,148494037821744
0,14738801819559
0,147977652942102
0,150210322852085
0,147401082528392
0,15206058501744
0,147923018966072
0,147202462594692
0,145184574375348
0,147801155445372
0,147633757867527
0,152083779532079
0,148240397236314
0,145938649094378
0,146826634989288
0,145366562109504
0,144086655302034
0,146498276358334
0,144061490241501
0,149003007381561
0,144452312905061
0,145787666554714
0,144202070973909
0,147078456340179
0,146721321861243
0,144308349127155
0,141855899168848
0,143859799061291
0,142833971266064
0,143537572761486
0,142746413290253
0,144717534559424
0,141776513271513
0,14268717255198
0,136920821538154
0,138546447792803
0,137894264986979
0,140233986284928
0,136905491912683
0,136559112006081
0,13711030556534
0,137463752390305
0,141923090518543
0,138434837694478
0,139566489623441
0,141227966535831
0,134010267163441
0,134396486335937
0,138556074466755
0,136680508613577
0,140468032741018
0,139230654053895
0,135757854180719
0,138348231604602
0,140376521094212
0,137534351324721
0,136377728906405
0,143618136088548
0,136227000042837
0,136739118761129
0,135157240246231
0,136626821487992
0,13486439964866
0,138180266427648
0,133712719919303
0,137676329754577
0,136115136918221
0,136920035181437
0,133984500321186
0,137536053381077
0,136179255368426
0,13635828986032
0,135500216509646
0,136710436125941
0,133727874975081
0,133020636246966
0,135902293197621
0,136895796605916
0,135070808059452
0,131527673793157
0,132213547026423
0,134480052551762
0,134569447758617
0,13944081663561
0,133425696758498
0,138180183453849
0,133806401459064
0,135938673058756
0,13440997023928
0,133940862686991
0,131229362874751
0,138193125036923
0,133781255425562
0,132715176394537
0,132595516458101
0,134051436145349
0,131324346589584
0,12876981761821
0,128711963307168
0,133298903557435
0,130313024905619
0,133070086177063
0,130483891773399
0,13012445622222
0,127757528445631
0,132005838520909
0,129198643972589
0,130988904480394
0,127920846123049
0,132086069966355
0,127220375203255
0,12833109837942
0,12419802294962
0,132026031112287
0,127974953848733
0,128475878073513
0,128773330024286
0,129827185623119
0,12582440694963
0,127679043396998
0,128642022825077
0,132418114048055
0,12827209246161
0,133001292561845
0,127369020410801
0,130288038201236
0,128304627122196
0,129028344989043
0,127954193847279
0,127566784938232
0,126657452561782
0,129247238364954
0,127143022200228
0,128314602966904
0,128083470500357
0,129424180653969
0,126189974396489
0,128149133577337
0,126535698222999
0,129179166780045
0,126315102669726
0,127142850091144
0,127447342580131
0,13012345841413
0,126824164056305
0,127076654561447
0,12959763649622
0,126504065459123
0,126730362609739
0,124731426469373
0,122331738523843
0,130708679744922
0,124258118280483
0,126417032199428
0,121983347778659
0,12179395444774
0,123677746766181
0,125426178708776
0,12244210840275
0,121263081526736
0,120636880572764
0,125131586717288
0,12304411317483
0,125243160440697
0,119566343691713
0,123824010310046
0,123426656778607
0,123935196195876
0,120771533406979
0,12286517208233
0,12184148196473
0,121894508255218
0,1193429723589
0,123239283313604
0,118963015865761
0,119574047258314
0,123090207858854
0,123232439286899
0,118941005184046
0,121498930470089
0,120405448050685
0,122555042683944
0,117748947855083
0,120133803527477
0,120380208261384
0,120425172773906
0,119760693055419
0,121113367657736
0,12099323521379
0,120886589799479
0,119891512500545
0,119722476603088
0,118775141002172
0,121110130980377
0,118139750829529
0,120116601987331
0,118296367904607
0,122486841910019
0,117281080089434
0,120495614473098
0,120694545113526
0,124502271294563
0,119670568871146
0,121012850081861
0,117070959698464
0,120657842905384
0,117045627266575
0,118277584178615
0,118986980802273
0,124454308339354
0,115443112342303
0,118974730085268
0,120249920106742
0,118421753310458
0,116950346718206
0,121037988121079
0,119134175870382
0,12008519562169
0,117646543382558
0,118757670218698
0,119265378420175
0,118023561580134
0,115372620441826
0,11802961652273
0,119557372029889
0,11759712133463
0,117060216390281
0,117789217602034
0,115948219358787
0,117437599365506
0,114887308952855
0,115906317352793
0,121049887147455
0,116153397654578
0,116385003552746
0,118272624414258
0,119141956742993
0,116076296412488
0,11524422927933
0,116799088695709
0,117069733646813
0,116298120826507
0,115450798457771
0,116938150417939
0,118346635163275
0,120956878071207
0,116452537535889
0,11692048068134
0,115555933145818
0,118758550347786
0,117056078421399
0,118956265780651
0,120042910113954
0,121544854293214
0,121679908814608
0,119753137303646
0,122028922124754
0,124038249231692
0,125001777728424
0,128735898391075
0,128272895284872
0,126906634481679
0,131093534963583
0,128588841842953
0,126778235238041
0,125613946353138
0,119652597023979
0,120862703173993
0,124939871243126
0,134594607438313
0,122397633705235
0,116910586541362
0,125850426710884
0,127871122645764
0,122007740358527
0,119421119656263
0,127263926536161
0,122845684432829
0,119107651582128
0,128921937373906
0,119553628287655
0,122057107086105
0,122709468002105
0,123270231696949
0,128928243198558
0,121323260374884
0,12584137994659
0,124030675003376
0,120939073514803
0,115633168984595
0,127359855667543
0,118670369737272
0,126914078007371
0,11898183520971
0,127460364562511
0,1152112815593
0,130233211005517
0,111798658838293
0,130374104261887
0,114418695201155
0,132934434987482
0,111567294464221
0,137138882144207
0,104183342361808
0,129582288521452
0,101500788462577
0,143988118747881
0,106724598696397
0,154954691437843
0,102367244301305
0,149905618384563
0,0985970230655059
0,15991395786647
0,103027555607902
0,162494883414752
0,0949825603829214
0,161506911111054
0,10348688472629
0,162274456002325
0,0995963148308232
0,151552815662403
0,116294510130127
0,140726149901044
0,122622457104704
0,134481462388667
0,137349361297954
0,120624633423083
0,148236636075779
0,114542828231132
0,146638133407982
0,11530720747397
0,143532180664528
0,117152976988843
0,13786819050656
0,125289511910257
0,126619863208464
0,127970648120225
0,125684640897951
0,130310829259344
0,124396434164599
0,125535445672922
0,126518684100949
0,124993612817176
0,132070832144482
0,123458158782142
0,123678697971919
0,121943685652009
0,126767507814612
0,12060508492995
0,129330439591746
0,125305222367726
0,128989424513043
0,124769408015646
0,12715844432313
0,121301415723963
0,126458561376632
0,126505511656498
0,126110630943128
0,12363948045849
0,12551020278817
0,123071869144679
0,129776808885285
0,122813142844455
0,127180511949975
0,125869972447423
0,127749619031096
0,125078797652586
0,130232342259129
0,126193262992142
0,127585052463928
0,125482440284538
0,131458144971789
0,128532991455072
0,132846842029979
0,128765550217575
0,129194493639766
0,127093062796168
0,133928949229342
0,129301526329545
0,131025381068842
0,12895294384683
0,130816480803422
0,1293784736063
0,131356094439599
0,129681573398339
0,132299212037237
0,129175170538147
0,132575704414639
0,12882229983077
0,135815268605405
0,128977643289477
0,13327362850536
0,127579671982264
0,134010607153782
0,128048675882845
0,131270972406171
0,132034016571047
0,135810120315086
0,132691989880462
0,134896431236384
0,13065481897714
0,132139216798084
0,132884205886064
0,135717407404039
0,130823776967441
0,133930254821341
0,134519375608674
0,134963157330131
0,132860604110088
0,135755701895296
0,1320783973613
0,138185789397944
0,133973985192518
0,134243143851008
0,132905727124681
0,13397888923021
0,135055320442487
0,135374200825166
0,132168940992936
0,136799878419824
0,137853686806655
0,136820195228696
0,134266524968457
0,138244693023026
0,136108384731856
0,137795274294215
0,136967447347451
0,138933663056053
0,139094753717902
0,141803380198024
0,134922379392156
0,140718698187832
0,13921585555591
0,142483718663743
0,139328200553798
0,142601439625515
0,136893639200287
0,14296954308937
0,139519523892618
0,141206200458819
0,138952208780092
0,142643320313939
0,13994117554466
0,143394424880382
0,141522660027894
0,141637363326704
0,139765482918256
0,144985488215405
0,142920450108652
0,142224464665069
0,144861508862504
0,145035981681354
0,139932315829911
0,14336169087089
0,142423523528645
0,145611138851458
0,143449704677546
0,145572119236142
0,14463522721439
0,144867018632399
0,144656903211593
0,146124819516517
0,145588350785922
0,147618449797727
0,143256128461908
0,144664073515234
0,14384334901525
0,149288755275059
0,142378129583675
0,14661521369518
0,143528863721373
0,147131819770262
0,146460044133693
0,148338064426702
0,14787204495792
0,147397366053906
0,14428038490195
0,149258821982501
0,148987931147276
0,147049697060705
0,147179480015524
0,151817553193209
0,148377710591586
0,152155864207212
0,149498551520635
0,151670291098658
0,148680027091037
0,151900317284156
0,149575202951523
0,150928439079857
0,152639789464832
0,15404717419063
0,150609218945057
0,15272882919803
0,149481602669273
0,153120471524778
0,152401251057688
0,153645518080542
0,153572085996668
0,154187916965354
0,14942655697586
0,152673252303952
0,152507326847685
0,153258808085266
0,15555314836266
0,150363941880186
0,153384900032125
0,154441289623021
0,15052112420968
0,151923334255864
0,149922438207647
0,15358177328841
0,153612285623309
0,154018525934052
0,151211075265325
0,15279478914474
0,150904346367808
0,155361029348927
0,15139927750479
0,151556251275433
0,154173238263339
0,155328988371853
0,15241946725381
0,15022662874394
0,150827508143383
0,153641549258493
0,14870141557595
0,153961887990274
0,150545974606049
0,150262060879542
0,150692975208226
0,152861796678057
0,150518844033425
0,150659398743973
0,150957198835633
0,153591094098743
0,152121234657217
0,150453094824705
0,152621846597813
0,152738405936305
0,148498996238803
0,152780992112227
0,151626168876265
0,15222295508036
0,150261348989998
0,150402674040216
0,151595258590034
0,154276188417896
0,150211923939792
0,150173506411035
0,1489135172018
0,15020783763902
0,151006213347476
0,150625275825541
0,149855734010865
0,152020884731914
0,150828354223981
0,152434859614041
0,14902548187819
0,150973010829691
0,150380334969685
0,151964553376851
0,147838271759137
0,150331846303701
0,148375500828593
0,151204691106058
0,150329145307659
0,151860196630607
0,148847156315957
0,149784192529124
0,146849639956905
0,150381089552227
0,148616540766845
0,145001281934898
0,148149598163958
0,149467760754908
0,147553247738842
0,146183977322901
0,147880188426334
0,14841173782353
0,146378055656612
0,14691007435036
0,147596401627833
0,147223991494519
0,147005594679373
0,145889132932427
0,145339542971828
0,144774998918886
0,143068656184242
0,144490112887497
0,142931758200511
0,144367525657104
0,145489039114051
0,149480745050506
0,146908291975527
0,143472399765035
0,144709539987495
0,14696208614374
0,146522278200676
0,143086787218477
0,143730534708201
0,142533288046647
0,139584614385309
0,145715710570818
0,145182934702331
0,140882919773963
0,139847076003847
0,140875744262075
0,140244549242491
0,142968699218235
0,138447316835496
0,14117506377934
0,141854042518077
0,143505792104344
0,140150131238152
0,140565843495292
0,138381103553035
0,140254888384089
0,140625717556104
0,143397050008457
0,140260644147868
0,138087996527258
0,137169661772114
0,137851566273145
0,136836479101597
0,134766578761269
0,134471139119047
0,135672500555818
0,135395855954046
0,135925893411441
0,134842747906014
0,135560925430191
0,135437253727495
0,134883791451981
0,132341587631649
0,135241959101797
0,135607598864193
0,135240903929944
0,13255963021273
0,134754018998974
0,131433071719777
0,129608979552578
0,13287191511244
0,134746661436725
0,131567264362012
0,139303276370291
0,131730229717382
0,12999726892839
0,129910751338327
0,128149295761897
0,12813539763798
0,128699012402592
0,126958501820401
0,128178405495881
0,129420951223038
0,127890360502948
0,1250385894507
0,125028724732723
0,125580236153422
0,124862911624322
0,125496840688808
0,128152012201053
0,123950751122698
0,123399199382326
0,124333433487946
0,123204446549136
0,122964432422138
0,124516069533262
0,123286137859331
0,121360316895359
0,122220446356285
0,135968203788376
0,140340637660469
0,123137918204933
0,123817965215126
0,127585557301704
0,126775642809743
0,120810785201437
0,122657035132891
0,122443482376361
0,118987630887877
0,123129195660198
0,121704423805702
0,120303620587639
0,120421211375212
0,119887607054327
0,118837014405491
0,119216965740477
0,120187911942599
0,11725037057641
0,115865460551971
0,117624872974668
0,115654628219409
0,116870608052206
0,116382547560194
0,11704114454657
0,116247223142458
0,117652159761589
0,127490420659251
0,122547094960612
0,115719105289585
0,115446457256418
0,11552936263939
0,113508297204028
0,115235246681566
0,115430920174334
0,1124702157911
0,112714886596744
0,111856501861103
0,112549991344781
0,111702411258605
0,116072998349756
0,115860818967215
0,111176426573645
0,112283723345179
0,110061740624898
0,111147942898268
0,1102462209856
0,109938504569231
0,109768152414792
0,112618408793101
0,11586608974672
0,11084369779373
0,108661267119725
0,12585425168394
0,136873534870928
0,114032847787251
0,110686256252799
0,110129115693418
0,108909544477607
0,109095875634218
0,108557176637974
0,108664914947697
0,107341139354629
0,107825337910394
0,10932851315436
0,107941697926067
0,111003328844122
0,109642308591359
0,105692097020656
0,108350438412094
0,107575986343979
0,107217196494841
0,109738095835156
0,108032854933588
0,115565397194419
0,129190592277067
0,115369944523659
0,105571151890519
0,107781530737218
0,111136544778235
0,134922424136728
0,117564620956827
0,1038161047608
0,107852806633548
0,103283406771097
0,106207901279868
0,105650371556311
0,104360803264033
0,110877848744531
0,114599537626569
0,106901016218425
0,111841507541715
0,106373922875776
0,103229926020483
0,105417171718474
0,104864324921615
0,103758201760151
0,103576679699403
0,104325382483661
0,102654799510018
0,103224903353347
0,10637570442846
0,104172374381719
0,102232604649874
0,112264454117155
0,114834390769747
0,103742723509931
0,103731316066238
0,102725570276222
0,101353963470865
0,121789738907552
0,126725062998343
0,104077904154623
0,103455481300721
0,103949099422442
0,103984342687932
0,105291047384479
0,102182930794263
0,100873462124376
0,101610156235487
0,104331481418989
0,105138215334238
0,102697673124721
0,102603942387316
0,102744267291477
0,100956203445642
0,101676565370735
0,103229461152678
0,101569717976346
0,10408588840076
0,104149187812223
0,108570842451858
0,133942885795473
0,13623184794724
0,128651042607523
0,123739396484325
0,109142752095965
0,105826681690852
0,106676525324272
0,101112419944642
0,103527108137362
0,10596859301804
0,104173027296905
0,103867284606571
0,106350871702828
0,102746680593111
0,101928852315136
0,0989572406597972
0,103932452678479
0,102076878640156
0,103503813111218
0,104596381674179
0,103586997855191
0,099752091470465
0,105790657542149
0,115433206065875
0,117341057473454
0,103448585589965
0,117868321808956
0,146965916967664
0,134488113514343
0,114489605497888
0,111687580752975
0,107075773018363
0,103960783418012
0,102427434022888
0,106596638541584
0,112092323390934
0,105728071416906
0,105359584811779
0,106243332666517
0,111238827988674
0,105177911171663
0,10315275823123
0,135433972596951
0,1530497563
0,123563945299673
0,109197758103942
0,10350664378764
0,128442140870414
0,14054702695929
0,11391346027507
0,109497397001162
0,111258229472006
0,1056498894651
0,108305466696744
0,10697581038038
0,109901831240723
0,116802783791416
0,11061478945233
0,107680414002232
0,106016040341154
0,107395327322274
0,112743830806254
0,116230134417721
0,128560132474765
0,124201286364967
0,111381806102566
0,118893844787319
0,118673626606955
0,11008479201353
0,113906370976074
0,110145703935426
0,112853673101612
0,130433302354261
0,131246960832044
0,125991624469924
0,139945872086571
0,130757230543386
0,115741487513878
0,120659421343448
0,136418018126408
0,123479168196592
0,115371446862544
0,14356066927526
0,150788234646088
0,156999860461172
0,136976975960582
0,127260896533772
0,115898250699946
0,124383108854478
0,109413685751778
0,125255380169598
0,141184761876247
0,132805589546927
0,114696636651782
0,123244283108187
0,13558170454414
0,142603374380274
0,130003653110037
0,127880710785855
0,121473476446764
0,127612423649715
0,147142199137007
0,13076021938855
0,137424395078048
0,171937576699933
0,176791440523899
0,1622070291613
0,131377879707023
0,143869552506201
0,164511930249625
0,148955023128521
0,129507629470427
0,132437048349715
0,136070579272188
0,130169560321508
0,154740959246345
0,182794226926238
0,150033808799436
0,140223969960674
0,142421027121137
0,155199755915736
0,174988360213153
0,160924506967021
0,140263222045263
0,148942048095348
0,143035094849067
0,163492564657431
0,203413736437325
0,183644875633968
0,178050892012882
0,187746223629565
0,188018296819878
0,177568879006964
0,173313367959127
0,162966241745095
0,192062654302464
0,191501296008055
0,167516862206807
0,159456514253304
0,200507497106956
0,188757704507057
0,18024470149551
0,169555486904478
0,172831519796835
0,177248041892697
0,24888954508502
0,257723476274236
0,221924412082438
0,185850492428686
0,204123596211796
0,218252272318609
0,200279376091697
0,183837437323838
0,188600474010035
0,190756015849592
0,190275435463457
0,200663669605872
0,211524105474187
0,203987811527136
0,211983203703741
0,204910647506872
0,223262486621874
0,260095889857225
0,320751835254078
0,258182238334004
0,264836548047039
0,265357125693398
0,273901831464002
0,24684241907562
0,240539418982271
0,241041707663444
0,257378411610412
0,258756310735522
0,253175869873959
0,268733895082042
0,301489716533127
0,286996086983423
0,320169036373627
0,297101576602084
0,294366210239549
0,282619738937272
0,373122450474753
0,452708934757887
0,369282445615831
0,32169796124537
0,339019007122975
0,377403225495026
0,408448704102325
0,363902318494007
0,341873177338341
0,350071260823232
0,351505018438435
0,368539598680057
0,388915240694617
0,403607415945363
0,415677113461237
0,397389730803366
0,40621750704046
0,43460673336861
0,552582580345661
0,533697245806816
0,461959059112433
0,448819413668218
0,478948922558953
0,480808911078031
0,468351174566872
0,470795746632569
0,471881362755831
0,52277182184224
0,553440065043382
0,534944143839675
0,502288505713602
0,541838673826272
0,551187970638078
0,566590130779735
0,601073130138511
0,616652021768246
0,578939310538549
0,573939470001275
0,596643597858548
0,5795565184801
0,610925119515151
0,660173021821735
0,661426273436891
0,634336099901656
0,643005333209731
0,647688609414709
0,653121981253804
0,659462979754787
0,663214204845816
0,69190754993191
0,732523424907752
0,786723563788157
0,895595741128138
0,757277598415566
0,724243624157034
0,702715312574977
0,750525536213763
0,768030950111612
0,778444397881444
0,808465730270433
0,790757560598625
0,7370295925851
0,742288998370929
0,769223665525578
0,742682457627898
0,765615358326668
0,759575723474604
0,766650970815598
0,814732178566813
0,785339193395303
0,878373316241614
0,874983416339146
0,791929598594042
0,739116117754028
0,75385124066057
0,725611898069038
0,751229333370354
0,72712078351934
0,782534632662726
0,773220008903606
0,756924860090998
0,702651355310305
0,722269375602983
0,758864637218103
0,759152596109362
0,697603116684069
0,689425924495442
0,679841315285177
0,671013393885908
0,647778051288562
0,728426266598511
0,734384557993821
0,692157024604769
0,625838471987773
0,629449598004979
0,619540470361656
0,611848232877038
0,586847483105902
0,602478662680912
0,578698249137637
0,58474181200046
0,566858895826564
0,57278852594366
0,544549792245015
0,545627027685562
0,554367154034219
0,550509054722682
0,531174080815371
0,530831360989985
0,51360956961451
0,510662559210023
0,503688280454338
0,511998592325022
0,496259999612566
0,506341897501666
0,494371358966404
0,490887247923154
0,479356586571614
0,479875046456681
0,474467944738993
0,467978656438551
0,465075702729407
0,462554343357313
0,452886352343229
0,458380099587074
0,448424772447048
0,450024658626159
0,449819738474006
0,444063312576532
0,445828678105918
0,442833108789818
0,44791919032534
0,44210335290554
0,459370208550463
0,514751465829733
0,47107922917645
0,450332819393452
0,419487075127764
0,439743762658882
0,413490344454972
0,431388398161258
0,475012222875079
0,479180790117724
0,426110054949709
0,411556619213108
0,414957084653097
0,446221055713885
0,419210352156472
0,427416969202776
0,403833399684441
0,424862844724007
0,468833479721124
0,525576560825107
0,601772933117141
0,537906003484226
0,450605643667842
0,39909727955911
0,458783982185933
0,438297992326809
0,422244700827155
0,387584905428262
0,404931205447326
0,449351562425164
0,418708312587963
0,404025917494013
0,379714731216383
0,38993307269006
0,426232981003388
0,43139402853905
0,412110364424139
0,442853926919673
0,430415613544513
0,430725033536984
0,45052286176074
0,522113330916736
0,415709294685876
0,374943882856483
0,372151121500539
0,362970450882141
0,405418340522546
0,420547587832945
0,390753621403381
0,3868740041864
0,352704121824016
0,360073456571701
0,357495103846172
0,400614274119947
0,351774230174968
0,399499745126126
0,374725832333566
0,367982323285799
0,357392983937946
0,391264811706679
0,430817987325029
0,429039753113976
0,356230188729922
0,333609603139395
0,417432011139994
0,391338853398868
0,371544870577171
0,348016808537502
0,3157907451196
0,343958513829403
0,339865694587415
0,329890504345747
0,351124256322973
0,354871093936865
0,396697154464287
0,414593748475813
0,460015610390521
0,399480317951039
0,32440556878991
0,305803989489475
0,294048550277163
0,317743373169414
0,297147278279057
0,303541101093722
0,351820025314516
0,29926720557026
0,329073972183623
0,332210495085579
0,318480269919816
0,293246059109892
0,291378202854839
0,290081408527077
0,311148817889102
0,350643956369558
0,371720094586497
0,313988730427819
0,33494092741228
0,3169674657418
0,316160377732009
0,290865428579537
0,299086900559212
0,290378059778787
0,305083574135151
0,312455579238267
0,313088172402129
0,30211077532492
0,309422209277512
0,301035228215333
0,380164317525341
0,330535583348032
0,342101344310041
0,348043074949049
0,386369989914836
0,405839000398296
0,351820886371936
0,345200802009709
0,327153626240618
0,342090685342337
0,343840918078145
0,33671087796431
0,383431001142129
0,37428436311772
0,364072770413578
0,344867513507296
0,362007457665956
0,348310867316903
0,372976475930418
0,404709986549021
0,409388641890316
0,480524381039259
0,41713286681746
0,425363425269434
0,369356089461467
0,372374571673635
0,378370145978456
0,376957164241763
0,367619381120919
0,357565195205433
0,392515302314867
0,402083750438354
0,375066274983483
0,378233910699736
0,37182654290901
0,368768726562145
0,366582020891154
0,377625084095189
0,375304732295389
0,37906313223429
0,389032838441233
0,370812264874323
0,415418982094312
0,460308160417622
0,414568316902467
0,394565216962749
0,385663970830064
0,403634011664612
0,382135957100912
0,400957942463118
0,418958658740101
0,411628571278111
0,402299272613676
0,395458966453799
0,402738029125777
0,386594660931034
0,43114645760526
0,422470888863375
0,406325807506137
0,415782357879393
0,39631551176264
0,483728104723533
0,438799893515493
0,462984365231378
0,426106843936367
0,434246413417176
0,406400659443543
0,418604067425563
0,40084737714677
0,425345689012586
0,411779620521002
0,417561601277668
0,418385302185958
0,416617527945882
0,415449783487059
0,405144877793994
0,427684835021244
0,444058950830367
0,418232914812621
0,416630303942638
0,415249758186852
0,412918259776463
0,409201902358456
0,453375937706406
0,437478970942897
0,437355889686028
0,414026212951957
0,444078123660481
0,447702594179094
0,434563505532803
0,40981868838338
0,409081092533449
0,404489919292597
0,421808987392564
0,394667294855399
0,433089493722024
0,441360193921616
0,442005172225817
0,412454776561905
0,417332646522194
0,408826545237029
0,424079156883194
0,409735419514715
0,425255018803973
0,423527272732843
0,433938723163261
0,429978401185309
0,427601499467805
0,430561338679039
0,445363423601211
0,458822939565472
0,454052249730864
0,424048865094481
0,431062257986695
0,416874479283883
0,433130795183219
0,428487757942615
0,432083030293205
0,412844507850133
0,431146754313918
0,399794715181024
0,434043636165637
0,444430845778378
0,425714944289125
0,428458565354526
0,402780052515908
0,404497798210005
0,398223386564684
0,400479160430661
0,387162808735493
0,396255411352309
0,401999967664278
0,391390613016394
0,390355764967852
0,385152026946814
0,385991937625902
0,385895426997122
0,39217148920253
0,386539023078613
0,392243726733995
0,385857828900672
0,389033137538622
0,382615889136971
0,389180807663445
0,379558679671717
0,385428880409416
0,413301443831473
0,412704583170882
0,413499674089536
0,393141727253415
0,404347511038122
0,387112034933144
0,382217904782123
0,378875926080954
0,380917313816927
0,382692153354121
0,380320282132135
0,383540652492278
0,382733472684367
0,379458193334043
0,381110564617967
0,378266502924435
0,374407724121622
0,379573676258508
0,377866245334197
0,379957009431782
0,37790552163461
0,381034605258355
0,378462065522716
0,39336634430165
0,382382953528173
0,394975010318572
0,384254938241747
0,386632785544434
0,384498177512894
0,38617684819053
0,389839982658007
0,380988357163442
0,374794846822784
0,378776620703147
0,379681841793689
0,382195002541454
0,373233578797547
0,384376066829116
0,372743650075395
0,373557377148247
0,372957289799522
0,371254061912502
0,371132852797733
0,369595822907153
0,365986766776492
0,367689516105591
0,358810756879346
0,366319525987015
0,356578545077083
0,364629892074962
0,356722046818032
0,356778077689518
0,356197873021616
0,356312404423624
0,354632742250664
0,355505827068015
0,35434207974514
0,354501561442665
0,349249216898636
0,351474110249551
0,350106390967032
0,348666872631397
0,347956635678587
0,349383310443899
0,348037648398547
0,353290897568323
0,346340589494555
0,349111423777049
0,350266296743681
0,349391066421712
0,348644098192564
0,355059968406854
0,351016574104524
0,359415896148473
0,355567790394731
0,357518610294072
0,356578600729199
0,360835311952761
0,359350969232124
0,362405084790461
0,359936284569989
0,360808988701164
0,359844720989005
0,365653028548019
0,358189071340084
0,362096055054512
0,365218761336521
0,367559094490715
0,364572352114462
0,366435945466993
0,363758639973935
0,362020058108912
0,366165277875807
0,361713050456863
0,361497792171188
0,364100403517319
0,363261652897942
0,364591355063553
0,358855885388126
0,359838119989787
0,356800254172906
0,361091499292463
0,357484237290177
0,358558831313952
0,356338443573972
0,355521365002042
0,355361162774565
0,355536675048575
0,354756592768366
0,353215314150074
0,351016714875156
0,349139277821277
0,352121352872312
0,35448508799236
0,347506232522523
0,348602608983549
0,34662497945537
0,347115538073105
0,344966447278573
0,343752847542178
0,347550702470528
0,34593413706981
0,342387685613162
0,344405604924006
0,343807312395709
0,345661148349934
0,343636091319685
0,341379699305982
0,337752832700266
0,338896341283113
0,336835072451597
0,338166418319782
0,335644259907118
0,335393294576828
0,331471363795713
0,334017231538081
0,326989866872483
0,331380493580205
0,324068563882801
0,325324681357921
0,323377659166837
0,320503376249523
0,319085830985173
0,319975851176984
0,317390129135186
0,318307026928061
0,31852711020491
0,317490837702462
0,315717303671529
0,316888836316513
0,315094648587623
0,316593905197873
0,315167299350494
0,315669611784018
0,313286152653483
0,311412995499155
0,307407798636194
0,309420621609726
0,304759378955124
0,301872077306992
0,303602250350208
0,298084782972866
0,295968396309512
0,295951483667411
0,294250721071469
0,29489477145495
0,295161286788698
0,297206354909568
0,297423583057877
0,299048545523427
0,299954454165895
0,306931866587284
0,307327401805922
0,312198684299351
0,315238133630343
0,322203630677301
0,326944920467784
0,336350093906132
0,340646164958116
0,352507674943304
0,357408201641161
0,36838796873387
0,373362295748293
0,384149512996508
0,392042813562124
0,398742087602314
0,405312351560158
0,416254785836115
0,418182538635362
0,4302780416724
0,433723575381078
0,444993690291352
0,44984122152134
0,454606881029869
0,457975013492596
0,462672510071382
0,465762799067941
0,473714057975152
0,47176327182665
0,473041617432735
0,472798486079303
0,482110785453399
0,479875418560235
0,483734856405597
0,479764976167893
0,481843986363859
0,47985672711279
0,480001580494936
0,481115269861772
0,477462473366696
0,479098676428249
0,47796782697968
0,479042275762853
0,482301713869904
0,485957530427081
0,482560164941999
0,480122649745205
0,483427080143
0,484881453595472
0,490166409155229
0,493259920720143
0,497203599882187
0,501597914524526
0,503498126860821
0,511340759368869
0,510764475404567
0,516049757524595
0,521319430055843
0,528037319770009
0,532990161367779
0,546485950334225
0,548097319064275
0,551195307631691
0,565361652179397
0,576395853645428
0,581718136752629
0,582396283690149
0,594394616989527
0,597007315065204
0,592552274940012
0,597191185055668
0,600737315078145
0,600583242763219
0,595063364326897
0,590482598094988
0,592332902034612
0,581591493948282
0,584162157449708
0,581291248118676
0,572983343673129
0,572919009358713
0,576501448959848
0,578136890664461
0,581113914241952
0,579818201858747
0,591907002787169
0,598058489475117
0,607692288601751
0,619608114363506
0,625124616304048
0,634622118627428
0,644078713916298
0,654903057405556
0,6625143995579
0,671482311752319
0,679857603524912
0,68171868140954
0,688029211131461
0,689669069137659
0,701683070489358
0,711692672707375
0,716856954658402
0,729227275984704
0,731469826024284
0,740880054846658
0,760057561573333
0,771563186688249
0,783454552616919
0,792678223897618
0,804567294279738
0,825656553003353
0,839253710582999
0,838672733206458
0,852103141446758
0,870875303235276
0,87650881298462
0,883165411817467
0,877817123520457
0,902189601770143
0,907771708145343
0,912945914725931
0,908078639702742
0,917373521504547
0,906866241271475
0,908872871503302
0,888741917535544
0,888748684200536
0,891109724821604
0,880348549282129
0,877817223532458
0,864268613669445
0,852546467058374
0,853855206564063
0,857569797673018
0,842338642912645
0,847325832137105
0,867769075812087
0,857069498529272
0,860558096703658
0,867660739802354
0,867956471316057
0,880216402086154
0,89930288867463
0,895914189107453
0,899592618213534
0,908824639235712
0,895075037165202
0,905176513148843
0,91496193006065
0,923802580651497
0,92956314241809
0,931467323331975
0,938666886099024
0,943820930693432
0,928028550684352
0,939644398476217
0,951066176948741
0,937074766626746
0,945192169981862
0,921982693069929
0,944628279657272
0,94371014185494
0,952517117576669
0,934127558324032
0,929644358230494
0,919099772026431
0,933522343717564
0,923298002270991
0,90557246167246
0,899756056045093
0,900813899794653
0,912024555862352
0,896498126783453
0,897960646426741
0,900508934041017
0,880136429395779
0,880604827572682
0,864569528677671
0,847158260101583
0,815113218373015
0,816530964361564
0,796103520703227
0,767687374726658
0,75842009642322
0,729571130160196
0,715161417446677
0,696257404989469
0,675774087350579
0,658696338218739
0,629286802263742
0,624051592716315
0,614668323670173
0,612753507862498
0,60465034321686
0,594718491060057
0,600381328731235
0,596642632372108
0,589446797576579
0,592855259099796
0,590616363742791
0,589485796681229
0,589687299318685
0,587196239789451
0,587237850681279
0,578534076332127
0,577157529951538
0,567026656852144
0,569490990733481
0,564938829552523
0,557307438610087
0,549217482550266
0,55055777849614
0,538502186145214
0,534576439323563
0,524793300583283
0,523196696849467
0,516208783559081
0,504397367366751
0,49856825243939
0,487574415851558
0,474584425818427
0,472650084941754
0,468143731363709
0,452505056967114
0,452009748227861
0,43513359423013
0,430074275061611
0,430506040798837
0,430009994243038
0,42450891763585
0,415432169067767
0,412530297399074
0,411745023696768
0,406257002553439
0,401316644171234
0,400080384197963
0,403154070045047
0,398128853712194
0,398209390284615
0,404534547517308
0,405571557548459
0,40003801700062
0,397111898697664
0,400030949033295
0,39812112539279
0,39654836345681
0,398821078005049
0,403556004953392
0,409256836138957
0,405115894115251
0,40653419537382
0,4102045457833
0,407043510998521
0,408111916841729
0,406326801177275
0,406690065620872
0,401552337759076
0,403822968133221
0,403568471863049
0,400706431183336
0,401788932276537
0,403153101214194
0,404627873551977
0,401776844173775
0,403038659604868
0,402998574527824
0,398529839501772
0,401836959151768
0,409105776825262
0,401255663936261
0,406289863163597
0,406812370007464
0,419974059711909
0,400246950729009
0,417900667506354
0,407271883615
0,420218745438873
0,429746170780288
0,426133020025137
0,42864095553216
0,434555587800149
0,43430848134522
0,436482034451601
0,440189388541294
0,441893254867869
0,446655479017938
0,449889883382233
0,443965626569315
0,453633443967322
0,444662736451867
0,452427848852258
0,453713467691839
0,454148812123626
0,458827237919487
0,453643030689825
0,464733461582576
0,472892151129342
0,479087490122697
0,47592313116364
0,473407611653844
0,483936880145541
0,485774583622382
0,493269718355743
0,50105538554362
0,524520479793444
0,525518809413043
0,539122415290848
0,536894953273226
0,543595332252792
0,558856405474071
0,547356471876268
0,545319457596931
0,546770513450083
0,540910433799911
0,545313306776429
0,549899684284658
0,558722291597507
0,555210472825749
0,557810068491868
0,551232161982232
0,543622086779409
0,544186533018472
0,554289885754432
0,558180803418658
0,570393161954579
0,568109037242326
0,573203143838821
0,572554064483109
0,572459222559079
0,566740278836878
0,572927803454785
0,564705172021353
0,585580156475447
0,577915261100224
0,56880171942776
0,564943191481261
0,580830338053051
0,57092910234705
0,583195122602191
0,579936086350557
0,587496780466435
0,585922877378558
0,597635824981382
0,588854696011841
0,592498648584953
0,576538768876077
0,598363148917786
0,604701723258924
0,602359834088364
0,596062432427672
0,622123632376653
0,604595303552466
0,603606745677342
0,587471414628475
0,607360691753898
0,624220323843769
0,621840580371937
0,598356413882065
0,619355514639288
0,604602007803265
0,627960949590921
0,624277255074161
0,629537582482222
0,623824636931004
0,632825310299229
0,640236048410249
0,655467292337055
0,637858260478431
0,641350977099395
0,62978272232254
0,654269798889364
0,649545489476768
0,656183617732913
0,638292374581185
0,671841074418735
0,677433602033721
0,670696488322513
0,672068169372681
0,67437477245014
0,678935433748999
0,690184461627185
0,672964468335476
0,690809812393232
0,685735525546737
0,732815487842307
0,695559446958154
0,698932433662986
0,681189533819091
0,700573376886803
0,718268119811954
0,703040481424443
0,702373127799998
0,700066685222527
0,720959925559236
0,764007138999818
0,734180272461367
0,769032254271471
0,743434799487393
0,747786167196442
0,741728484969618
0,767842626814422
0,737413651110719
0,770977832807448
0,741220824587452
0,786350138456274
0,77119402797495
0,76552374190333
0,788016102251221
0,793429368030356
0,764668155482491
0,84279527761782
0,821156976409397
0,809012362430222
0,821623155717148
0,846432918717469
0,830277152412475
0,859345358773092
0,870048849986717
0,857991079209793
0,833113413093898
0,920779951949423
0,838683441973425
0,851939736395083
0,895519399349857
0,917838355994749
0,907402251464614
0,926579830402897
0,934420843967414
0,957581861903017
0,936062254851847
1,00568938067508
0,940332520358634
0,903964841011134
0,891069017592612
0,908596140113248
0,876437631654447
0,956345546738602
0,971556588867267
1,04631806764514
0,92857745789144
0,975805749952854
0,932368809382879
0,941233126298418
0,947062421953297
0,952546179224398
0,971768418351238
0,934554293389092
0,930258468465526
0,997542287435848
0,978687449714676
0,976690241979014
0,934443171548853
0,961051133860159
0,948075138843654
1,00696697137111
1,03396840153537
1,0582762812217
0,921737333534091
1,05236896364542
0,96377735160938
1,04857901042047
0,980942005765828
1,06893408701617
1,04504053969132
0,97617873731147
0,932750140663221
1,01044593669726
1,08116365921677
1,1601532893919
1,08344903741603
1,05713247773721
0,927196358377711
1,0049593831461
1,07061475699307
1,01615991288631
0,973761639553447
1,01861392243604
1,13306114565475
1,22441711753558
1,12571595178271
1,01966833531663
0,989776362792501
1,04480722348369
1,04253667716749
1,19803409660848
1,05136390437815
1,07746521428493
0,978687815390314
1,12597748510526
1,10662608598186
1,07815822395274
1,09122026645148
1,25021755810269
1,08837374123845
1,11005834510692
1,20566686938378
1,01231161853844
0,946597405938111
1,24213571869719
1,16387325211702
1,11185974464883
0,905959476830332
1,17310715749083
1,36384295389328
1,16404833952977
1,16663965261133
1,22230719991212
0,975546408395266
1,37339542504336
1,58040395160264
1,19231525964532
1,07734221609199
1,86891787655522
1,17902654139073
1,31892760296631
1,81557346116938
1,3365026970163
1,16777455583144
1,3824527241382
1,46035825777403
1,5298695271923
1,24349574862593
1,14426062330225
1,15398186741919
1,26106789295373
1,12754222058807
1,40737945461918
1,12864227229287
0,946624645172553
1,14303980617235
1,53563442822453
1,94568044193686
1,76157248165006
1,49352746107246
1,42615236465397
1,46774086018935
1,42618111147432
0,964147751753505
1,44255248888485
1,63132926713607
1,30947758601741
1,30533797469655
1,06716115270061
1,72869928274615
5
0,736980195623856
0,925403037188982
1,24560151088192
1,35167808735024
1,58644586989332
1,55969132393354
5
5
1,64687831353393
5
1,19205582930488
1,6287305828343
2,04354264521478
1,15674000601732
0,87160435986643
1,41086345950353
5
5
0,930204042367003
1,19996861844737
1,58646734463227
5
1,15098594410553
5
1,39481001777334
1,22526276345867
5
