3596
4000,36533379555
650,420452594757
1
2
2
0,118069095766311
0,117747600667023
0,123594267158933
0,116539776510038
0,121378007873649
0,120291969191156
0,114423277041806
0,1102006103191
0,119671583427398
0,116123815285285
0,115477472067271
0,111484394359428
0,122020696378313
0,111193262717581
0,12639971670334
0,114895480761813
0,113588481434092
0,11944474534076
0,126537735873547
0,112901047937334
0,112170501357436
0,108599677932587
0,108829760917875
0,108215631172344
0,115180121211319
0,115314222778518
0,12650542853701
0,11866459706889
0,115478962335227
0,118050111801466
0,128712421581131
0,11929118535387
0,12428350977794
0,124806755906524
0,117908183162783
0,107514033505635
0,112958843988344
0,116423344278789
0,117185225389311
0,123210116604716
0,128640591442759
0,121546957703898
0,119314573570377
0,118586374570738
0,127241160413459
0,119611451835401
0,117135587319921
0,111491680487891
0,116625515229918
0,116969443778431
0,123775644443072
0,118453059323647
0,126973121843417
0,120247826332905
0,136608543821296
0,143500655004548
0,130965826577999
0,113385737540838
0,120044582948621
0,132190193355951
0,144972245076185
0,128770871054273
0,113688998633154
0,111771669335751
0,11580240447127
0,124319291392927
0,121513138709802
0,108944193029417
0,109791597783803
0,124369333786927
0,12054469086344
0,152074125078366
0,148075622478612
0,115285062442016
0,131592322682575
0,125899624356136
0,11408488687545
0,117214713756126
0,118713283104818
0,128222163162681
0,142914794388628
0,120250171051842
0,112702993623858
0,109761175766983
0,142076075288192
0,138163476630311
0,10931331159161
0,125641605513129
0,154984029860375
0,122719617813048
0,117350568783037
0,112369665542908
0,11271614327937
0,115188625635496
0,116271571251892
0,107703733049729
0,107532853536617
0,112423014219761
0,12036109818957
0,129430157748359
0,133942093866225
0,154188258065449
0,16506060244905
0,142873059224844
0,184124284508975
0,139920454711497
0,136985910512149
0,175116152805502
0,147349822656205
0,118629608125058
0,112488445690313
0,114685190480282
0,12466093201801
0,121427539323078
0,12037021358689
0,161750120273935
0,155315950627298
0,11743843987608
0,118958621908567
0,11833610941288
0,118844820000295
0,169713317908089
0,157306897066294
0,119296220628745
0,133554283479578
0,120017102491873
0,13026159860695
0,189604931458057
0,154590974022154
0,112284627790567
0,105937643000614
0,110533375939062
0,104353137485159
0,126361353340005
0,174794673195282
0,132667641345212
0,129352414127419
0,119791931481014
0,16717393471135
0,180105636666123
0,133442796153174
0,114493057514223
0,110879156756584
0,144497184641741
0,178936639038495
0,125175168545891
0,119982660298185
0,154605340369098
0,127531368154928
0,110386405415332
0,111111026015637
0,121424065076924
0,143793943830229
0,134801918839513
0,107881983103223
0,227696154157421
0,197341681180231
0,179329902921393
0,189746379555163
0,124957451073278
0,121849800171237
0,117724114384795
0,111815707725201
0,108970754880442
0,115631770093231
0,109548851609519
0,148335783330038
0,155391111195815
0,123724659984353
0,141300843782697
0,173119897625092
0,144740111101112
0,140328368866477
0,202360898700297
0,126847418106934
0,121946764131552
0,158504338692126
0,131366328113731
0,102219659740346
0,136916062004474
0,151336269958276
0,120616704588046
0,109215365223683
0,111339527131006
0,129873719912788
0,141965617077199
0,123438212710131
0,118039483026997
0,121198554976101
0,113164365140596
0,171146802043382
0,205143738325725
0,150931629157205
0,12242944495303
0,117445810704929
0,106248136369115
0,163211730988522
0,154969127925125
0,122229591396503
0,114714034208473
0,117695706365275
0,115075533827733
0,101586565621237
0,117884274996392
0,105232836089607
0,118778261875789
0,176001949808047
0,138071638122866
0,112502336998204
0,119856610459148
0,133653009373154
0,142155922820844
0,199982763540045
0,153652379279439
0,121289812681659
0,118582849940411
0,117738086801403
0,149626647768162
0,137723839340651
0,124074594295353
0,107533151056109
0,107567896222316
0,112497310652281
0,121580357246911
0,119911933251931
0,108826389675397
0,115459831901146
0,119056946257965
0,114103872221012
0,125047969993788
0,132885281505793
0,119882379029305
0,113483575125533
0,116777793241626
0,113654676332779
0,150010598539422
0,146388548764556
0,121847890096846
0,119464891598964
0,115635136794556
0,113217879526067
0,125026731626742
0,116154014944916
0,121900524531279
0,109844862417569
0,134272593266845
0,167700947841973
0,125100306326695
0,11315564899917
0,116164691468056
0,151131326105048
0,136247861698116
0,124751388056189
0,121514356254139
0,121060579752527
0,110012421772362
0,135122616157945
0,176259641601682
0,131536050469286
0,113686012861422
0,141829853586934
0,134836618625598
0,121718445030686
0,121922248544677
0,145721527135302
0,240461265615032
0,157933758277722
0,156522290632297
0,195855293168754
0,156042534005979
0,144365690420088
0,133637241750209
0,149396265996703
0,29290182153935
0,188493232735505
0,134162827306411
0,139176202748126
0,157340322560957
0,125507636045143
0,14554770579272
0,137018637862137
0,174473937739702
0,169817679466933
0,241502490595648
0,198882576036988
0,137420932002834
0,184899361952091
0,166469239340267
0,138888450404715
0,136609750456666
0,128555953909193
0,135220911057287
0,175243617890694
0,163051843681675
0,16140351973333
0,139083204764875
0,159975112290595
0,17259044647685
0,142200310800156
0,12445180274075
0,147474017011417
0,150346804428239
0,128290914114633
0,132929370834925
0,136060694678041
0,150914719131845
0,12519648743102
0,169024453255051
0,218240611470698
0,162157132209612
0,171855569984411
0,179300579563306
0,145526665024768
0,13409152208968
0,136365046943501
0,133554013428846
0,136743819369037
0,13518360667964
0,151443726121106
0,189378243293281
0,151585644001811
0,147494162769897
0,147717349192404
0,15173708464887
0,151092406619598
0,150920330306113
0,153092137281304
0,163252477955895
0,151673432137562
0,151388791531715
0,209039003369476
0,197184403640968
0,160557226454021
0,249231802927909
0,205997388151277
0,18300470537596
0,160172955070428
0,171604898675242
0,165523787154734
0,163594628656399
0,172121717611435
0,179929190970916
0,19340898247509
0,215581040279855
0,205823994004389
0,203227565566715
0,206406656232445
0,319377964191117
0,286240077978805
0,228477800070928
0,204739321943639
0,210416830012327
0,286754267764153
0,261284073610552
0,269891687088057
0,247725232355328
0,216426085386291
0,233370420301234
0,220051476258301
0,231699233223395
0,232384618229044
0,245010516617017
0,23729263755422
0,256181447934338
0,260576837551634
0,263681702543157
0,261407870786667
0,301337453312688
0,316979188077678
0,289118000661269
0,273963257278854
0,284206198515113
0,275177154516184
0,345816524769988
0,336009270973209
0,405632336311271
0,319907297563389
0,407105010682944
0,38471031033539
0,334998977935372
0,316121194603102
0,32177384658671
0,329615641609321
0,33695116428997
0,333854715746637
0,337719798749355
0,335113726115995
0,358893778305048
0,35451982457954
0,364321177939953
0,353238704906609
0,382517613629635
0,394147272366915
0,377425014600798
0,382776375363119
0,393055474281921
0,424240401965809
0,500978793146115
0,47719089224069
0,42046841091397
0,42793219601377
0,399351122308381
0,411958790437829
0,437563111675047
0,406257061743631
0,431185543049892
0,442722266394277
0,497801469182444
0,467175072472979
0,518001914023806
0,452072700627424
0,434154823133852
0,48117697863396
0,493188210325956
0,496145120780843
0,523652264041438
0,472656561155788
0,475912310961222
0,53843756037261
0,511637373104738
0,493899346138904
0,546843666731663
0,489260073767662
0,50507023045776
0,497408836184009
0,518139598360501
0,501659634689348
0,575211610829802
0,54353729807921
0,553339184856405
0,541814040559057
0,538471579456651
0,537360406461542
0,61069894871722
0,562440486339249
0,591719056702329
0,567694547309765
0,570696133688855
0,575385932563421
0,581968276009031
0,615817673024674
0,616620850612626
0,606650153266668
0,619891785398676
0,567808183570431
0,620238424084267
0,591438993833205
0,630009759459103
0,577856265658244
0,647228862108265
0,614438253362937
0,653104804315945
0,60826183687899
0,663857693405438
0,617570155587212
0,676599877557739
0,626779055294274
0,65382464384658
0,635308533288323
0,663978806099127
0,640757230007384
0,678062603350661
0,751213630024883
0,782654810669058
0,808715159250888
0,744526351762047
0,680881294683596
0,73919665717128
0,723365689510186
0,721789322247196
0,691923700854198
0,799266911366672
0,732796234194997
0,750989616300092
0,733934131877237
0,750429846747122
0,722879509500464
0,794877982780077
0,732840426148343
0,769525249173074
0,736180601294002
0,830983527930707
0,733630628950239
0,841474214546788
0,78548833221399
0,853880358616802
0,758767265171982
0,871004819308762
0,760099694670588
0,788068996247798
0,772183343657484
0,871144094492121
0,779158618458306
0,897069164013923
0,807854506364701
0,867382216770029
0,809584760395567
0,897843624265727
0,813918131754927
0,933852446547196
0,872577346217787
0,9178610738923
0,886104431925717
0,971041426866458
0,877452496130118
0,955195965970655
0,87339630236516
1,0041167846803
0,924950624477621
0,980522997272881
0,913540149621317
1,0519213137277
0,892887928781395
0,991766103341072
0,908222898673363
1,03551843912047
0,889075814383825
1,01806604720565
0,887346859423297
0,953488908064496
0,908404012741828
1,05388200729645
0,940735328764707
1,04909162229841
0,88570782871263
1,06988306652991
0,931141562341538
1,08563936487023
0,94665244092276
1,03128935692246
0,973014278861641
1,04672072318128
0,971741496912265
1,12339851210475
1,02642051568911
1,19475727806046
1,03739932298597
1,01777928572306
1,03856833667516
1,12412380688045
1,03787802480699
1,129219736949
1,04420928025469
1,2169580401001
1,03219158933076
1,18435889969766
1,12581330894993
1,10596611966085
1,01367924624739
1,21207123184362
1,05815922782078
1,1705813292304
1,03168114098543
1,32377259090736
1,15101798590615
1,11878731510076
1,02654786183353
1,256864565449
1,11231086899086
1,1860962540024
1,0810571063229
1,17928405981374
1,17337415522563
1,17531206726908
1,13169382642186
1,21329251663813
1,14847647504288
1,23679703150077
1,14863441840041
1,30306274133551
1,16567017213664
1,2370791236048
1,24445134946449
1,44035001739017
1,09200756329918
1,41995783889256
1,10681671830371
1,33042478100566
1,18096198164562
1,34144568173976
1,15223170331491
1,51255738911221
1,19886373422894
1,2657376779448
1,2609146207665
1,39616788827935
1,19506865705196
1,35652316970342
1,15908418928972
1,33972664449926
1,21733607573768
1,51754519776683
1,25713726355209
1,45999389933932
1,39253307140709
1,43479087117799
1,30079891333453
1,59373351958834
1,25351389304057
1,46645531814671
1,18510907380064
1,50335828697209
1,21636493606713
1,3251172669076
1,24823944166318
1,49991304063282
1,21277221321893
1,58688629974544
1,27641017657915
1,53869672651098
1,25585753825924
1,62903599285913
1,2879471705004
1,67783905864538
1,33715677195662
1,50942718928759
1,55061423612769
1,53423878581537
1,60109537425684
1,4869543590943
1,47965778150649
1,6460926916897
1,50903672455704
1,77495416617211
1,42551194891951
1,42519359402649
1,30301615257058
1,91640928644061
1,3225309588374
1,62717853775971
1,41345743196688
1,54677535340443
1,50345052414659
1,45848926317158
1,50771371749936
1,88250717527056
1,35378841220898
2,16729874815463
1,48413855945168
1,51113588095731
1,41967861925156
1,78587398123033
1,4389257114589
1,59940555479557
1,5422929699112
1,55991661201377
1,47452694139374
1,57927633958937
1,46366636436298
1,621165155559
1,31449907741742
1,8000823297846
1,65235469856738
1,73550784606902
1,46357855216189
1,6260529616387
1,57886117759093
1,74330850725197
1,5136545731272
1,70690378072641
1,43265199254909
1,69833636061795
1,53913110075083
1,79438583579371
1,72735792939242
1,69287675622333
1,50570813062218
1,77655540512785
1,43636906335476
1,58991049249021
1,56414581081384
1,74035224079963
1,40859748697906
1,809336242431
1,47682306242833
1,95128773712666
1,42572993027817
2,44237280720624
1,41633999814909
1,63788531919009
1,64188168774069
1,82546131534909
1,59187445604842
1,95971473366011
1,71244450399217
1,91220994960448
1,45749074699528
2,03901377821782
1,46379645575066
1,62986596454429
1,40605737864342
1,63504957916925
1,55383305477637
1,80380857460254
1,73017323099467
2,01098197215071
1,55682934850246
2,01033098929256
1,60069045971677
1,90441625373534
1,64625016085981
2,02834261700303
1,5360269130717
2,06165761363781
1,77602428422515
1,58468590167527
1,39735211171581
1,94667777470475
1,47408279571509
1,59818828242744
1,67098493889389
1,71065783625295
1,5206007371293
1,75668191233175
1,79078385852832
1,70613071072088
1,59366449510277
1,90221198181317
1,59868796534658
1,76673852804042
1,58976397680394
1,6382814921819
1,58861417788838
2,14180350022143
1,75802494725693
1,75079527931616
1,53960958507268
1,59435118680047
1,70031143955984
2,02705125216236
1,67367748921061
1,60978339796044
1,48877273011157
1,65195471439613
1,65280990584864
1,68337657808031
1,78028517730514
2,48095033511196
1,76945929172731
1,98747347859767
1,58738258077705
2,0183801160991
1,48616023935963
1,84604500445808
1,80849870305642
1,68866640291239
1,68832294354354
1,80883510433163
1,55544073587174
1,87616917567981
1,5471334772791
1,62041405754279
1,69315034055835
1,5821757731952
1,74493480588016
2,30649102445272
1,48678169634016
2,2062280704984
1,53153453415725
1,64790208687861
1,60683756424805
1,67429053742857
1,45873393850985
1,90051155184901
1,67868989365517
1,69921412105471
1,87220703296285
1,85371376964031
1,41882503574896
1,94783934829305
1,56857055787479
1,74323625729765
1,58462610512924
1,84832727133205
1,53522597616223
2,00536361384356
1,50578608495882
1,88794096714664
1,75441464581819
2,01689622251207
1,53081287421009
1,79658081620892
1,50206764669465
1,753842391162
1,66664803215531
1,86870451832045
1,77395294599452
1,77012529365092
1,55166465035844
1,57067316843807
1,59763054120219
1,5738339120872
1,52256303052364
1,89881934080874
1,58742754751495
1,75976767651737
1,72617547841041
1,87011995418088
1,63972498259832
1,59118042987622
1,6498050537301
1,83599372841359
1,53696628364883
1,92429812169338
1,54609284419272
1,82856548512586
1,61704587212865
1,61708067196464
1,58138805202276
1,6753667579237
1,58988890123918
1,73014296287858
1,59610145578865
1,84955757425081
1,66705810753257
1,62203046510604
1,35033292993189
1,57306926756041
1,59190996203702
1,58007210575458
1,5500213125702
1,6890600132378
1,53260450926144
1,7973451041195
1,63979959642096
1,73746951415024
1,6089916891814
1,62933546904988
1,52080147383807
1,79601033002534
1,54407227173046
1,79365316369177
1,54561659268049
1,75244474130507
1,7084232893628
1,68584442870222
1,63205471080275
1,55245135227661
1,57531941037681
1,76050687431687
1,49308797510594
1,86436262380331
1,56551377259375
1,58377231600365
1,47499705807952
1,72041590940188
1,64655866004329
1,65779760338312
1,50392888199016
1,64009965440017
1,40239157159628
1,69358260291369
1,47967539533178
1,52739381777247
1,47406058285575
1,63215704745565
1,47352416713388
1,48602493445193
1,51244773323415
1,58224819106763
1,37482512164229
1,67348710907166
1,61665138261115
1,58041231140672
1,45438130599071
1,48527552471454
1,45627939429845
1,44225431493514
1,50366928152979
1,4898845009612
1,41815120930972
1,47901599149077
1,41719070152808
1,55962506208838
1,40033799259243
1,38823880309783
1,40220536994204
1,49958246526947
1,3524883927321
1,44550522375838
1,48437849596143
1,56461059047274
1,4150634725314
1,36344647326478
1,37596032883148
1,45959012240375
1,41640765235813
1,44519161070496
1,39028024639719
1,31344851294447
1,3039211426814
1,37922738684505
1,3555471729081
1,45256919085187
1,35303794414858
1,45429074991932
1,32078518684726
1,40876365035445
1,27453239151455
1,35296847574498
1,29324373964645
1,31823800209628
1,31866331176701
1,41892107663281
1,23018763879151
1,28335971094547
1,22708683782774
1,26636345997678
1,21381880768943
1,23500953536353
1,20653749705731
1,29581916721271
1,24400319784909
1,27384954214719
1,20967208724099
1,32851144376042
1,26644108021985
1,20736717515467
1,17823031367537
1,18493389336277
1,12781760150636
1,27000343483511
1,16532473435235
1,24931371056403
1,15060735811287
1,18661225497343
1,13924777499554
1,14501926308979
1,11970285840575
1,13500096301469
1,08636015320589
1,14374233174274
1,12782186670958
1,10589999894656
1,09712918991658
1,10892260745791
1,09513300322483
1,11079592127184
1,07836271286978
1,10518965680667
1,05103284470071
1,05497045484745
1,05547278593291
1,04661035173298
1,03996250949706
1,06593118800301
0,996231616529802
1,07796871514119
1,02225412466487
1,00496512279083
1,02653016427419
1,04000669045587
0,994863494094482
1,01092422937637
0,985718341346691
1,00207828308078
0,961258889467295
0,958213247819862
0,948469663874463
0,983274399846207
0,975009811744793
0,977949451325965
0,954242483683163
0,953242819062916
0,952546065317294
0,95005681412937
0,893725228489154
0,937881702129055
0,920078299189751
0,9179025432033
0,900016197663323
0,909917465892606
0,904269952592397
0,911738340567494
0,887595279920299
0,887702242835786
0,886793179904046
0,893524283575421
0,881766547074351
0,875031051116076
0,858914584974318
0,875628956773416
0,84592128547897
0,87048483798348
0,853030608893224
0,850111890024872
0,826093638205807
0,827743031450177
0,811952960470342
0,847710026765988
0,804884057379393
0,823766577088258
0,818460981251582
0,815101681151873
0,8005863849191
0,792656274661483
0,792218981613816
0,789028286013457
0,78477097849812
0,79196777182656
0,770388617491569
0,782371441129506
0,779100580295732
0,76293940554603
0,761766635222481
0,770960171079695
0,764259870531919
0,761209973011041
0,726316841587302
0,736586525872202
0,726066847231859
0,726720419259432
0,722185602275451
0,716024709461209
0,711151492480121
0,716696633548265
0,702324918382318
0,712882203289947
0,693825144954798
0,69777921828883
0,674966942111623
0,684317096824916
0,678149617424832
0,693853321747081
0,675415438671857
0,684874562133715
0,666766695484611
0,670530644796701
0,666412181072388
0,664428208403131
0,655677780802426
0,662327403908376
0,651311042765792
0,651640582785428
0,648740991737851
0,640493784642634
0,624186798611883
0,62758022991002
0,639727338359774
0,638140248148373
0,619056859259119
0,61881846037948
0,606886942249708
0,6079817795692
0,600361370908427
0,59622183642822
0,594124241426001
0,587111581746978
0,589839069698679
0,605337857646907
0,589168156096183
0,587886393807896
0,582361059754732
0,583589429129256
0,572888848329784
0,568674638156682
0,559696903683738
0,560778316124694
0,559433535186454
0,56693037689453
0,554488067634343
0,550776306398371
0,54205781248994
0,550624642835197
0,556397756173866
0,549615737552259
0,535547344712939
0,542970741536662
0,536891743966009
0,536867486457002
0,538664403650579
0,532360065367198
0,522645458686381
0,532232439935299
0,529487299833664
0,526021926482099
0,520018295613174
0,51754436056191
0,518565599967402
0,516721256085506
0,514021148696842
0,512382879712609
0,504161307197932
0,499168026964332
0,511976840124515
0,521049441079902
0,506098685372557
0,500466593992196
0,500044128201659
0,500536826569244
0,509613905548664
0,5010992097726
0,493290802190199
0,507583478116882
0,487508068029575
0,500460131390615
0,499120047328036
0,492355747033073
0,501331571102794
0,500542329160394
0,49523917431664
0,496689318419022
0,49970192988143
0,492025715599267
0,491159457309841
0,499293308483002
0,498000587871145
0,496711771245461
0,497279716894652
0,5031997694779
0,499114799013003
0,496645315519202
0,492674827330457
0,494359543947012
0,493460982367719
0,489865847658619
0,494611282995649
0,498505880891741
0,488669262377645
0,498978794241975
0,491452812598026
0,488777201515224
0,486997752349008
0,496922506162836
0,500650893509258
0,499246845139459
0,488464924217932
0,498547018673148
0,509519675352749
0,500053542451861
0,494883512276306
0,503474420439058
0,508028331849829
0,505092299463877
0,50652136584954
0,510335170488623
0,515098669796647
0,513169587433124
0,512370603848746
0,508216659204371
0,509555368807034
0,508634115849374
0,506961760785289
0,517002031792633
0,50721272560667
0,510338678065121
0,507223186354227
0,504552567366656
0,515838978965579
0,515766725593064
0,509279834486334
0,509772764522866
0,50345307057923
0,501389528845637
0,489800836659234
0,494266452401461
0,494466923859893
0,497594975922494
0,501029348675109
0,493330351382142
0,491169234002406
0,487286989067979
0,478046092940852
0,483876824791545
0,481781174543125
0,486087703270369
0,481567177294351
0,488306601036558
0,487452371654173
0,478996153929451
0,484449745104584
0,486861041737936
0,486285819974289
0,480758237186921
0,48132604690061
0,488436181159165
0,480612730533571
0,473734115130792
0,475036725325926
0,479391067199318
0,481054068589183
0,478489856152442
0,476400638857202
0,475113356094697
0,470378045179252
0,476282154775423
0,468641842579257
0,470690554477213
0,481260810663986
0,469660993146429
0,472314712572669
0,471869467659101
0,469681768571751
0,469475615865223
0,466042034060716
0,470170178487246
0,462700697987597
0,464963203125934
0,468698788148865
0,471495114418306
0,472985168534887
0,468609792965764
0,467964387976866
0,465491555575488
0,46607002067972
0,458247669922522
0,45526001427666
0,451031296592963
0,443551427608201
0,44567285765133
0,455716141747373
0,448518713397981
0,448133011178732
0,451491258782521
0,437461801739329
0,438374199643859
0,437184996750916
0,44057405704381
0,436320579743092
0,432940565466058
0,438998708478311
0,429280648112415
0,423036583448965
0,419001423627171
0,416710314842781
0,417491292715507
0,412492824968087
0,411853599682376
0,408638168678537
0,406511760530181
0,411474733434811
0,400142639547097
0,393679879414984
0,396899077790225
0,395880074819672
0,395909948236918
0,396727978765508
0,385711252182974
0,384997713160682
0,384943516873493
0,378791548374594
0,375737224801112
0,378479773897077
0,376954932953391
0,378269116280933
0,364817622871633
0,366453559181577
0,375362880478755
0,366553612647092
0,362238267307395
0,361387577234333
0,367675400443333
0,367742312625778
0,35809207138521
0,36299634371692
0,360718475777306
0,356417647562602
0,35149075793133
0,347860237816502
0,34833625643414
0,349028747382291
0,347078113816598
0,341912010482757
0,340781814210194
0,344932184574779
0,343656309652373
0,336277895397549
0,335435151924811
0,339264495110264
0,326430249685498
0,323429512474342
0,332402010040247
0,329171627373869
0,328161675434906
0,329956349999501
0,325537362682537
0,327743379911373
0,317792074845312
0,320202758348305
0,319798809407426
0,325794771994333
0,319307013644259
0,315314469506407
0,312998089007787
0,313325251033182
0,30954184141065
0,310359162390184
0,30896566860057
0,309114764441522
0,314705173555782
0,312354019655619
0,305243410149955
0,304413764833651
0,302077073788684
0,306200844732611
0,307218037223122
0,302418238576946
0,296965850687548
0,302060301975128
0,29713253278392
0,299183425445268
0,299799871202175
0,296394092943207
0,296702812991811
0,297709682975666
0,297738101792492
0,296041383721044
0,289735138094185
0,290876503628844
0,288845854881176
0,287928137312618
0,287367682558507
0,293474270182171
0,290437606956678
0,286684462280752
0,281512356978911
0,282603177181014
0,286580337832791
0,283374232479539
0,278827910222458
0,287874726663064
0,285664450248784
0,278343445148612
0,280733664479966
0,280807438328614
0,277318334296784
0,277632498693637
0,274616685996187
0,274961818201416
0,275480438233893
0,277830126149095
0,270559833462741
0,26732872427477
0,272373234309034
0,275512524391875
0,271027586079544
0,273809166542931
0,269778719404732
0,271450811318871
0,26187724588343
0,263700219504687
0,26984656569562
0,268270321218663
0,264126739950958
0,265349725368533
0,267632977897069
0,268768533877617
0,261380014380431
0,257382407388061
0,262076149437887
0,264554428429042
0,261303554390742
0,260435385765328
0,253991294421605
0,25813595408373
0,259405808514082
0,262472531680121
0,258609937693846
0,256394641328797
0,256113897669972
0,259997572368283
0,253162376870626
0,257488544373866
0,259841611475307
0,259955038232412
0,254705653457896
0,255177784681819
0,252854577100804
0,251021753389121
0,255349296710242
0,255267569743346
0,250436443808329
0,250042313612688
0,250217044904162
0,254864192601191
0,251638987372682
0,252749344856907
0,247047077748333
0,246843178137931
0,245045116391607
0,250362376007578
0,250468225646456
0,250348276253759
0,247933269229454
0,247333664694392
0,241871319910408
0,241251473168953
0,2446918266729
0,243925757777504
0,23771489125937
0,240929775663305
0,240943670773089
0,239874284791342
0,240261421767673
0,238841508662634
0,23915376188776
0,240574756068853
0,235917565259813
0,239286101328576
0,235571640463336
0,239123875692213
0,234259253804537
0,233811853710529
0,236280493859027
0,235696392710956
0,231947197485255
0,234398767440585
0,228861512475858
0,230887849897552
0,234890667559367
0,235180850964025
0,227073418413894
0,228674281123916
0,227150709915623
0,227556363786587
0,224316489388841
0,22814506451116
0,222665906799517
0,220521044704933
0,224344035658172
0,22658926537204
0,225094278684237
0,223619808541205
0,220153895757227
0,221719296511196
0,218033684069644
0,222540561613582
0,223782978691046
0,223367633667531
0,21575519908589
0,22043189977544
0,218269234278927
0,217556057117815
0,21461600000593
0,217601936602831
0,213220776659842
0,213520512486339
0,213688856694569
0,217313552112466
0,210929855104915
0,21347413636235
0,211862289817561
0,212176893026313
0,208532990045402
0,208306481229724
0,2093864793547
0,207044725416443
0,208759509765792
0,205116782616289
0,204058368822164
0,209255124349355
0,202650000794483
0,205774730058365
0,203760427600655
0,201561695473608
0,197859783122561
0,201250507613496
0,197423349767845
0,198461422063696
0,198358165627532
0,198308523550982
0,199622570810388
0,199027467617866
0,1939230216724
0,194636327796702
0,19618441424391
0,195627050715226
0,189822941352218
0,194152829195849
0,19071686065121
0,192397765512623
0,190696934104848
0,195421834638594
0,19365374736712
0,190473698582876
0,186299923860155
0,19004624993766
0,189042634346743
0,188129747878492
0,18273230293735
0,186927912893558
0,185289758403133
0,190045678385423
0,184498541833611
0,183403331642746
0,185738609252839
0,1879652674743
0,185654226450404
0,185800589057415
0,181971062288471
0,18183947269404
0,181365075138602
0,184661424009267
0,178414114125624
0,184623274037818
0,183351562040742
0,176321035317235
0,177559950495795
0,179467792868581
0,176532387515973
0,18097047778887
0,178147877845564
0,180810142520297
0,175269919285367
0,177678139277075
0,173265010541863
0,182330620775196
0,176525857930837
0,175538787766505
0,173640768169091
0,17752596250826
0,171107696798871
0,178332605275623
0,174937812768113
0,178112314918142
0,175490002557159
0,170663075105795
0,170610669086009
0,170543490084352
0,170235257177216
0,172599792726342
0,170289004953108
0,166527187791398
0,166803903249902
0,170035818705511
0,170957289525382
0,1734780088381
0,168084011412516
0,170444574194235
0,167010297698872
0,170265588247014
0,166615032930814
0,169372404874019
0,16546418124533
0,168284948074712
0,166227784819518
0,166290505805345
0,165801846082773
0,166889648567344
0,166593408067694
0,167692289155156
0,162787743406953
0,166623593820901
0,16589998198101
0,167297758635707
0,164946994520039
0,161690934234606
0,164112031117769
0,166473152178674
0,164630826128893
0,165957878814347
0,158182754475614
0,16515760920609
0,16352331632562
0,166294508345446
0,162774293914462
0,165275769269521
0,164726644119822
0,162275614011997
0,162399656547635
0,163785862775167
0,162023026374195
0,16698242821859
0,162213488321231
0,163535468272851
0,160272769124344
0,162784580767134
0,160348061351597
0,159809618850762
0,159336405778771
0,163391502279718
0,158186512984296
0,161374613181583
0,157705238864929
0,160195136097338
0,156650101325234
0,159389334679844
0,157532513694307
0,159666406353287
0,155976945759089
0,159624683403958
0,158890365411406
0,158253041209775
0,156900301197084
0,157259742754657
0,158463938041533
0,156454224252359
0,151529471014186
0,155510865720464
0,154069550857687
0,157815534861853
0,155055577109787
0,153077917687147
0,154585121385344
0,154599059395096
0,152217904041839
0,155655374459996
0,152841292597856
0,154784979074915
0,154426087658883
0,15577687584405
0,150467303018182
0,153682010122931
0,152012457577891
0,154322950105367
0,150784840841807
0,15423917668074
0,151761373353873
0,154083543304072
0,156926919486211
0,154606698243595
0,153225230791066
0,153798611356141
0,153663484749093
0,154029566400928
0,14739049884286
0,150561576791422
0,149732493337977
0,151556834678137
0,149397423527931
0,154165027043499
0,150436918339577
0,150277529104048
0,149602374448193
0,152229358336225
0,150138320943505
0,152085880176058
0,148691589653437
0,150794358064344
0,147186045794957
0,148577646522261
0,1460488523611
0,146676627828378
0,145029048453551
0,149458460172606
0,145709379970537
0,145901753146135
0,145412362849128
0,14717480151057
0,144562681715327
0,145639967475418
0,143529258545446
0,147679567821252
0,141216442184217
0,14609747457802
0,144010050206506
0,141641759338185
0,141512191069955
0,146244789775074
0,143818096642921
0,143941875298688
0,142646425212459
0,140952716990417
0,139896675531947
0,141679850404599
0,139459889431304
0,141511987896275
0,139432670538071
0,140471978967224
0,140697990083562
0,140935421814743
0,137752417678314
0,140595575042436
0,140479940854354
0,141313768498003
0,138457123847384
0,141669108285993
0,140473978333029
0,137490744097804
0,137437389792805
0,140789254253817
0,139668806787154
0,141121349137161
0,135844169459616
0,137397207191023
0,138023345098833
0,142220029923928
0,137481711282819
0,139498072526534
0,140686761792467
0,139595737991129
0,135844129958648
0,138313603936537
0,138024947954685
0,136618762394354
0,133416737088154
0,138528203911672
0,134518686695183
0,139245179767856
0,135527523304153
0,138790853342239
0,138292700272331
0,139032575627818
0,135537891510521
0,13378899421193
0,135237326715205
0,137279798747044
0,13390519183248
0,139047899426804
0,133803579357547
0,135900621256857
0,13184627822375
0,134747859798432
0,135252184918121
0,132965352702729
0,132751524692814
0,1345230741963
0,131869257652922
0,133243288464977
0,130069506989889
0,1331255688731
0,134693699456737
0,132970674753339
0,129393557541927
0,133495160375791
0,135173271921564
0,131207347607504
0,129625383975143
0,134336278890958
0,131250589595831
0,133870389056929
0,130342613674435
0,132586000952897
0,130488409391508
0,133445977258417
0,13332635219598
0,135140228488304
0,132933815788694
0,133844256444487
0,130442132649282
0,132918039138062
0,131708769496478
0,134247614806312
0,133078583076369
0,136344133721764
0,135932613049322
0,137190877383698
0,138652789024756
0,140918973431774
0,138870536095258
0,13916425781409
0,14355938788532
0,143048920045131
0,142041205239569
0,149237195349254
0,143667975976451
0,143547490458761
0,145197937281361
0,139657274588423
0,137849588847464
0,138756541398868
0,1421665195822
0,146865486776831
0,139011750777585
0,13862759117291
0,135043476298024
0,147152022506531
0,140675221364909
0,138688607702689
0,141423415345557
0,138578158316859
0,133721643767094
0,143346158290929
0,13275232762781
0,140058847896031
0,138799285258048
0,139695526722725
0,139703982685101
0,13532598647423
0,14106840805837
0,14074226620558
0,137534126823391
0,133952816787134
0,145542129423663
0,136249123904399
0,137640750277983
0,133824763255064
0,138247554451491
0,135401713947917
0,145633685438343
0,127464257463606
0,142953960371779
0,129172142264363
0,144916744969977
0,127694135905854
0,152688615047257
0,123144703149417
0,146584846500163
0,121415985281534
0,15867397421964
0,12374231204507
0,166346556634656
0,120309821409127
0,165675028247612
0,11327333115674
0,173469000053139
0,116639427684162
0,176948780303675
0,107623320470597
0,179650178990117
0,116814424736805
0,181414944188095
0,115402470874925
0,17156299025062
0,125900448915193
0,159296966070297
0,135775895907799
0,149689563589432
0,146906763595034
0,136825334799843
0,157237940401458
0,131888461762227
0,158923570416115
0,132381111940532
0,15777639017845
0,132845477339656
0,15085343168294
0,139061652472746
0,144614313760563
0,141683242169554
0,139193662633719
0,145703654825504
0,140624524937904
0,140576587172664
0,13891171873784
0,139030755117192
0,148786382681357
0,137986394353021
0,139776624574755
0,138500187453722
0,142189802955668
0,137933735810613
0,140355763204773
0,136772062681468
0,140252367339276
0,140839381262744
0,142034602564663
0,136180877180535
0,141520202788391
0,13965877969373
0,139600726922396
0,137084074656172
0,140502950813456
0,137685772572741
0,142434748894501
0,140663107886381
0,140592777792292
0,137852320251655
0,143346345285948
0,141050803339513
0,141106771166225
0,142086772177208
0,142936688512021
0,139235469012167
0,144160936174319
0,142392032543793
0,143673339085868
0,143909226234362
0,143415628622168
0,140684628624491
0,146766666450716
0,144710349949103
0,145900405978335
0,143927423011969
0,144710619228513
0,143189614718792
0,145590731619784
0,144002196525787
0,146154909038541
0,14496038940918
0,150925631932219
0,144863581395645
0,149550689628037
0,144639872451061
0,147589495743183
0,142565744937192
0,14662160126527
0,145202249776193
0,147407404373287
0,146650911687605
0,147725496663723
0,144745902303983
0,14831966966646
0,147122451261111
0,145805540090501
0,148639877935159
0,150728956791955
0,148678356456791
0,149786040109101
0,150344949230708
0,149461070720746
0,147066321694958
0,151188640821718
0,146382958568839
0,148892153785462
0,148779181797747
0,153204148093595
0,147074322580385
0,147686635806049
0,14963863683393
0,154696587642195
0,146866487343776
0,154496774266005
0,151003180210999
0,155054592162092
0,151414285351318
0,153650788437016
0,152622152921796
0,153259893533705
0,15181344356898
0,153740891942724
0,153852430181214
0,158861489046186
0,154989984232328
0,157556895052502
0,156727211968061
0,157223588438322
0,152242463642134
0,158258055867331
0,153318346086941
0,1580802271614
0,15632293030932
0,156680005919915
0,156464089661513
0,157894914088267
0,157213942905838
0,159255527765106
0,158966288630223
0,158267857712136
0,157230064478114
0,159941963761511
0,157930435019645
0,161755058361929
0,159682314139164
0,16155339369752
0,15572506006381
0,160663485950537
0,160106359222294
0,162607180284222
0,159874018735563
0,161213674282388
0,157817733011146
0,160721681557717
0,161224788628727
0,161339965750918
0,161048064565077
0,165381401987766
0,16195108880023
0,161637313387376
0,161215242512157
0,162358928830313
0,165434804876389
0,164013666365017
0,161725268756333
0,165538249760045
0,16186202660917
0,167904512202695
0,1652924316551
0,165315201101679
0,162624371710095
0,166348276890725
0,163182310273786
0,166351880460354
0,166969991329051
0,165323544462215
0,163386715224842
0,168722284081502
0,164946189973256
0,167477725636001
0,165084676717539
0,169222751264539
0,164380664362339
0,167876706533248
0,167431861150011
0,16876013716156
0,167270303748139
0,169196264715057
0,167944398182054
0,170392986889929
0,170081553147504
0,172299204277479
0,168998364021856
0,171347984299396
0,168117511595077
0,170602663736776
0,169296926275204
0,170623349542766
0,168423370265314
0,169501507437401
0,168728859817325
0,172878202821572
0,167480305402882
0,172191818886238
0,171879577740926
0,17012372917003
0,168584005437904
0,172486857903876
0,170275235879319
0,171880063785351
0,169044620155818
0,170944689197865
0,169091100213825
0,168895478363681
0,171897206096852
0,172992499420642
0,168854628329689
0,16924094860569
0,17168118822441
0,170781311865265
0,167445940844641
0,169194732258983
0,167197723897569
0,167098904290299
0,16702888363621
0,169684042429398
0,167841875790179
0,168882965916859
0,170179829299426
0,167016206835521
0,166598861831395
0,168669911896607
0,166128792064053
0,169241523357257
0,168270291896146
0,168582767885851
0,167900175114475
0,170337267010243
0,168632677585464
0,168377013418004
0,168584878811235
0,169938421039536
0,167480525356847
0,168342596880073
0,167119099104921
0,170446594524211
0,166507563339951
0,167435272402963
0,166785211037502
0,16891677005724
0,169404482731285
0,168048284564449
0,165022890551291
0,16933965551145
0,168392554620402
0,170156370966216
0,167232261735811
0,166634768840359
0,163905343012375
0,166365810235043
0,169581290887608
0,167370139704453
0,165116761568274
0,164915940240376
0,165501417735491
0,165760806504565
0,167171599549381
0,166292440743496
0,164878676943107
0,165415516298878
0,164256466589667
0,164210710098639
0,164018281852197
0,163397643622788
0,163372263869421
0,163884991352031
0,161165825983645
0,165212876857247
0,162929739236458
0,162442905458908
0,161308306234923
0,161179995483385
0,159899120176805
0,161807017446618
0,161159673800416
0,163063343343929
0,162371141723433
0,16581030100476
0,164176314352577
0,16226592163634
0,160034804023515
0,161242187291373
0,161148460474694
0,160360848824578
0,159928738717058
0,157977913913938
0,15862638678062
0,161180156593124
0,158510657157008
0,159101272913746
0,158606874756413
0,158839879247278
0,155914682822969
0,157047245678904
0,156863142401246
0,15659983817897
0,158687138478532
0,158227210910032
0,155270534331329
0,155175061528833
0,158456873470926
0,156124671654281
0,156568088197844
0,15850214899583
0,15212533153933
0,155485263368934
0,153877993561587
0,152249650705681
0,152116119986444
0,154771680308247
0,152211176810826
0,152160523331192
0,149859002377536
0,152110775533887
0,153309048342708
0,149055800089433
0,151559081549514
0,15043462813618
0,14933339725443
0,150607456560298
0,146582359760557
0,147996637689164
0,150865075028506
0,150924605820691
0,148070040536066
0,14752614094934
0,147089387540832
0,149340604616535
0,146904505345484
0,155323573691697
0,148044011245512
0,146126630212353
0,143745904664893
0,1427435710862
0,142067757492585
0,140858300592412
0,141759683773662
0,14505033846953
0,142645624180835
0,142938806300127
0,140762968827025
0,139724984616789
0,140190674185235
0,140079784785157
0,137495665183741
0,138887940394302
0,136925443249953
0,137681398947792
0,138112343450884
0,14114971009882
0,136279810850135
0,137870725322215
0,137523213757351
0,136916746843693
0,136518151037584
0,147484041197864
0,155128028127244
0,139782630028796
0,13832193537608
0,139664494662696
0,139928147153155
0,134839240083498
0,138154453096615
0,135382849901532
0,133578688985979
0,13401826124755
0,134807235984128
0,133873830834547
0,134355634538842
0,134758839409135
0,13365977105697
0,134083700061431
0,132052938146319
0,133007193397236
0,130054084345956
0,131445928115943
0,131897627136401
0,132615843377567
0,130864622452172
0,130718806666944
0,130756052017547
0,12986306543199
0,143033139573276
0,139286175602825
0,130616229165502
0,128276384684282
0,128387975423192
0,125811869516355
0,127915795977262
0,130783023126825
0,127476892081817
0,126368015638329
0,125727175641951
0,126800348059447
0,124594942868297
0,12811862121229
0,130925847960741
0,123242419464301
0,125337544232992
0,12407133282699
0,122722421967375
0,122380071194842
0,124056771362116
0,125363533941176
0,125607329356507
0,128216966425103
0,126355592699826
0,124021354246025
0,137620818954165
0,151326717717711
0,125782384942197
0,127216230457409
0,126129711357522
0,121723159622066
0,122718691589521
0,121992933162855
0,1173468960186
0,119657824424371
0,122814737095704
0,12380281688604
0,121945747519839
0,121734267410187
0,120847895030032
0,120043467179071
0,119805421087103
0,120730483014072
0,119061980727926
0,123316126375544
0,121131245348607
0,128359564443737
0,142829584247838
0,129396520399591
0,11932159400624
0,120040819470319
0,121814410292183
0,152029486481155
0,134183684198603
0,118154781308839
0,120543068589669
0,120395645615527
0,120587073590621
0,117028432307923
0,116423398277318
0,122610691157731
0,130129843099978
0,120702071978653
0,124753381106457
0,120541860485381
0,117899483273043
0,118355441501613
0,118091119624627
0,11359259697966
0,114813816256421
0,114863351460065
0,113170211005842
0,116213897715229
0,117913035721629
0,117413192452767
0,115364511037669
0,12340472069582
0,126796501405357
0,116963750592765
0,119986557893901
0,11880606840648
0,116373392098622
0,134840729146366
0,14278622456176
0,118696147952773
0,117482215364277
0,116891180751185
0,116538970327999
0,117864289730709
0,11652103429561
0,117022737597895
0,115271754698869
0,117108786490082
0,117524566447618
0,117174061667854
0,114659408501996
0,114779007962632
0,11498582659491
0,114005405985918
0,115665860436265
0,117076556314172
0,117885922195694
0,117018295458602
0,121221974773825
0,147310672797945
0,150113761595587
0,140090009697969
0,135489148249471
0,123725994088104
0,120089131409635
0,120276826141424
0,115428557913522
0,11686854501968
0,121005577016981
0,116081491800865
0,117270634376579
0,119702335387334
0,117750409785153
0,116089192946223
0,114456877129699
0,116425672616749
0,115574033912217
0,116815564644929
0,117759164995526
0,115295550064382
0,114857037911906
0,117706488530268
0,130286871284311
0,130844496194961
0,12000838541608
0,128201359888863
0,159773454735575
0,151685371932805
0,127436531124308
0,12675840269552
0,117594603896934
0,119720612709761
0,118161223679918
0,120641251789806
0,127398034892593
0,120168207988803
0,118266757009738
0,118497645577193
0,124305136901038
0,119514615098098
0,117113635738459
0,149076081714376
0,167203903223446
0,137666553365413
0,125858920495744
0,120304333178881
0,143315148434793
0,162856452063482
0,128096927415816
0,125070395453379
0,123695299481909
0,118351532424008
0,122438441399093
0,120246506833282
0,12677253033733
0,133587507151035
0,12568390808857
0,122070351439482
0,121412774870975
0,11983891333821
0,128751004287673
0,130847049962485
0,138922976133096
0,141435467315631
0,126968488994767
0,133507744227518
0,133260793565736
0,123811383035625
0,128371883063228
0,125849462759131
0,129082525416217
0,143984228998835
0,145341535258331
0,139796032470405
0,156637035872464
0,146197326778507
0,129380553511213
0,137173900286383
0,150102590494767
0,140241190006897
0,130844354049181
0,156251543728872
0,174329934310863
0,170564076730874
0,158978402089142
0,140365150601907
0,130759806722701
0,138343863746358
0,128492143188798
0,143374328162673
0,157635877356044
0,148252179122005
0,130875239513765
0,138178306534482
0,150983475297239
0,161064401797029
0,144080421974468
0,144129533567468
0,137749314030642
0,145164431635301
0,163814910642288
0,148937624764391
0,152444079522793
0,191626902977729
0,193437479129238
0,182528488727275
0,152100463475303
0,160696923296275
0,186245805024896
0,165889131104426
0,147120235886176
0,151097054462567
0,152971533046698
0,146826044632522
0,172178883417119
0,204985183205099
0,168508044160208
0,157728524540864
0,160579611177217
0,168938265842727
0,19121008869954
0,179820982000383
0,156842039941778
0,166272772389634
0,159457838407284
0,179054950965844
0,22120431701338
0,205840214201045
0,194819588540955
0,210585704018143
0,208467184732461
0,199660077993044
0,191662768776533
0,186768447431233
0,210263219668439
0,212559559448472
0,189635302577158
0,183022676428138
0,216194996583493
0,212675077224555
0,204443351223553
0,194296877279276
0,192611011332701
0,199829625449794
0,270643324341479
0,289568530724267
0,245772580194541
0,210863107765432
0,22484797837373
0,246195628699357
0,22620026708124
0,206345209909104
0,213533105102313
0,216591228965992
0,215856201625749
0,226918529959411
0,241424874485954
0,2325876158381
0,235625298651072
0,230337721036688
0,246681445217358
0,287694447080267
0,345564774065148
0,291628848987371
0,284812637268628
0,291402708350243
0,30306645494496
0,271066715713321
0,268371715385834
0,270086671747276
0,290135660719718
0,288699430505184
0,280642431405388
0,295662953114374
0,327030875023868
0,31574781908166
0,345484236539805
0,335732131624827
0,324413929701505
0,314424354658952
0,39246089148892
0,487433862550377
0,409589582957869
0,356006638833798
0,370035995579251
0,403812452356613
0,454646908258799
0,402755461896677
0,379212373138813
0,383727130993564
0,389428551320366
0,409144353659042
0,426393536106939
0,438944586735012
0,458054053967449
0,440285940368188
0,446130465145353
0,484700661505723
0,602812301714289
0,567936638726112
0,509448741259394
0,496385338216011
0,526733269183677
0,534643997552663
0,516921006045908
0,523996022625448
0,525734517903695
0,581499018456318
0,630031635546334
0,584784239588855
0,554335347723802
0,599566056920995
0,605430688172143
0,621309412722325
0,664233687204824
0,692641262746973
0,638925383029834
0,639960606418409
0,655986704923737
0,644453386842957
0,673079596727978
0,704882775545044
0,722968664724312
0,704955339318842
0,694710867681907
0,710956269200415
0,727982242488115
0,74405582064703
0,739292966781794
0,759380198525211
0,814335095481471
0,915987102936515
1,07128530593584
0,865740618906857
0,801378481025323
0,775700400166193
0,79438422838148
0,830203356540774
0,879027263731919
0,889129323850296
0,883613043540778
0,822398966111702
0,824299969011669
0,839497893774941
0,841944605465083
0,838118650589974
0,83145153579892
0,857174158459583
0,867946906978055
0,862118371675542
0,937942332295603
0,93641130829907
0,858654103805287
0,814153515594545
0,832060799767216
0,812889573210536
0,856254562012425
0,81679663845366
0,848478994657739
0,853553523852559
0,850051982295388
0,81040087691593
0,812415940976318
0,827066696763822
0,850599903994125
0,782832444795933
0,763224235326438
0,767716664831988
0,763792326949225
0,721587074386417
0,771648133118669
0,796763896748115
0,739559539658143
0,704696504340267
0,706477101093883
0,675937889551678
0,691520955168977
0,663475570764802
0,68485506886014
0,648634550895337
0,649741885009955
0,647155048245535
0,637352515340433
0,607308312799225
0,613700816842471
0,623713377762462
0,608100203785358
0,588256847522461
0,597438910330532
0,57736858518785
0,575236611650316
0,566830770848809
0,582017823534209
0,563609085281251
0,571340231614481
0,565718789355455
0,550924155423548
0,543900546756377
0,5484183276873
0,546502528071423
0,547496843089853
0,53061025437541
0,536313540134507
0,527750219837617
0,524954514979295
0,51796671860829
0,518785302877874
0,521380933533971
0,519657375019826
0,511582068328331
0,506446059159436
0,515256153728594
0,509472532200043
0,512880334037236
0,588322964774482
0,559276148361495
0,518711106704946
0,493104126546562
0,514465389067788
0,481879100482666
0,511271818377259
0,55464954373989
0,540118229503451
0,488791479933593
0,490584256636704
0,483780817223097
0,523838692195
0,485388322075019
0,491408513406939
0,468227185104821
0,490325597434524
0,550693011485546
0,592911843538926
0,654220034164149
0,604837218396593
0,516837145957595
0,466936802436259
0,52927898514183
0,503361823254571
0,484196767255231
0,458740253998224
0,472132564752512
0,517680105838961
0,481868219787473
0,462656265009821
0,437551057162888
0,446840370493479
0,49059083012475
0,496763659772746
0,472479815873045
0,503588430795469
0,487387103730641
0,493243403565957
0,526554728940396
0,578861224877954
0,47352423025487
0,433547357401475
0,421464523128983
0,417591755488667
0,463795867175454
0,484227422715761
0,451192637785159
0,441308807940243
0,407724865138207
0,408924151188379
0,413529110636908
0,460319935549288
0,402566590105865
0,456223820752462
0,432340838212291
0,418181554538993
0,415151856582438
0,445624331751404
0,485369136640341
0,489115380070957
0,406493220442667
0,386525042591552
0,464069066554363
0,442496021005867
0,425834534676563
0,402760511848592
0,366784155782887
0,399140578874729
0,392926344480177
0,378225465595312
0,401465713032933
0,410108576070773
0,440413053805799
0,468821242799543
0,508289966971903
0,450429307697958
0,372197611205125
0,35524646795037
0,345448464390177
0,36529596845459
0,336291995557765
0,348090572326448
0,393157831245864
0,349785291587811
0,378518373633391
0,395044177207407
0,364011048128503
0,340538943041905
0,340952245801379
0,341429887337854
0,359203371038762
0,403311778923594
0,417428321337996
0,36373252368981
0,38414171627025
0,370820366479372
0,365193411712648
0,341928770578329
0,35356508880856
0,340688470072166
0,362195827979762
0,372003090589903
0,368360723414983
0,357961274007045
0,364970642035999
0,36382183440544
0,448641033346604
0,397843678547879
0,405045166771397
0,416343558417539
0,453009977468237
0,477421863439182
0,429485033502053
0,413544772329458
0,402186219867559
0,412573415977619
0,41964593372514
0,417781128684214
0,467962129719825
0,455429051123702
0,446522541725611
0,4254977755695
0,44465070993119
0,433846862823055
0,467144428144148
0,484784254663039
0,491972926590796
0,582605735470004
0,51347949332139
0,503837584263908
0,451233114225488
0,456296877925407
0,466849545505272
0,468899150584012
0,458799536888635
0,449536044123986
0,483465928958956
0,495497669918304
0,472115252749782
0,468660498744326
0,469433693290005
0,467810309867103
0,461894275219197
0,476529620384745
0,46925279863286
0,473918455564786
0,478436847326892
0,464301937236278
0,508923950538472
0,565359058009211
0,508107809481019
0,496819846747952
0,48692278385672
0,504432800367799
0,491433874287362
0,505859417958822
0,522154993517795
0,516230271553849
0,510619436761895
0,505311002310633
0,506325305374956
0,497951392757912
0,545847427870511
0,543014298272762
0,520578155700462
0,519215722845385
0,502722998848854
0,613856090114932
0,564207862403791
0,567262674571378
0,530754412853316
0,548054529877992
0,520562209233331
0,535358991122624
0,51254116772221
0,539261709019136
0,522936018408844
0,5301854683766
0,527962856216325
0,525796492227192
0,525896194173685
0,530242604087807
0,545632830229558
0,57371952422664
0,535399603580884
0,532061049041709
0,532521286871971
0,525177077778152
0,53200704069192
0,569630385664476
0,551610036591227
0,548612954662976
0,524799089635747
0,556028194351629
0,567840954547334
0,546149770412679
0,523492263791205
0,532263295119931
0,523093969121657
0,534767022259904
0,517462911692128
0,564734160351305
0,556894029844453
0,555288092467632
0,527493133361756
0,540593446046058
0,533120810993079
0,547821839632728
0,536299524177288
0,55167983790459
0,541828121981074
0,558712523946537
0,560411152027647
0,557463377721184
0,55424979115842
0,576878018012581
0,589329978851305
0,582871494246497
0,558929708629043
0,559328037325882
0,542713168972865
0,562536004456145
0,551544487654256
0,554670249887851
0,53421973156563
0,547360414059124
0,518227778681341
0,556229864180726
0,566200117290349
0,551151304933588
0,550190482418334
0,524909641156136
0,521126701660112
0,522207343248328
0,517403801464038
0,512017140673726
0,518241964551173
0,519012376321826
0,507910582684654
0,506919368498991
0,50385052358027
0,506744107902638
0,501714291918334
0,50575975300977
0,496519065276734
0,506751304081692
0,496944147598825
0,503349510162357
0,494677403462732
0,506638378615469
0,491578289774456
0,502459852388181
0,526042984960268
0,526909702100566
0,524229957644925
0,506780543018746
0,513518097539974
0,501869500652814
0,496819178046242
0,497483393370712
0,496523704959677
0,494241706099382
0,492581612958598
0,496231586863449
0,495397045372131
0,491797173630472
0,492689942189188
0,496310653440169
0,490966514228387
0,490957297559183
0,489931983567578
0,494851878890175
0,490304239691033
0,495189612829569
0,49163263229816
0,508796938861539
0,492394329484901
0,506000412290139
0,493856662948026
0,495749455172434
0,491154661920523
0,496534294223488
0,498132969880283
0,491966903205067
0,494989006858005
0,490044919701331
0,493724265428992
0,496580676011814
0,487957967762087
0,493333176058118
0,483522631957576
0,48910476055285
0,479936000086295
0,484014819910355
0,475356786835882
0,475463369783175
0,471933847189439
0,470528499010352
0,465745798823509
0,471969129337039
0,459807965251748
0,463681529802933
0,459242537934511
0,460243695314215
0,455796654994051
0,455558789289898
0,450876032993793
0,454946529929917
0,449838886964151
0,455245407814531
0,446583621435512
0,452472219135508
0,449037776255224
0,44846474055357
0,44122562019821
0,447221495974663
0,446045516117996
0,447469762787558
0,448309140954842
0,446887572141311
0,444068504262692
0,443895412198561
0,448157145827142
0,448045318799507
0,446556931557494
0,456918985892671
0,453928329289548
0,453519406946406
0,452259925119885
0,462278392334272
0,459078308362171
0,461953264521466
0,461872971867732
0,465536563117704
0,464283207535257
0,465363309061608
0,462146010634699
0,463219991726388
0,465740783312418
0,46462909932716
0,460328735391481
0,470287258249434
0,467079710516226
0,466642407804382
0,465808330167194
0,467573435424785
0,464144906383927
0,469238697925323
0,457832338888006
0,461754639698761
0,460377996620214
0,461100521529734
0,458462933782786
0,458619444361883
0,454864803479659
0,459600442311289
0,456942315782047
0,455002575189243
0,454416708124721
0,451880680183071
0,44999416059347
0,445856147593081
0,448501365413012
0,448640391073035
0,444658000741887
0,446340434046115
0,440241386350378
0,443259726453501
0,446131031093334
0,442213527811606
0,438642225517994
0,441001822340438
0,43784736686304
0,439210673071398
0,437058769849882
0,441417702943313
0,442355134961605
0,437203557290714
0,436684955998064
0,435696039155326
0,434425347623132
0,433018587275659
0,432183343521281
0,430536808897764
0,423632229284698
0,427067129819701
0,4225166148226
0,420412582121902
0,418076882117076
0,416551881376408
0,413391892911215
0,411148822653216
0,409546361016166
0,405407313945196
0,403379647046679
0,403211594349186
0,398134010448284
0,401019565208308
0,398287715204199
0,400134926302186
0,397996004130179
0,400865372626603
0,397505882644473
0,396825206815169
0,393612045462037
0,393266616027659
0,393631936307592
0,390355415563117
0,385641653696043
0,38695104590328
0,383347314994864
0,376915752272086
0,375128083179257
0,374510584389448
0,368415613160621
0,366099285913724
0,364676936076435
0,364742636936062
0,3633442856165
0,368076777518709
0,368332659457371
0,369227340070662
0,37248294293963
0,377705037322674
0,382652841615228
0,390855545868548
0,397930684342913
0,405255720303863
0,408709762542219
0,424507472086311
0,432264465546245
0,443898927199979
0,453514748459765
0,464079935719352
0,47560572610034
0,490691180235522
0,498540195913368
0,511147770525062
0,522634644105206
0,53510308112097
0,549249502815144
0,556312741997467
0,571214637041471
0,577544756698217
0,581957513493117
0,595593157567179
0,603749358847942
0,618103783707543
0,608824087579342
0,624240423975726
0,627050979355471
0,63195272630587
0,635620966718913
0,639309043319308
0,637916611903584
0,637949988648603
0,639245101752596
0,637010763316293
0,638080773627964
0,647603430500467
0,638207492235252
0,637200759853158
0,64117383521601
0,637094708168488
0,635181308001184
0,638308935851284
0,645208263350627
0,641402304853522
0,649143685600272
0,64750161254729
0,650608282409694
0,654861330702162
0,654118855008567
0,660088278460741
0,672117132746057
0,672119691594049
0,678097109451331
0,683858747114237
0,693258784673959
0,704074583465302
0,70708860723695
0,715882199396965
0,723735461943059
0,730338313216941
0,742254728744259
0,763033216258972
0,764583932222475
0,784634223530038
0,787498589836307
0,800159402662421
0,804487240670413
0,797674555097631
0,81417861520448
0,807310364032158
0,801283743431215
0,805962850359131
0,803157428321226
0,789320623113708
0,781329112778254
0,789783804214733
0,782170296714645
0,783349002867702
0,773795677270213
0,779075935272865
0,773223589255026
0,78466968791793
0,778674762554083
0,798899250283192
0,816598637031971
0,823704105602138
0,839035241938215
0,835300962278566
0,8454260960047
0,859283320996327
0,867238680641498
0,886379329169765
0,905702364303603
0,919427133847511
0,926369746403261
0,929774213246661
0,943838981226687
0,968620602585502
0,970738173808102
0,969469934853032
1,00513079894618
1,0196653864406
1,01726117839798
1,04427695857922
1,05637838700051
1,08018025823535
1,09288131527106
1,08973261862801
1,13533903982002
1,13644837544869
1,13459541751046
1,15613975979622
1,18239722928886
1,19057038065838
1,24182719483581
1,22616368367429
1,24671651754178
1,2685812338946
1,27710861895098
1,2519443165645
1,24585777238597
1,26490309487471
1,23515496696281
1,26400794820183
1,25598114026309
1,24294807216948
1,20577586803726
1,23125643272523
1,22288632593913
1,21088428842933
1,21752431631925
1,21721932014357
1,23674496992989
1,23059864955184
1,20070424494275
1,21364178939705
1,21470624438167
1,23703040127646
1,26356006614083
1,21570931767629
1,29685388984812
1,24768293598537
1,27480995783643
1,30472659914564
1,31767953796288
1,30582181843689
1,32273895131966
1,35531595907118
1,32909553542326
1,34841017218377
1,29132405824221
1,37316376147837
1,33948037809088
1,34129172724833
1,39592365717962
1,36937811502709
1,37772996980847
1,41312847213513
1,40416475307191
1,4264086848443
1,40787520024034
1,36968035303274
1,41058152540293
1,41255349251136
1,39503843213674
1,359499158901
1,41058165367753
1,39097009696023
1,39338608258261
1,41611637688828
1,39593979459749
1,38730662731428
1,3504499755558
1,33087550896405
1,3551356049332
1,33176397887495
1,29911275204598
1,32411929223555
1,31328360457367
1,27035387308528
1,23505685572272
1,19141998154863
1,22521717007399
1,15421534417603
1,13111956737395
1,05251206217618
1,04401147890672
1,01234287585342
1,01207495596296
0,984550030287415
0,981615257483597
0,942534905975151
0,935328121284795
0,9405932380871
0,913683197528487
0,918824158317676
0,919418735283258
0,961676913491293
0,920863641613566
0,907135806492847
0,915863279879557
0,902228477547617
0,902291509640911
0,879145082429108
0,875283251757714
0,876400155925175
0,87580023632434
0,865308018600934
0,856150857944428
0,830974132667615
0,83727285283167
0,805415378813809
0,811157825897105
0,786329631205979
0,778324606828283
0,750382958329411
0,75037593769632
0,733099086736847
0,700273833457497
0,696758438439146
0,672601914235201
0,660226675089918
0,648229293750302
0,633961190697993
0,610811143979898
0,613096220599863
0,590284622256055
0,584313869943191
0,567988987367905
0,556634058193997
0,549194686305408
0,54660033133289
0,5429349685194
0,534396380451403
0,530064521619108
0,523915614500573
0,529141219088311
0,523090698125366
0,52661631570141
0,519808056700218
0,522718987353582
0,520383212887869
0,517298284135197
0,514287699254961
0,516810183907724
0,518993847514614
0,515672637272734
0,523371367386885
0,521480814609233
0,517592305350575
0,530466259030216
0,524266334981232
0,523902472798272
0,526152990178303
0,521864572323521
0,526069093645813
0,521438402542926
0,514770014991314
0,520720449429884
0,514535206232258
0,520321602417889
0,509671961692654
0,513498090229635
0,514671889641762
0,513420439415439
0,516923059265301
0,508765732504847
0,511864284342566
0,527085877615062
0,515664896448486
0,522018039605869
0,524458517447907
0,521617273169915
0,521457212632165
0,541957515424863
0,528233468440102
0,546512903262664
0,546753081355398
0,547838428616207
0,541230575659877
0,561437932562185
0,558277956939442
0,560375651617275
0,56657067809934
0,556035737159395
0,564927710850719
0,569802137036775
0,56021907600038
0,575641398703272
0,564625933150299
0,578012094098137
0,576548221183203
0,585648767876012
0,595970871432253
0,590095408517527
0,587975701470968
0,605162105551247
0,607598211220226
0,617782447463274
0,61807956416344
0,621725016807958
0,623302963614715
0,662412388816925
0,657973890625389
0,680160464233054
0,695180144244634
0,692425881258374
0,687892542393383
0,715528058408379
0,703302275252158
0,709090703220041
0,69687311465445
0,691951425970538
0,695017953855034
0,693605123841031
0,68461665502637
0,693706859380542
0,691900101379067
0,70608934370408
0,693542319323527
0,699242170993517
0,699236117717134
0,719550713477423
0,700516090635334
0,701510668752182
0,717940219331748
0,702832658407505
0,705754991374195
0,726551761196303
0,694700890402976
0,712475021937809
0,708301736067582
0,722356978880382
0,715128585244461
0,72094569616878
0,699533660269712
0,711558249231082
0,709466952171176
0,717595572183639
0,700775155272735
0,740132081509645
0,700857976631037
0,727318889847423
0,713930583357875
0,724558217021404
0,707675019228654
0,727748373306798
0,719440818518252
0,735479635756215
0,727381139332576
0,731256686350511
0,743210661368749
0,746348713318184
0,721504142583727
0,743113230295334
0,750357898851444
0,726703949507832
0,73811469338399
0,755689723001036
0,745288851123739
0,749780100432558
0,755612341735289
0,761498566108802
0,762509702549756
0,741504475055504
0,728749058487928
0,766458156236884
0,76748101503847
0,780407285316874
0,765326403525661
0,799872406519672
0,763721028484011
0,781529121047414
0,794761673734205
0,784484822550368
0,795849699648108
0,779644482057435
0,782728023784222
0,826822349806818
0,796678306392997
0,822549439171807
0,828498729131377
0,857273325610355
0,781778239497368
0,831232232316725
0,820793382714193
0,82464073329674
0,826523071413146
0,856144515481573
0,807549573870462
0,863675867865782
0,826369006514797
0,88406439815247
0,829298653219901
0,854543645208649
0,869603263687013
0,879431492895484
0,831061004328188
0,897805261238616
0,920251412438191
0,962150431769679
0,897680500663033
0,916512418509143
0,89631703138595
0,918764329293872
0,9205567840456
0,919885670546011
0,95534522788903
0,962298804215178
0,951122130683887
1,00424149770816
0,946887495840801
0,989020402776649
0,980997290582166
0,989784534299454
1,01766312616837
1,04826923851159
0,96980074866208
0,983787958205853
0,977163755707312
1,1431545998868
0,977997336171148
1,04073879390504
1,16690912474087
1,02435381634969
1,05157952186053
1,18889608353663
1,02934682830168
1,14859812575102
1,13396808377968
1,12126426347278
1,06041264718871
1,08717767574879
1,1491986322476
1,2211038633213
1,14320979370953
1,19928508137537
1,13704001409211
1,30394005869155
1,09584127048588
1,14358731636439
1,10400658392036
1,24013209095227
1,1491727435443
1,09199218716398
1,07796159342875
1,20505783680301
1,11540114695414
1,17035290529509
1,19852819661261
1,16480052659088
1,16567655376062
1,13035401122465
1,0298035889896
1,14057672525449
1,03782597895191
1,21933131689894
1,10657360307906
1,22283311834462
1,24546618637632
1,08458671764469
1,01349305020473
1,3052908084648
1,18037024689229
1,28715587833632
1,16140178044316
1,34722503525387
1,20666462093753
1,16049472402736
1,08990196923914
1,15250990164945
1,14932412456682
1,16153034647272
1,18530405138923
1,15931429051868
1,13800424070397
1,5205403367068
1,35024191821557
1,32572957284132
1,20616048799784
1,52168340802651
1,27459767279984
1,42167852769586
1,32558116034932
1,42053643912345
1,1673784544122
1,18706441508197
1,26663330664634
1,09211775204456
1,0726046605568
1,62647934246047
1,24852037431571
1,25853868910046
1,35962082957189
1,25351402889991
1,0549502701042
1,22624533590033
1,16549117790159
1,73854103460427
2,15064548391879
2,15503470636074
1,18251495024424
1,34071517249789
1,18005093710315
1,92027516965348
1,38457438813944
1,42926641056328
1,88671499034872
3,27277100191802
1,18193419504163
1,77916458067213
5
5
2,41135818936682
1,95273244789605
1,34753823873075
1,45013967228334
1,01700340269169
1,44495669320329
1,17558621680474
1,52280587884647
1,76626536324587
1,58721879653033
1,46608867827638
1,33129557489559
1,17671182622199
1,15578223399825
1,72797492250459
1,96566823119641
1,70798530491752
1,88827647385266
1,336966286713
5
5
1,12227282403265
1,33922264538444
5
1,14161793683198
1,03053927960879
1,3186398496186
1,50102847743518
1,36678095287414
5
5
1,31116290099589
1,15252471841357
5
1,60244440368843
0,969501301522774
0,931356523707499
5
1,38015614774501
5
2,65478973145893
5
1,27842509684827
1,16104233106086
5
1,04289478023946
5
5
0,827788204845658
5
1,50840601434287
0,677669513967788
5
5
1,55077688153499
5
1,31922214043944
