3596
4000,36533379555
650,420452594757
1
2
2
0,10061293398371
0,0968430968372758
0,105171788183384
0,0903824925705247
0,102884870275841
0,100431949687177
0,102657147504652
0,0920906687931171
0,10363382528405
0,0963838759759598
0,10054385998271
0,0985824891852488
0,109269821139957
0,0881052360419587
0,0999924912623904
0,0919724998463105
0,111736942524221
0,106441063384186
0,0953607517140566
0,0910268217849253
0,0954360291405806
0,0886899892557585
0,10369574781025
0,0912868972414326
0,104106725001158
0,0997065785654051
0,104581673062427
0,0888604027201637
0,102979616590107
0,0997743324244242
0,101398051062122
0,103894149550233
0,105990054996405
0,102413919196734
0,102443752835992
0,0910947664196962
0,101954880900408
0,0993962274455553
0,104114456961057
0,0998415977555181
0,111638433092893
0,0973522840508048
0,103173028135672
0,0933691103778336
0,111207388380348
0,104723605512938
0,109973955333193
0,0971917356473174
0,0994869363307554
0,0973945467143883
0,108763608070601
0,0942479500934603
0,1152219363884
0,104695394871176
0,111957052039681
0,122346293876
0,111351764422585
0,0951581558194499
0,104241326621679
0,105519077203178
0,128220109245164
0,113522116955747
0,0959288407955403
0,094934714419122
0,0943051848027616
0,100484780309229
0,101767450537755
0,0907115255082229
0,0968290931683988
0,106060831045299
0,101886373653744
0,124687299362072
0,124729251129906
0,0992307744657066
0,116239819740278
0,0952657040066612
0,0985371756112329
0,0971930044152777
0,100107532627307
0,113069571293363
0,121631303347774
0,098792468215104
0,107747409433319
0,0915353423511014
0,116939144469087
0,119624583956665
0,090763403111059
0,10385523239067
0,1426874948704
0,104206874473179
0,0981703805727056
0,0858910106058717
0,0975956112044971
0,0967750586015546
0,10038387144647
0,0944595376864779
0,0962266046470033
0,0919770348947844
0,100917931272041
0,100487855882305
0,116938928547671
0,119349197630047
0,152335149682449
0,108751428483677
0,170381707249839
0,11537812524129
0,102485712449759
0,158478385954502
0,122620120351603
0,0957405475369516
0,0874500958196567
0,0956356836080381
0,109525168039484
0,105364172091482
0,100857529249335
0,136629968354188
0,141586122642694
0,0943478598034429
0,100948762285607
0,0931977416250085
0,0987279717086419
0,13899315381683
0,153728052617887
0,0974224115341287
0,11290742901663
0,0986410071280757
0,110945616079254
0,147895539992971
0,145649784021339
0,0940940040327393
0,0955045216015709
0,0855689942665979
0,0928682458413608
0,103609562232511
0,162043731341375
0,104018735659233
0,104936715609014
0,0903241028093084
0,13558609247996
0,163704533391072
0,111654624073449
0,090522205551522
0,0925061118922879
0,115732343286295
0,160601404910201
0,109560330702474
0,099948389291517
0,129800781025228
0,118383498564382
0,086123401654015
0,0976249757782407
0,0994522636593192
0,125963704313706
0,110369809143391
0,0803464810133742
0,155374191515062
0,19010456189157
0,131863578783335
0,173747797124128
0,0980452934372264
0,114347914179724
0,0946946397813079
0,093320818551797
0,0885865055544509
0,0911085726329828
0,0867294138313018
0,122990435277333
0,131106136899062
0,0958718895051709
0,117008614791435
0,141685721948964
0,118740925961294
0,124079075169195
0,164400595956798
0,112397912229146
0,0982099292322274
0,145387274020359
0,102855007895289
0,0949945391590904
0,112293069586611
0,130617998511472
0,099518254771111
0,0926966408554698
0,0813017965797509
0,111380353387737
0,113791199331342
0,108772870663421
0,0994671774110209
0,105638647988986
0,0848208155941525
0,134829841324938
0,168572735646195
0,140665044358464
0,10243144211528
0,105165728973247
0,0869690211949628
0,154907851536518
0,135228350007529
0,096695786989515
0,0872387408286388
0,090746159200145
0,0871461665295534
0,0852663400588907
0,0858698823786933
0,0892739470098402
0,0842722366568182
0,152118033801881
0,114903218150894
0,0884488419564585
0,0896812287073981
0,106534292647885
0,110732756461595
0,168463430536858
0,139575771481378
0,0962277225431669
0,0877104115539911
0,0930271047216795
0,12665605249901
0,121861901599375
0,0944474860841786
0,0901161496897403
0,0846389368256866
0,0858736634144802
0,0890644405930545
0,0933552897987684
0,0882209617085775
0,0864706542111681
0,0898308539326496
0,0974323196285145
0,0992523510271752
0,110005612908296
0,0990701740416376
0,0897991817202741
0,0886298093033401
0,0904175484380521
0,109688296161329
0,115996356052735
0,0967416070130833
0,0958358701999169
0,0891561863549464
0,0887379865528706
0,0836095416897813
0,0885620336503759
0,0946551868094028
0,0864994059809539
0,0990319342245023
0,136368557833009
0,104536942772888
0,0910017810157837
0,0907163085933244
0,119702209965643
0,108704350540606
0,09231455284879
0,0948902244227078
0,0938109332600872
0,0818423058770694
0,104916864460577
0,144721505469039
0,105222405029162
0,088863774054296
0,113833105540421
0,11083785509246
0,0968486312363187
0,0945677988123362
0,111316258926942
0,191973594936984
0,130920779464287
0,123553986766923
0,175407695870043
0,130556280392991
0,108500891533274
0,0992063931181434
0,107362485963117
0,25598358184524
0,164805297962547
0,105090195334211
0,110751514073371
0,121061132359638
0,0998282396375657
0,108800451587182
0,116359896078539
0,133567491439097
0,149267794904926
0,20614023910918
0,170805350910184
0,103508747992936
0,150593706213616
0,140329242139438
0,0994155551558203
0,0982362697132981
0,0935193679368266
0,0957798705686087
0,127155486133937
0,1308552812381
0,120167205072759
0,105765794970429
0,116210016057845
0,14369737898302
0,112919623935012
0,0966524784317895
0,112310531672617
0,108345610125099
0,0966855392101239
0,0969106513400126
0,0987092276338962
0,106974118875156
0,0963864368083796
0,124740235492852
0,171576986094988
0,127435692175445
0,120384471782497
0,133745761928281
0,107992186645518
0,0960751053455451
0,0972703288946993
0,0929750863629332
0,0900320581856479
0,088989048239333
0,106129659391452
0,147289490858562
0,117699741346959
0,103134922484456
0,0937220038183897
0,0963149331171294
0,0964955508946272
0,103549180008642
0,101639702770019
0,102314794615626
0,103615542945623
0,102953566570049
0,14619388241404
0,137759223512444
0,104885724183382
0,160183780444677
0,150328251850134
0,115303024242415
0,101309447055566
0,104187184317124
0,103960410658823
0,099815580837926
0,106084980237502
0,10481252411635
0,11927559693036
0,141732648077083
0,126283771914273
0,126243744364674
0,143842982607492
0,223581646181338
0,19217988426238
0,140800081267824
0,119715403733647
0,112520809880674
0,169198332207248
0,16466483146806
0,166165867393517
0,148112888773902
0,121706353603535
0,129326793472695
0,11905392144571
0,123657253390965
0,120285757786932
0,126691320939556
0,122366577270203
0,1309569242115
0,133564019669768
0,136041953246625
0,124113542660268
0,162630824439889
0,189740468838745
0,150787682821469
0,135567251683912
0,139019473104974
0,139962127612736
0,195636022472366
0,200035032494533
0,232713391787078
0,188960596007527
0,236883032667655
0,221475869868814
0,177209729069816
0,156440341717491
0,153563990526446
0,16427701264877
0,160734019160944
0,157562338007631
0,16514501673798
0,155363366961931
0,17500173904365
0,168654262774499
0,17151934415851
0,16475577280132
0,192154236373987
0,202684173109745
0,185519063874019
0,184016492611912
0,189407123997905
0,21754005906745
0,297225033816401
0,246230650706909
0,209593285226823
0,214258478047352
0,186275326210083
0,190974026115321
0,193600102996244
0,197560813212818
0,207216547835001
0,224239980317453
0,257314168107728
0,243329517151547
0,268946957988849
0,224281469372854
0,22638082063716
0,25836171930412
0,244801991037131
0,252585635315686
0,268992908174869
0,243021014991549
0,235843686697119
0,278297918869643
0,262107130587019
0,280398669202529
0,274310994314266
0,250620974833074
0,246029348701073
0,241360969360739
0,264165130784531
0,255668407015706
0,287419623006357
0,273894482425687
0,274963116112034
0,272051206241126
0,27467664721633
0,272993826526569
0,316755835792409
0,279777695590328
0,314996281045239
0,284022308722906
0,289549708767977
0,290834109736618
0,287609692933644
0,327878024494597
0,332340922434662
0,360310342967428
0,341400356999716
0,297284343718548
0,30400552364178
0,307592353420267
0,312445379727855
0,30783286074842
0,333481506928272
0,315471214002173
0,32378239359509
0,336001284009131
0,326322753954551
0,320132036602214
0,344135085574717
0,331728135685393
0,345039576941754
0,336156243605618
0,359549968168671
0,358642899347078
0,388164036043116
0,420224503516486
0,44929230671217
0,44271247970931
0,440346892254876
0,406691825542688
0,386001888877543
0,39182425717704
0,394439537863072
0,389340316701111
0,413969384185189
0,399610120561305
0,403552525539359
0,395310159788719
0,415217042373759
0,413008163014225
0,447684778046392
0,423532942739086
0,450719772997817
0,438521572073446
0,439371965462241
0,42882399128699
0,446699069537623
0,447296281147727
0,483327972971624
0,471627161574756
0,497682186777651
0,461721187183859
0,492724793172584
0,45800584668668
0,479427618582459
0,465147950257533
0,496217037209224
0,483210716442764
0,49848284119222
0,507081852827358
0,536394621495349
0,49060468472822
0,519911346639635
0,522256293724985
0,536374523865857
0,527032446129766
0,530330547407641
0,523608261463822
0,565182648540162
0,519595800711082
0,576244030748817
0,555197474204676
0,591881175327956
0,554719210428765
0,608270983820781
0,579291186703598
0,573244356138449
0,563417563434928
0,58989324505907
0,553273181811259
0,596471861943718
0,577705313739517
0,614354233000495
0,597518254178596
0,608593398688709
0,597005223860482
0,64714150040677
0,593575918004308
0,665733217818944
0,622400519659017
0,673328416454657
0,626925040803932
0,659217521376466
0,612671156461761
0,648519664020823
0,655035705841498
0,6886442610636
0,673574393865362
0,696714367926696
0,661562035595272
0,6797712664085
0,656933790434603
0,715184160810697
0,706183823631669
0,760315336183359
0,677872486286291
0,764026584015533
0,663696590214566
0,741309889822413
0,703018628031967
0,756339244910645
0,716754937814666
0,766061779129629
0,729139683749918
0,792432040159848
0,743704846628392
0,800466011882822
0,718894892392628
0,798136941736395
0,726071835047518
0,808103173550008
0,750850496371223
0,824352042239505
0,783492415392949
0,794835205229808
0,775624598050908
0,802739289456692
0,801572215736303
0,809512609531154
0,838746983636367
0,849830948068248
0,737244761537939
0,840761312965946
0,807219242354404
0,845180217661323
0,813180260310339
0,899611211399983
0,80780821614377
0,919086410596073
0,852269321156269
0,873389766405814
0,823630459721013
0,908591048964489
0,905741555554972
0,94201708795056
0,856725068263814
0,925357619023599
0,890030398416923
0,926173169655993
0,85799656477585
0,955388717298859
0,872792263615417
0,934129038874078
0,905411357522735
0,953513167942429
0,907622805482677
0,983639711440751
0,912325187829697
1,05278782659619
0,879418069462464
1,06162530630733
0,893349453103877
0,99758328482062
0,895190585073741
1,01528067610547
0,928061421757678
1,05332647726395
0,925302599245205
0,989083274516086
0,928230496051363
1,03480360902327
0,971956007475476
1,07207781525833
0,974232498089185
1,06186560485356
0,965978449481734
1,10606441243321
1,01058252947073
1,0635583990388
1,02524917775263
1,12227035047391
1,10174675991048
1,10407070491585
1,09539534374057
1,09362255657173
1,00130181579138
1,06265949331054
0,975878410748105
1,09053164541318
1,0479429305357
1,16907820310253
1,00425752659478
1,07254108023478
1,02190394114325
1,11731140740583
1,015203008942
1,09980527915484
1,02161422188201
1,15592152179007
1,14269734770536
1,17238677004566
1,09729345410385
1,12439242117497
1,06983963803315
1,24524480011633
1,07829286779319
1,10090523049007
1,05589399769357
1,21468938870713
1,06975371736101
1,28083612817101
1,03298198039649
1,15328664802497
1,0680764848115
1,25529493594194
1,0829426037303
1,21201418511448
1,16984969726621
1,24104851884264
1,19454824288637
1,24800538451741
1,15941135707241
1,14187739979933
1,11614688898736
1,22777981611112
1,17193623670968
1,11466268703804
1,08397944535603
1,275398678412
1,10445377099806
1,2466625883943
1,21874710628936
1,22820511883059
1,11722852332326
1,2202990480884
1,19170140457898
1,25982131189336
1,12266710662781
1,18708221575643
1,17532083576973
1,133278276961
1,20870037673679
1,36659602548875
1,21054364758298
1,15846077172309
1,09779601524497
1,36271741971147
1,19691926061806
1,30588491830541
1,13553250535815
1,26037055526756
1,22355541234904
1,27852286146318
1,18111380188044
1,41095163123485
1,16534422115754
1,31291187935081
1,12528064847907
1,19274819735267
1,28434076324525
1,19078628500923
1,12923128395581
1,30230322944084
1,21140760544586
1,31346224730509
1,28704888204217
1,33941703216419
1,13864047688226
1,35711584882667
1,23198021471369
1,30537073362239
1,14364707661571
1,26126644964752
1,25739047867267
1,27248874805267
1,17319867447126
1,34628268193487
1,1959828178556
1,40746130371119
1,24764434728603
1,33346030872817
1,21955248128322
1,31940221584843
1,158846939235
1,28234662395072
1,15527540785858
1,28324189230399
1,21344503658403
1,32892296916863
1,28408532201139
1,30284433647707
1,1226391097829
1,41496976173631
1,2781775446246
1,26261108087656
1,19336233278773
1,41339177847178
1,16704108547245
1,36221270906134
1,26325254311748
1,27948631885651
1,21158355375581
1,36709683968538
1,19484572601769
1,31798378335918
1,15869565502682
1,21663115009763
1,15903063689049
1,25365582643326
1,2491839241446
1,27227681509565
1,25323896583265
1,30968903954392
1,21720916443026
1,30784797250672
1,17982481189743
1,32643241901741
1,18352580174406
1,29865095846637
1,19400900647831
1,31167982221849
1,14469815623377
1,33355048677865
1,20270256565451
1,2270868209461
1,25801485318148
1,2844639639164
1,21669899104373
1,30275220851679
1,22713594403113
1,24539607470529
1,29844257859328
1,25533901308357
1,13968419098601
1,30102467449549
1,19097785280453
1,27914913155821
1,13548515210246
1,26453481120118
1,20158334436346
1,22306796117358
1,18276602358243
1,29407902635202
1,18616243673118
1,22589964444311
1,1939701544165
1,25420002781241
1,26465360354551
1,26814539460865
1,23631620003222
1,32782253092841
1,2330518423036
1,2515411425086
1,22407190110061
1,25201146330561
1,19841444146949
1,22820603910643
1,16591577585624
1,28086224377206
1,11974959244407
1,2501501210302
1,20345822862121
1,21561813892348
1,09319705005446
1,26894075124098
1,15790455810418
1,17912306335481
1,15607876321465
1,2095221436449
1,17560967215019
1,20633490291978
1,12659662862352
1,23614289451293
1,11872879948281
1,24216887694894
1,13793494587719
1,23832622967686
1,16862707231428
1,18909881997804
1,11661114150731
1,18166631769784
1,11002160552896
1,1548458315018
1,15268391180912
1,13856170566727
1,1418941569962
1,17640380777246
1,0783150252695
1,14469542756592
1,12651284548616
1,12506400063778
1,15512995013261
1,11459790594544
1,1322526388177
1,13696015877943
1,07005671346057
1,10538382166181
1,13337471816982
1,18453815188499
1,09744674763674
1,1191518125217
1,07719878524101
1,10339820798014
1,09079615898367
1,13392256216317
1,04433092031554
1,0621807002394
1,04148166116132
1,0843113768237
1,04636377202969
1,08587762131256
1,00862831548292
1,11410841870379
1,0048042389343
1,06336596201385
0,999484481302139
1,11418167003538
1,02559223726389
1,0553792629569
1,01755733592374
1,04584581635403
1,02021973216118
1,04781312411495
0,99973989035749
1,03766985860208
0,973381124317699
1,06328617430712
0,975604793871653
1,01875406974465
0,986764880089881
1,01864187146604
0,997467461025512
1,01744635921076
0,955688201452849
0,990244539130478
0,95951432133523
1,00099854151439
0,966194125520581
0,949824514788574
0,950877034317813
0,995040963151333
0,948328259272664
0,969917906358808
0,914715035355233
0,955179819995366
0,932148589001058
0,959815241073254
0,919940830858841
0,94989025717981
0,925880911972405
0,934612226175726
0,896847462895417
0,915030488664925
0,922892846660313
0,932195235014992
0,863533935251386
0,921273118565434
0,901870852380867
0,877918785163472
0,873348333216921
0,900966164079113
0,854790048000849
0,866943174208452
0,863100943597736
0,868151054438862
0,860151231119867
0,88607868410824
0,853412785359388
0,883845660730975
0,800469551161375
0,864951679489096
0,860286279569928
0,864816075139575
0,826255910645124
0,85261938408084
0,796662542611829
0,838991998593681
0,801473746763891
0,817792573051761
0,773404426996443
0,819823621179318
0,801227778498882
0,795422473166041
0,801128562741995
0,823571474787055
0,787469712804041
0,787880890203795
0,779038515138194
0,765822409081373
0,750985850474239
0,774382714802949
0,758904849173503
0,769028661681566
0,734440741252727
0,790659733311388
0,747554366173428
0,752730080912819
0,752770392110397
0,739912367154104
0,747449363743938
0,747050568837939
0,727426104024646
0,739605776196598
0,710096015004297
0,712714199667889
0,691197599304365
0,71444976925548
0,705635012862256
0,716213541026798
0,698872441102269
0,705318912315042
0,679684723717833
0,705983813527912
0,684209273181314
0,69073282918935
0,678937653839047
0,688192814579902
0,670836320825917
0,660691936639421
0,659736530562861
0,684312635274468
0,66783808674987
0,658282410000155
0,657553124651155
0,669631144618015
0,654529786662621
0,664452002743038
0,641391010345485
0,633740460226478
0,632817327594001
0,660405949675794
0,62763356295864
0,650264075398883
0,62224280386092
0,63642517792997
0,617055487855291
0,634309470029931
0,608225221335678
0,616957628424566
0,609737831714423
0,604062176408147
0,594010754850777
0,619826896379608
0,599452582298752
0,593326325573226
0,592413678728505
0,596484972662681
0,586434349441355
0,605606730790236
0,569981951968324
0,584925362106836
0,580719698472985
0,578416489821367
0,56805402639401
0,573260104854312
0,565689176711161
0,574535890300033
0,559759367258259
0,56900210458914
0,552629281275452
0,557178795895742
0,548855507436326
0,557075440147145
0,540771157611999
0,554533932894032
0,529000301155728
0,552249303984556
0,537523597631885
0,538373045454923
0,532924141963324
0,534985315480946
0,537153117860821
0,539824783383385
0,518766523583485
0,527213208204927
0,514173261523553
0,520558240336692
0,511915425594773
0,526163182440915
0,510901698061179
0,508043550439356
0,495325244012196
0,50270889233412
0,48217196448121
0,501444292025358
0,48697734973322
0,504382335420065
0,491359676625901
0,497682189767042
0,481715815802276
0,478860013299703
0,481759571319026
0,485109427413327
0,469698347804697
0,479138037207586
0,464811624199882
0,472989241994191
0,460004203028258
0,467219471010757
0,457303814594018
0,467890942073486
0,46251516189494
0,462141425417565
0,447096479360926
0,461522507116526
0,453571041762241
0,450063801256485
0,439129186260417
0,435846803016138
0,429791536856111
0,446280744122758
0,434208783080196
0,434867050924082
0,427415420579449
0,434318751817188
0,419627156844216
0,427976815118811
0,420970149987428
0,433349886077258
0,422049711895532
0,424973818358586
0,421599333039368
0,42575345935797
0,416356855685689
0,418546781220286
0,408235851856942
0,412216251165284
0,405773148800038
0,408169718617924
0,412477438876501
0,416087926544723
0,400795752126017
0,408152332456905
0,402247042211156
0,401126887381692
0,398962968235763
0,401856266480559
0,396990073608192
0,403509106018034
0,400000369209154
0,404712730442535
0,401590096139983
0,405720382008099
0,400243406089661
0,405958312852683
0,393183205874302
0,398153929632909
0,398414816789653
0,406140398565806
0,40052653478798
0,406751908027362
0,400750039161472
0,403537144863473
0,400234134224312
0,397558865258455
0,411427042688488
0,413336178100204
0,400847707269686
0,415186618362843
0,404113126148392
0,41398881122316
0,416538534717123
0,417976170197829
0,415617463861123
0,424829159119607
0,422854786427102
0,419525870565903
0,421506799117047
0,420700809346098
0,420814840802367
0,430335070216008
0,424727036081858
0,445686196828928
0,43644579062759
0,428639688824862
0,431285458875495
0,442728548861017
0,442768895397403
0,443675560636709
0,443653679341341
0,450197584306927
0,448138065678743
0,4556844924211
0,458706559898123
0,464829928492836
0,451848566182748
0,474869352320914
0,466358292521949
0,461685513248979
0,463871408511221
0,474232578816009
0,469556507971956
0,488254010880511
0,489539375723949
0,487641828697768
0,482201648894639
0,489803586315139
0,489803882659114
0,508836617077984
0,500266401396853
0,507585195472284
0,514073800687295
0,506798834514049
0,513096564923755
0,515898660136295
0,506220137456034
0,534361775825641
0,525509310149928
0,532785770548058
0,530645035736015
0,528497767226494
0,525899605705526
0,544177379079669
0,532235200645496
0,52399679185968
0,525169714759748
0,517937218693337
0,524439705320667
0,534609857466285
0,519494782624326
0,52852150529999
0,517807343729236
0,537824055235114
0,524328719287262
0,523693622344232
0,517299310374189
0,522784915846247
0,522767675736475
0,522435820663343
0,514992524752419
0,534261803661499
0,520371081348742
0,536420116100352
0,526071884398394
0,517991646147853
0,508897413346087
0,518756026904295
0,52511338673214
0,529305267854253
0,5231996532915
0,526958769879742
0,516820507004388
0,53361404517225
0,528178269201151
0,522714435067989
0,525707067807512
0,527918068255002
0,523544746082796
0,527394734357612
0,527507829324348
0,519497735983171
0,526602475799824
0,532195771850714
0,521960298244248
0,521706219590913
0,517542729497111
0,522287003393563
0,525711884570894
0,540336570744341
0,532712537558468
0,526377804465385
0,528910001439788
0,523577840580646
0,519960075823595
0,531642684840048
0,522967316585441
0,521062010857562
0,514273149953151
0,514400665930593
0,517045076353776
0,513353236565856
0,510620475480961
0,511130373366639
0,509312434118373
0,503851874612337
0,502565505046572
0,509266181690196
0,498178691178964
0,491857434742377
0,486644880699924
0,493503413047289
0,481783690512047
0,475090022190953
0,485483471622294
0,480987387721787
0,473560615403078
0,471539878942168
0,462852104317031
0,467929859990437
0,466406939637603
0,45831878874026
0,446000891205773
0,447004971844663
0,443258645721135
0,444731733910401
0,434129841588174
0,427900629335146
0,432351349120572
0,428141896332457
0,423299221719373
0,423623854408396
0,41937953100995
0,421418973958566
0,412042931215703
0,410149370612383
0,410586221034794
0,403969613276283
0,40926324132169
0,403719571319883
0,391529426042076
0,398432576255408
0,392822172041145
0,390127245734328
0,391676726011477
0,392440185359138
0,384972728813122
0,382422498080127
0,375988154254572
0,375723908537756
0,37873518573406
0,382538919365826
0,378896443014325
0,373941915076474
0,367149812308169
0,36866071702592
0,368191690683807
0,363178344427679
0,355185420643567
0,362609227981466
0,364247276684056
0,360748676926243
0,355915856848221
0,354570480089343
0,361425158817967
0,354377091900582
0,344831956902043
0,352190564414826
0,349927134844105
0,347436080074233
0,345043127033206
0,339420902561823
0,338764022032852
0,340454677092187
0,340213314919501
0,339288750914493
0,332056207393133
0,336693429409918
0,335606722253366
0,335234493269094
0,334322416684136
0,330272036949884
0,331363789742356
0,332303373815005
0,32404405519046
0,322794206769062
0,322663118343181
0,318502745661792
0,319322855896977
0,31965377572881
0,31639420338806
0,315092068619438
0,318901536379419
0,316984191870757
0,314643680030987
0,314520649378184
0,312676650180252
0,315471126549513
0,311366706897845
0,311507166517637
0,307436775729654
0,305305449033788
0,309798941986873
0,309317223291304
0,308307383803936
0,303391092682118
0,301663419413753
0,305241249215122
0,303283458100101
0,29801055589251
0,295234911838657
0,296199282192788
0,29827510743601
0,296048475942921
0,297778089268336
0,298512378311393
0,291079898422727
0,297459619264496
0,295679981209403
0,287303326500264
0,29424787511374
0,287559359639566
0,285393165422955
0,292528711019715
0,291568487021608
0,287341784976358
0,283345215442288
0,285192433101127
0,283356969216077
0,279922008379456
0,282502993040494
0,284915600565849
0,281782217866565
0,280329678046366
0,284994154954625
0,278417870695468
0,276636320156603
0,278448962299694
0,281029000268264
0,280490030336711
0,279788025080644
0,281813938027801
0,273336608757471
0,275973273931333
0,280224797301452
0,2725627181862
0,270272104081168
0,270751924162449
0,273816886025581
0,269274652018988
0,268700460192666
0,273695326731726
0,269660246239133
0,272345277270753
0,270549349062852
0,266888290774818
0,269347494052677
0,26631678437335
0,271136159343786
0,272883749925694
0,272292743111487
0,271069077455264
0,270281293640652
0,269939317074192
0,267664350923698
0,27013555323187
0,266628157115432
0,26385673269951
0,26686300269541
0,267255118848819
0,266254902537085
0,263271042899717
0,265313453872063
0,263469209161662
0,26220034535417
0,261960513916692
0,259012950658256
0,260983516776
0,265952599023361
0,260267778745539
0,257759225964956
0,257725760411678
0,258359910327164
0,258803223039033
0,258054527330199
0,254900401251566
0,254774803062355
0,256102214191036
0,253322874280349
0,251386696957981
0,252765869650114
0,250999577275176
0,253494943244023
0,248444360090428
0,248794443489817
0,250071132410788
0,247085721139978
0,247356690891628
0,245843559381563
0,244683958383846
0,245608633525568
0,245238213291159
0,244208259536503
0,244912753171472
0,245499607333474
0,236783577005034
0,235262004916504
0,240729926647902
0,234852993885498
0,231957402078676
0,240498579696626
0,239585556597591
0,237893261647466
0,235522305004912
0,237225704263046
0,23477352960859
0,232220805330129
0,232294651794935
0,234919944394705
0,232392595548621
0,22980786045608
0,22959399049686
0,230882351204236
0,228730764927933
0,227291710658576
0,227150124363162
0,224296302625211
0,222906657857569
0,227835149206638
0,220169031788285
0,223698021887742
0,224313996572539
0,22283482113498
0,224025010016653
0,222233186360522
0,215991121398989
0,221429214761967
0,221583458925751
0,217400514013413
0,2150451847941
0,212242642298457
0,211790460147788
0,214116114491273
0,212846499198512
0,212699921551006
0,20999529838852
0,21401973069041
0,209450062192004
0,206735291584408
0,207496583841995
0,206409230470106
0,204720197933367
0,20260817980388
0,199776735364219
0,200205287048086
0,197069755088676
0,200440987095194
0,202611496072186
0,199196220276936
0,196163692777486
0,200520645809505
0,197374330695543
0,197157502990342
0,19530502679272
0,193289899790094
0,1887866867804
0,192775604711759
0,195823408328744
0,190802725374859
0,189380796463708
0,192175583979424
0,18925555914629
0,190905395105649
0,184770602727502
0,190939066419604
0,189216846114807
0,186319808709148
0,182102816624095
0,185807686301605
0,184624523785698
0,183254668993861
0,178047035907312
0,181388621868155
0,183380840146022
0,182724838146758
0,184639393370782
0,184253716168537
0,180094196660768
0,179103323585326
0,176546996282017
0,178251704664824
0,178925797406292
0,176702140955512
0,1748989069571
0,174935788991251
0,175203791909483
0,176338813930847
0,1754335287832
0,174035631504843
0,170205928980842
0,17611509446959
0,169989947615749
0,170826693249398
0,171972995590857
0,171702543725777
0,166760635454146
0,171185166031029
0,165593520779778
0,168274840212748
0,169208185113056
0,164609719579103
0,164717908647367
0,168568469471853
0,163650236231267
0,16344641991695
0,158780342590263
0,163609898662154
0,163009135213134
0,163531353718325
0,160852769889347
0,164977188795381
0,161094578889469
0,161055076944243
0,158375589432484
0,157967989029445
0,158468389165564
0,159164172870015
0,157686442747797
0,161227183132285
0,156811113705297
0,15678800236521
0,156357766680528
0,157079474125635
0,158433553022529
0,158388501067097
0,157327211027899
0,153934857630613
0,154503135985783
0,158517409074654
0,152854812535329
0,154225674395399
0,15378386739464
0,158227420350784
0,153468876215951
0,154848227496084
0,153277702512429
0,155400814018098
0,152271201112138
0,155616765651197
0,153119368206516
0,153064180511072
0,150990034456637
0,151973608047141
0,150792472465959
0,153079532925416
0,151155905675288
0,153427704606966
0,15185479401393
0,151347870535734
0,152429377072193
0,149418024175661
0,147221953390851
0,150077041096171
0,146899590802914
0,149895296459343
0,148145776686121
0,147516455979216
0,146661050271658
0,143646673979125
0,145495752697977
0,147513139717299
0,143637592012449
0,146303290951318
0,146153349576031
0,146242994600718
0,144029053780735
0,144547793525157
0,14436113314186
0,146300320219787
0,14169034906127
0,141468253642766
0,140644682521419
0,140702462050237
0,141352358649502
0,142426492204008
0,138555435953393
0,141690054310181
0,140632870067961
0,141579101382871
0,139464999938016
0,142495037663416
0,138637678561734
0,141654808528585
0,137830566966575
0,138146247987286
0,13370001118725
0,134672039268318
0,138735791885924
0,139461834459601
0,135326668843172
0,138616285693469
0,135304488420076
0,137792384906513
0,134843518441028
0,138648874977453
0,135452709072689
0,133740322602403
0,131279502147785
0,138830711713284
0,132837766154302
0,13692314627913
0,134492919826138
0,13388024893575
0,131385590227162
0,134141111899602
0,133050938213141
0,132319814189112
0,128949986673847
0,131944906506202
0,130495953951964
0,133916894399425
0,129863608168555
0,131899360554498
0,130141455173897
0,129114753312019
0,126834923201598
0,12648982218144
0,123541394920993
0,127183939493359
0,125822469344604
0,12682088346565
0,12684411374799
0,123314509500975
0,123506565760117
0,128723075245704
0,121173422181019
0,12289317531514
0,119265802986909
0,122274222858147
0,119275123208438
0,119495001252623
0,117693971528418
0,122403568869927
0,120263019441531
0,123842304467331
0,119834762500027
0,119516523260319
0,116660528010259
0,117605444011443
0,115582595605719
0,11748004783529
0,114477589221409
0,117357254650521
0,118751708933583
0,11466651369822
0,113421448736225
0,11433821364208
0,115567932310102
0,117900648156684
0,111021192967152
0,114736588730198
0,113513097543217
0,113217017759274
0,111932202109387
0,114533871917287
0,108113013643394
0,109470963190321
0,107467860568712
0,108793444957418
0,111450485543928
0,11348286562763
0,108908842804811
0,110566594691565
0,10831626798963
0,110031290124978
0,105819847484429
0,106491810333792
0,109566646532768
0,10866527327707
0,110293344139873
0,106647318843875
0,104667529184893
0,109132770305619
0,10626280958111
0,106792354158382
0,104971737274548
0,106192673140469
0,103981704764265
0,104283754423482
0,102544473490686
0,104200283777642
0,102457539092975
0,100451134024092
0,100313639582605
0,101499342473041
0,0984201959594677
0,102124300214063
0,100200376365612
0,100474413480653
0,0967392115888019
0,101223653300605
0,0969498992260376
0,100245838392978
0,0985770918553086
0,0975242592903027
0,0947985328866223
0,0991313617102681
0,0940228851744423
0,0966879718430501
0,0983942012567307
0,0970455667620191
0,0934570820627117
0,0966378044913148
0,0985307521242207
0,0970654027746903
0,095829731983669
0,09765846703699
0,0934422153673705
0,0960473510085147
0,0940187461725184
0,0952100103330763
0,095405758172454
0,0963857961339621
0,0924651365553221
0,0948150099865345
0,0911188203313032
0,0952132418917682
0,092216224652114
0,0973245588334632
0,0945477627747225
0,0982889138088409
0,0993206682814583
0,0995510680699575
0,0990960609611939
0,100091917798896
0,102482775571263
0,103387361349452
0,104924564107914
0,105706728955847
0,104142463301676
0,104944380949332
0,10280949460701
0,107277176154981
0,0956165012978085
0,0992380429169229
0,102081999488636
0,107567660375273
0,10312402810928
0,0966890268805665
0,0948557638035162
0,107490438390486
0,0980712756688275
0,0966346396668158
0,10253455748554
0,102546561359899
0,0905795566451665
0,101074758130558
0,0929586727033644
0,0989047999458733
0,0994502949820492
0,0985981742869692
0,0996887773782282
0,0956857651044813
0,0976628770944242
0,101138689652672
0,0905257763713532
0,0907041815268687
0,0946818862915558
0,0962214294300467
0,0935630432046468
0,0942099664990603
0,0946988863104985
0,0952522544409637
0,0946463335594866
0,0842152864923891
0,0993131905561223
0,0903098379948941
0,0966603237849518
0,0863238781005288
0,101062731431353
0,0817140904834408
0,0968813278351262
0,0815365717972086
0,107166832110228
0,0797995747571832
0,112734048106996
0,0763986251990183
0,11284049155009
0,0695535101258427
0,121672651195896
0,0729894243675905
0,129674190192707
0,0636849069450141
0,130730308498474
0,066077725064971
0,132567705316068
0,0622297869406656
0,129133833603945
0,0692642900547351
0,119661083164428
0,0727607000610161
0,109509487967968
0,0903221312711759
0,0970438233210347
0,101159948505775
0,0846867016056679
0,103625718047568
0,080698710577939
0,103424191493131
0,0791200230939717
0,0996920838844707
0,0875249690129031
0,0903549937213748
0,0889238341571403
0,0874207825650201
0,0933953746891662
0,0838953309588237
0,0877235113405879
0,0846417668262733
0,0851016576523166
0,0903133221844116
0,082652111666757
0,0825955662619477
0,0817175213163849
0,0830143776572589
0,0806203509817053
0,0831816421813053
0,0802958190643744
0,0816750621927294
0,0841763214904686
0,0800777350408087
0,0804931795138774
0,0849049967000127
0,0816605778431812
0,0794100867884181
0,079937691788338
0,0799511748823045
0,0787149641132765
0,0850587824875592
0,081553685763975
0,0804964555534314
0,0799660703169764
0,0802355109219846
0,0824010109721081
0,080289174577935
0,0804786130200404
0,0837055218878182
0,0812518346990389
0,0846468614718311
0,0819896945363376
0,082510716897042
0,0800623644804175
0,0795201520599644
0,0794088906334809
0,0839337144802735
0,0829044476847367
0,0827245236852732
0,0813676360491909
0,0805551744975164
0,0826846622945282
0,079914559780918
0,0776845610577117
0,0827165064411884
0,0817842846957298
0,0848064550562832
0,0797868346791592
0,0835461392133603
0,0816052753249187
0,080162088024096
0,0775152178918488
0,0810851711470838
0,0780166624071022
0,0845852634241271
0,078521495933318
0,0842918165833579
0,0806778335199511
0,0824201436223823
0,0803213442945153
0,0790893308114172
0,0805810196426756
0,0813236615165669
0,0814002097432062
0,080344598876475
0,079338622943941
0,0808501433859644
0,0814760761254296
0,0791633187811601
0,0785375447315498
0,0804514914062936
0,0795318970864132
0,0829302866268787
0,0766813688741994
0,0783917967967949
0,0797724334156779
0,0813467628124106
0,0799392054472041
0,0795010246042431
0,0820983203882769
0,0813140569318864
0,076968562915694
0,0817997952338809
0,0798386575237928
0,0834579751020746
0,0806101708803033
0,0815820231711754
0,0802591693240904
0,0819541084348261
0,0816989892611981
0,0826117493471387
0,0826267556084436
0,0827059026601631
0,080578648095419
0,0828296786745169
0,0794779088254351
0,0809148257857757
0,0824222922438529
0,0829542222316009
0,0806380770326315
0,0818594783609037
0,0809063759740416
0,0823093899457735
0,0814528474778772
0,0820673578677704
0,0815810782517532
0,0822901982684836
0,0824049982950306
0,08427146700277
0,0827190301297826
0,0826088228185785
0,0812672546715542
0,0841073594628546
0,0813928170523028
0,0829512261322866
0,0829476521021944
0,0844819942938283
0,0822904311647129
0,0812636404506886
0,080183856613864
0,0825537800540298
0,0827948940605254
0,0842985321259174
0,0834720002409134
0,0830006237132168
0,0834148481129205
0,0839879336743575
0,0829482500638362
0,0858747413604391
0,0811035527927246
0,0844260941598728
0,0839927697484821
0,0835749231017211
0,0831682291834187
0,0835914557540794
0,0809046288288757
0,0850351078832541
0,0844771617349708
0,0857541966883449
0,0851516737796647
0,0836901370724847
0,0810161035738725
0,0871706491727019
0,0854287308139951
0,0832125070943301
0,0829524066593676
0,0851780478170547
0,0828573344832364
0,0861102022495498
0,0846638441673699
0,0862386898504661
0,0842975088402908
0,0889058930617785
0,0846471725688918
0,0854884948094313
0,0855006815639149
0,0860061001025889
0,0863966507084456
0,0864932390989504
0,0848214292248745
0,0843521476086762
0,085669137278837
0,0884610999730746
0,0865979799849491
0,083178928124448
0,0871538842028332
0,0871968689791013
0,0827981157628619
0,0881373948464462
0,0853303386847362
0,0852945989232728
0,0817890731051271
0,0870542548160919
0,0847182139517187
0,0848704749761401
0,0838659756813693
0,0868016232402657
0,0848621026372508
0,0836054385572417
0,0847589111302136
0,0843358546469272
0,082204541605035
0,0821980630390622
0,0820632075954343
0,0836756445315991
0,0815072906079728
0,0830934614494877
0,0820198089371929
0,0798204060504237
0,0787241839065128
0,0823268515888523
0,0799515186383602
0,0795704365592671
0,0793370015558046
0,0825523859788761
0,0818716218704246
0,0826924990078944
0,0807790629975055
0,0819350822739314
0,0804265909475552
0,0836770056651023
0,0816204122737725
0,082501528340944
0,0811192611844854
0,0816477161152531
0,0821850187935607
0,0855088551986762
0,0810285701543502
0,0794487565220663
0,0807445425524314
0,0794943798366947
0,0799279368931151
0,0797685046044836
0,0799841160388523
0,0811361106988537
0,0819682611286328
0,0804491223909947
0,0792534447112698
0,0799490749720383
0,079582455960676
0,0810688701118104
0,0796883353811304
0,0808907208437808
0,0799380911742044
0,0791881064335108
0,0818183701306272
0,0809781321602653
0,0768343969015779
0,0804463831514157
0,0781406087626459
0,0803724160400264
0,0800169559337695
0,0793902798309078
0,0801766430099228
0,0785716748567465
0,0770375942527236
0,0780079985164939
0,0776128305835687
0,0782860973693564
0,0759736959353169
0,0774590073468972
0,078013826100972
0,0801913001222696
0,0781811233045476
0,0783026822169504
0,0768812138128797
0,0803684916629312
0,074928276728836
0,0762093285128055
0,0762054159513579
0,0780980935861155
0,0806371716941664
0,0821795452163396
0,0790600648554094
0,0765524668802116
0,0765855546033307
0,0771221525603467
0,0781307820093248
0,0770297518018405
0,0778467293599705
0,0763493044405766
0,0759738405864888
0,0788935840756758
0,0782347498972273
0,0789132618927647
0,0770069424596006
0,0780048736632622
0,0759347310678487
0,0759777111585482
0,0755284235150974
0,0750895937038809
0,0766988386311648
0,0778680169587447
0,0744450493113381
0,0752440972335706
0,0762997076016974
0,0739891931450726
0,0762594750963838
0,0810426473999572
0,0765510146746547
0,0763268276566482
0,0738221233979569
0,0747061777227579
0,0731154274497225
0,0742837700369283
0,0747314038619556
0,0729796489065424
0,0742439692668959
0,076129526711036
0,0729938116508556
0,0716747901437737
0,0722868401216639
0,0723108554207979
0,0719954345620254
0,0729845185367842
0,0723663977185397
0,0725103242265997
0,0711305413001392
0,0742809678757471
0,0728221337477
0,0705119799137408
0,070240654003013
0,0734691585411421
0,0748827778596793
0,0818311082733718
0,0720306469925346
0,0688985297771981
0,0685621277137398
0,0684031866752636
0,0673541184991132
0,0697259713984557
0,0669481874415904
0,0692822497836904
0,0685738203279947
0,0695688630235541
0,0674341367530005
0,0659476522774379
0,0664286241989859
0,0674419645743153
0,0662510257672877
0,0664598177592051
0,0650546246853816
0,0663544328098583
0,066026180876243
0,069481914095649
0,0645308367806136
0,0685912909039904
0,0657355931865404
0,0665480533109644
0,0653521496475295
0,0786874445915922
0,0828924068730843
0,0674988808999147
0,0671151010296483
0,0716106676747871
0,0723367345315629
0,0635951176902517
0,0672710075393759
0,0658268688545198
0,065143007892236
0,0665340646827394
0,0660695864917179
0,0639716284366705
0,0658691777757498
0,065096088044979
0,0650176296342544
0,0640023082024016
0,0635697532470162
0,0639163989932246
0,0635144303712979
0,0627709761672261
0,0634231116804144
0,0633492551614583
0,0639823745343295
0,0648855028282692
0,0640335069141555
0,0649219300168204
0,0771696718853085
0,071385956431826
0,0662105710290306
0,0632157817015322
0,0627889323026934
0,0614802679315652
0,0638792594891505
0,0621533907174459
0,0619709747001649
0,0641771412879878
0,0616134972354196
0,0612862434970114
0,0611348554967048
0,0642191482628488
0,0638856426300528
0,0601436591568241
0,0638560893106012
0,059226537089721
0,0610205502837321
0,0598340870600638
0,0619800023762921
0,0605860998650711
0,065709136382862
0,0655595624507042
0,0654787064343694
0,0605443092020477
0,0757744112396578
0,0923341102612034
0,0636188711630137
0,0639358530592618
0,0609914003914672
0,0625766331426847
0,0597845216472793
0,061709979135598
0,0602215397744982
0,0587217226259849
0,0593258359141657
0,0625855159266344
0,0592605501440263
0,0618987009629685
0,0598388664410922
0,0602928890727533
0,0602925960226098
0,0600380943555093
0,0585977278430654
0,063558815050282
0,0601510011354554
0,0696755142845562
0,0832267108497513
0,0700164429579365
0,0596368980364051
0,0612380822372667
0,0623342478094052
0,0972933807710614
0,0725459764344097
0,0609962757486683
0,0615743497431504
0,0592216469859795
0,0596268003820449
0,0600088202181529
0,0589296647265872
0,0655874841173676
0,0708325469672484
0,0618076796017178
0,0669467620645007
0,061479403646199
0,0602785331300216
0,0579384740283764
0,0584218334840185
0,0573984662424615
0,0594105613106513
0,0604773487990413
0,0550294181811758
0,057730197450301
0,0594731009813798
0,0585994472933291
0,0575260558725911
0,067319602576217
0,0731826597640412
0,0586048132756998
0,0595479435985081
0,0618069279108622
0,0592466793753281
0,0767943693600999
0,0866457306014638
0,0609242881986192
0,062347949813661
0,0576063555104336
0,0611112387309692
0,0612329597372956
0,0583761445740427
0,056553660850643
0,0575937164428506
0,0599039368138114
0,0603656344941355
0,0586644421109168
0,058156508777162
0,0597117980926581
0,0583526558267369
0,0575302994020713
0,0586294379459311
0,0605770290669934
0,0576545328861336
0,0627778827379228
0,0658870250413938
0,0948257542162802
0,0951386853490316
0,0834492703874784
0,0812163938440748
0,0678407617406334
0,0621993201750002
0,0623044675914421
0,0607257457675084
0,0582903781355109
0,0634318407159876
0,059132700673452
0,0610938945466941
0,0616722766113769
0,0609476234089869
0,0577568333862758
0,0582625656710906
0,0561447811400166
0,0595082806254619
0,0577704779480051
0,0603408414782426
0,0568746378289305
0,0583141101874593
0,0584207104638277
0,072199992098129
0,0719637958634712
0,0641916270011677
0,0704689965899727
0,106306067597906
0,0968798136293645
0,0708416237514474
0,071497066873958
0,0631088438954184
0,0624430286784082
0,0601782861229361
0,0659905722421322
0,070137711452286
0,0619011522635716
0,0607617592473073
0,0607307562772509
0,065461971744522
0,0614646410951101
0,0583934114672761
0,0911976518655417
0,112644549092624
0,0792952468681854
0,0670432163356122
0,0603839168216125
0,0816652105855842
0,103169862907589
0,0671534422801892
0,0715919464882594
0,0678293963926769
0,0616836538038929
0,0644376718402324
0,0625569423280007
0,0652152075412008
0,0734357404991147
0,0671375002711684
0,0611291579132934
0,0615910581230415
0,060760903725076
0,0695916459142192
0,0714235546948089
0,0819818599924692
0,0820014789939203
0,0661967827702116
0,0742599779265201
0,0749312533690047
0,0657690562037979
0,070013655741529
0,066975744675555
0,068314682766507
0,0842162118954241
0,0884126867108411
0,0782518778380764
0,0965849885270386
0,0869014252155207
0,0675419621852811
0,0746435433039692
0,0881232247112487
0,0795184668287596
0,0703666956262952
0,0940322266507204
0,112287767286757
0,104062057267521
0,0980121620666016
0,0758175910007975
0,0718662038283376
0,0708932016703284
0,0666931914829219
0,0753332822896408
0,0928771045765943
0,0810188726667934
0,0668934533294864
0,0733136013724949
0,0849835754034566
0,0943492543487695
0,0806478586696203
0,0808304713891231
0,0725855107069431
0,0785830202041508
0,0953263966535166
0,0844675970549276
0,0841664615136515
0,128401676971737
0,122490804138224
0,11202423583102
0,0866025758046327
0,0916664601379084
0,118089187169344
0,0944570927197451
0,0776458407618522
0,0801328002525687
0,0813925616380104
0,0787076578212016
0,0984737442433541
0,129719998507957
0,0938269090989634
0,0829021854464699
0,0880481370062296
0,0952299706693602
0,11892623794027
0,102814868030042
0,0817628774074363
0,0891920944233139
0,0824890201422985
0,102187165857653
0,146627976645618
0,127189430748047
0,112668455707257
0,135703340506649
0,123124156326217
0,119035186734229
0,107283695623353
0,103158652855505
0,124304021699975
0,1300841230178
0,100404052411506
0,0954782141823658
0,130978571169456
0,129700511503244
0,107556792898755
0,104475904309063
0,103764085237185
0,112439322628831
0,17509917167967
0,194786436459365
0,14617668252382
0,116221337590888
0,129649150862159
0,151456534926872
0,125641747472657
0,109682706533528
0,115141434750085
0,115580464547519
0,112700846998913
0,123633600582492
0,135022793912352
0,125356547255998
0,128051949367587
0,12354582277101
0,137197011540569
0,184342146060576
0,230518825789404
0,174922040081209
0,171656544004082
0,1749500117092
0,175671424080354
0,149656505341318
0,142638916685362
0,141178699794376
0,15429570571427
0,150752750507542
0,143126731174914
0,15495197811494
0,185058696905273
0,177495337271307
0,191934758781865
0,184168560105936
0,172499807120791
0,166855981815848
0,23844490478978
0,321356031348345
0,235867438148857
0,191256595919241
0,210614131870546
0,243794197859497
0,281425591101291
0,222833493591515
0,20280114432119
0,20482711943801
0,205280929434941
0,223188752891189
0,238104167575392
0,243931080587945
0,258973648314872
0,239204252654802
0,250506904759392
0,290184333523434
0,396891285569287
0,366091175921037
0,293581426114387
0,284054624517068
0,318438329359097
0,31169226072612
0,292960268888466
0,298573496641078
0,303613788828116
0,351440038776774
0,383189882580056
0,344091154555051
0,319987788021509
0,362096316957802
0,357833974111516
0,375759562299457
0,413271111705749
0,430331897808644
0,377545522412387
0,376405430587143
0,383200207147687
0,376132369180133
0,403760945360643
0,43801896852505
0,435864850584569
0,42066960042632
0,415920910567663
0,420572374878261
0,427531293528448
0,440864662524354
0,438008273489821
0,46095672287538
0,499741147910836
0,586592649521369
0,625435592607537
0,505830472939466
0,462571497750631
0,455608763993757
0,483870162055646
0,515806418892259
0,531449994927028
0,53995310857684
0,502753834236995
0,46587444987237
0,470166060652816
0,478932590689145
0,4650833408351
0,47916033873499
0,461325592618179
0,481044036118991
0,504101783007452
0,503020380406106
0,552448619501176
0,565445155583044
0,492962262124787
0,460328458429941
0,470903031458497
0,454716018044075
0,460171725420333
0,452484400526211
0,481438982986877
0,470283630119423
0,468748259837605
0,43804839073469
0,453512533527514
0,482949363576958
0,482315468758869
0,44437317135513
0,434720041166092
0,428548033679955
0,430521951735227
0,426186805698205
0,467980612347717
0,477112802661469
0,440319854122063
0,397026206224208
0,4027269998491
0,398133860055339
0,405600518074006
0,387782240142363
0,412545332234472
0,392116379613109
0,395040479371802
0,386828928799878
0,389465979024932
0,375167184778795
0,380866356434044
0,377733534585863
0,385334479037555
0,376750981898675
0,381187281826517
0,37318331055713
0,372829318450131
0,365301737425265
0,375330672926696
0,368158524535477
0,378054094747399
0,378700877841923
0,377410618708166
0,36736441575846
0,374262917936143
0,372943724674949
0,366439391971216
0,363530074605599
0,367196713226754
0,369248731196298
0,366357296357701
0,363358453589556
0,364095470065516
0,361898515684104
0,364909680224594
0,359589766132341
0,353083480483506
0,363889687604835
0,358910948240795
0,382730599548576
0,432927762619097
0,397825436285475
0,367757641001374
0,34826890104479
0,361388602682173
0,337024018736064
0,368947154779061
0,402431285509464
0,392725643539488
0,350385750924623
0,341941180904324
0,339675387271602
0,378002234833416
0,343061932293758
0,348646849072923
0,327320742477273
0,353909289098873
0,413448935967833
0,477331139030454
0,506161385831989
0,449668001387608
0,363815385438499
0,330478811237865
0,392572445743944
0,363990899200079
0,343516401969453
0,314342311934669
0,336558839356448
0,374835772880739
0,34823732921045
0,328666824038849
0,313880278456968
0,320995026100853
0,371265933067095
0,374642008575393
0,351854516985173
0,378139195817724
0,363798299931559
0,376919213324865
0,420825498840978
0,443991421395455
0,347766340634323
0,313792954775113
0,30645830942129
0,301394328837006
0,344525618787364
0,357477212022174
0,327805962985834
0,311871425653117
0,284069176712197
0,293906267484103
0,301460786966724
0,334403038037917
0,285840992322428
0,340970549415124
0,312827873546281
0,303258496420897
0,293667251567187
0,342150930267995
0,362443755437773
0,365213292262989
0,28398395726556
0,275992420839526
0,349710803100925
0,325428306565315
0,306114023147405
0,280284881526325
0,252112243998364
0,284921775966725
0,273399023657497
0,268002221241961
0,289051775994349
0,297203041065608
0,335126311442656
0,36290042122144
0,402115793594543
0,327537366485587
0,257713173717654
0,239636874046827
0,228093789355112
0,252212653614817
0,225996669678564
0,246450599587049
0,281116772687182
0,24427968992137
0,2731886351582
0,279706456813416
0,26124202577906
0,236453748724577
0,234058042605381
0,234214813726956
0,258415320008978
0,311543584464436
0,322342114091944
0,269710656573027
0,285588518178769
0,278760879315577
0,275540680320868
0,248520167880393
0,264910125427723
0,256192473566662
0,274281815509831
0,281423504347409
0,285150377602668
0,279217039528521
0,289242626775463
0,285534341170097
0,370950239275344
0,319690019117926
0,334938526324521
0,34729853823067
0,399337224802617
0,395191461409206
0,352853925075126
0,347330449550509
0,341594643817891
0,35134879785454
0,349612287277892
0,352087910952101
0,402232454653791
0,39259927452341
0,390569934619428
0,369249976522306
0,384210995537125
0,374157837307454
0,412604901295885
0,443315110231652
0,460443697226344
0,510791499701962
0,461586996760037
0,456199516884623
0,410759863459491
0,419890922087261
0,416716896727734
0,42573328776326
0,418677851774677
0,408096480432434
0,436618216062681
0,459123072695577
0,436012921952355
0,428064673885206
0,421822541363834
0,431550918010655
0,426533721344375
0,434830647599806
0,440487601149633
0,44285517002641
0,448979766981328
0,439259949432987
0,494980426833381
0,542640370371394
0,490255477154603
0,466084612093558
0,468350782092776
0,490435092225018
0,465863373227261
0,479614787690136
0,503008586786232
0,504183454694213
0,486496726330092
0,478662251066511
0,486890899245275
0,473410595039367
0,528077588404479
0,523359280786316
0,511007170139148
0,501463201456378
0,501673036005197
0,608929176308746
0,55197589927767
0,57003205591629
0,531833666906956
0,539564626966995
0,515839875875181
0,531908247971562
0,516724846095522
0,536445392256998
0,52611386194177
0,535722339733975
0,529021534842262
0,523945102779672
0,530269757462502
0,517762776442029
0,542644759648236
0,56833186976583
0,532605050190205
0,527955127725092
0,522559964775587
0,523123633112388
0,530374276582165
0,572094934067016
0,552346822350491
0,545644828263916
0,530832154206467
0,569374950330979
0,573028307443912
0,550408060763093
0,523432601187984
0,525904100497697
0,521762620910494
0,537763483462094
0,514700834257991
0,567046373438622
0,564309427894838
0,561489448433112
0,533026561342685
0,545253177701656
0,531979417449695
0,543157239729407
0,53456552625471
0,552207880187148
0,53900853511698
0,561923296959418
0,561281452433423
0,554408414140432
0,553349557744476
0,568766471028644
0,58875535255373
0,578018806911018
0,545364566964333
0,551863024306329
0,535690232075452
0,556449255706733
0,54770553083428
0,553184877902672
0,529925418527354
0,546264925223436
0,509940851130336
0,556993058707454
0,548752699492606
0,53728634172728
0,531321982133401
0,50947876975307
0,498691869880218
0,496737452593324
0,495487310696737
0,482890130801074
0,49524200125926
0,498028413305689
0,488675796278265
0,484749547777385
0,477804440148718
0,479403933357968
0,477147413670137
0,479462298699487
0,469945333623989
0,479523768958176
0,467236680298361
0,47669643278724
0,468087057182085
0,472371006278285
0,463225729216539
0,471865854519065
0,497193004538146
0,504708411218657
0,493124979126254
0,4752084437302
0,484593175216578
0,47500920317813
0,465172866395577
0,463226060187192
0,466463455268292
0,456824839076359
0,467309668183077
0,463587624343905
0,467367866829284
0,463623486086736
0,46333063138363
0,465130527623754
0,459653595538869
0,463365534182348
0,459978625455602
0,464082642757543
0,459904404925939
0,463736633831654
0,464486790217559
0,472752814453986
0,461781239288514
0,474439341890246
0,46209220259329
0,46343287050958
0,46593387780225
0,470139299665239
0,477388487448783
0,464170839431821
0,459278441238694
0,459701525354338
0,459872674421446
0,462338583505124
0,458339694599964
0,464184199768317
0,456751685328696
0,455336946867969
0,456278168928945
0,452539205227364
0,443069238998906
0,44869996596845
0,437938027962062
0,437779883700733
0,432035441411051
0,436207121711729
0,426296653642805
0,423347116510818
0,416850039923256
0,418751298697278
0,414723661750334
0,413325887876304
0,410732091533538
0,41268037848608
0,407362028736201
0,410384279286832
0,402516165252
0,403755981742893
0,402511616378516
0,402572007985015
0,399866627291951
0,404431993482192
0,399984453101205
0,400229507159431
0,398741066352757
0,405924824760275
0,399966419172688
0,40325193566329
0,400382112321737
0,407950194451299
0,403910389929678
0,408977535283704
0,40728422373979
0,410043396712942
0,41461369622317
0,419215555515334
0,415727991472902
0,416245268287134
0,42039479938003
0,422504969852802
0,423719092455245
0,423151119323567
0,422068737055763
0,428172110041383
0,427515123115228
0,431213031530548
0,427931593512746
0,42872944390802
0,425996565040152
0,429922011492629
0,425158494665408
0,425345623504728
0,424471127318251
0,424225517107743
0,42566668004466
0,426577687169572
0,421985527125967
0,423177543347073
0,4210976463344
0,420884204528872
0,414161479272223
0,424555812815062
0,420049738967987
0,418359728766217
0,417305257257824
0,415050923737658
0,411557076874766
0,412171818306119
0,408324135285476
0,413179247702092
0,403658515774793
0,405188646296731
0,404658315396106
0,408219158255759
0,400959767395082
0,401717588148624
0,398300919449339
0,399599413526365
0,3933908142359
0,398243117432889
0,396385381701552
0,397455474127986
0,394135893691915
0,396216234833559
0,394975370440453
0,39470557206832
0,390829533409215
0,389620234210812
0,383026716753028
0,385827540068017
0,38207479682542
0,380474098622763
0,377093165290418
0,376266998824643
0,373098429366745
0,373154180298392
0,368674170192648
0,365916037352681
0,361566384113199
0,359078785802334
0,355593353788908
0,356912625797635
0,354171962010615
0,353045519995225
0,351376211266757
0,353253344758921
0,351290400897049
0,350112227433981
0,344963320153461
0,346756048459536
0,346177129996263
0,34737539288846
0,34231837145003
0,342489732997295
0,33654252383083
0,336022079439251
0,332149666756446
0,328282604336993
0,325031295814754
0,321531945217203
0,317118707322341
0,314145446854817
0,31170233103826
0,311632599683913
0,310450056718667
0,315207596789214
0,31478240909795
0,317454339530619
0,322255768826552
0,329081112485068
0,337222398056282
0,345993931334749
0,357088846645133
0,368947594142669
0,380318024219376
0,397351407590925
0,406167109399928
0,422053713298969
0,435736685839465
0,45386627274216
0,464049920005052
0,485100053428382
0,496458774051002
0,510533091990476
0,522998361221682
0,538332170705991
0,549220569178486
0,558738774294808
0,573298913958641
0,584543233416136
0,589547691590804
0,60303834277195
0,613208449073207
0,621435815602942
0,631217831573275
0,63712522937134
0,641264625856883
0,651639803835239
0,656207881728605
0,661044756272157
0,667272947317318
0,666294002305314
0,671147572386631
0,676370386335883
0,67744096160332
0,681073282883817
0,684788424711351
0,686934385824494
0,680965909338096
0,687397754008223
0,693013676642753
0,691704318279794
0,698126199236937
0,699317056598098
0,700121568540096
0,705811075899682
0,711431004319263
0,715343170198813
0,721664407605947
0,724687491085463
0,733432378116661
0,732945253098603
0,751639888584484
0,753585540890806
0,762876291110623
0,76632734325571
0,77183425122871
0,782094880299065
0,789377524004877
0,803815380327415
0,802305702945612
0,829048333839133
0,836407998571661
0,857906867851341
0,858831669881796
0,872306114726506
0,881661184941594
0,892949322366058
0,880630492646774
0,894004986194514
0,89157849182695
0,8978260046442
0,883624430892296
0,892720217526261
0,892164138561494
0,88882190011881
0,877577798621311
0,88653136880247
0,864640067941326
0,881201088944341
0,876350320572335
0,884746138816247
0,889060930572062
0,899385172963737
0,922149022197084
0,920975007587097
0,9453212745437
0,950286201324491
0,963112868506935
0,983853493056942
0,995622375087865
1,02496264749586
1,01881591415832
1,05299319527698
1,06089385445314
1,08273163188283
1,1003642705893
1,11049125928895
1,11396519726148
1,14250558578746
1,15233432032547
1,15956483315806
1,1885630542054
1,20853378987846
1,24985893376092
1,28950577279014
1,29234948002702
1,30941906366969
1,31710992132735
1,36301210762623
1,32630154535443
1,33362849992627
1,39886145799294
1,46697341733477
1,39186827177206
1,47057158520764
1,47637851831692
1,49687033259087
1,54175424211533
1,54386368515368
1,58107374041361
1,51629204649323
1,58736675585707
1,60745206229655
1,49217853317777
1,56604308845126
1,497732939059
1,49113804865694
1,51409529787281
1,46997240243742
1,47158485750306
1,52524776790469
1,54426390563766
1,48290364441978
1,49902862317752
1,54524599476804
1,51308614609356
1,53398543579569
1,50182183107681
1,5670756140624
1,59241796231677
1,60396491193741
1,55742142331966
1,59300409440759
1,62550582546884
1,67989697212807
1,72932080515168
1,6792094844249
1,64932568801332
1,67272293344743
1,69349228753115
1,71157248762419
1,72509883179795
1,70435283557739
1,73985501680993
1,6831298793611
1,70923369155533
1,7309709368643
1,78037179747558
1,82468605396496
1,68351157573736
1,75850751265152
1,71795750958654
1,69571657748066
1,72783188091893
1,73610563705976
1,74799886637883
1,70176548710516
1,71958755650794
1,71006932880365
1,7111433568589
1,68148599526203
1,77226781256941
1,70067322215867
1,70091934968196
1,60988637611729
1,74406634776537
1,63916447443681
1,63247458174732
1,61107067789174
1,60222554114973
1,53284254328219
1,41252796490375
1,41300018671052
1,33257341975539
1,31996337375738
1,22396954348337
1,20918226867029
1,17414638988804
1,15413740644633
1,12994335461057
1,0677831289162
1,0731290577898
1,04032496123034
1,03959802431123
1,01340798104022
0,987623268959188
1,01315622928131
0,991228585206178
0,97992498876138
0,968299745086953
0,962737325028136
0,94884019189037
0,921955020830727
0,92241034297385
0,92812065423451
0,885470349905913
0,912382891003029
0,889931700666454
0,839098328503192
0,835519786987885
0,818240582662184
0,794290512052926
0,779355396874245
0,753055686550862
0,729252998199864
0,688367671728459
0,676586066263732
0,642287043664264
0,614196411662173
0,587848757552968
0,5702694858147
0,535067690993055
0,520825245945474
0,486871011545287
0,472164437823563
0,453649783816527
0,441777424886356
0,421762621859634
0,407968044858734
0,394252574114869
0,381879130526254
0,373067828519187
0,368240267425204
0,360674583515241
0,349076527584307
0,345341434400592
0,345241314066735
0,340199063849022
0,334760403645573
0,335072654462163
0,333164143709956
0,331411342083656
0,333998110025859
0,335268733128899
0,335679318866053
0,334802241218626
0,335331135775764
0,343314937382026
0,343127214212903
0,342807417720538
0,341230514165627
0,341812604785811
0,347060370148367
0,338744162357126
0,335245313064544
0,332381776697058
0,325639966437959
0,322251000969677
0,318996425133888
0,319865097293936
0,313649437890449
0,315582907868789
0,308740330195931
0,310092666994203
0,309222601044626
0,308988777288027
0,307646916774451
0,308703493290684
0,313102869535591
0,312570513296284
0,316657613549977
0,325211135666936
0,318454953781851
0,330202148320812
0,330177473124714
0,336730623892941
0,333638315886286
0,339930683878848
0,342631387946537
0,34425366213973
0,346949298280852
0,345325923005584
0,350350907622846
0,352192606650156
0,345812432213897
0,34745914592846
0,352624658215641
0,356863083351945
0,356281006117451
0,358569885869839
0,363519149239698
0,361380507658326
0,362426673373232
0,369210470149341
0,369108630287628
0,379933789787111
0,389136431549029
0,394533177140839
0,402225107188409
0,421420603788359
0,436465903729108
0,4361334310725
0,448821911967952
0,470395259286543
0,476220753854481
0,485556126991084
0,481219252106064
0,488131285294497
0,486449320008512
0,495080985542729
0,489193321307309
0,485432736086072
0,470643482476378
0,463478458041274
0,450964870931734
0,456705087626895
0,449501151945668
0,440240753053919
0,433800797730244
0,440566312681125
0,43505978801585
0,439404307141224
0,433674813696703
0,427394421751032
0,43439888687472
0,43700040737508
0,429874175377383
0,430697148842989
0,434261224786106
0,427165542692068
0,420150036019812
0,429086034439914
0,403420610583925
0,418961358219004
0,396013867170492
0,406205536492962
0,395488025161507
0,387521816753268
0,391705371551291
0,390691461889848
0,382467567218333
0,379250689009432
0,381401374121093
0,374539315127997
0,373436188464178
0,37433355078436
0,371277462777793
0,37475110663088
0,360196831147924
0,363520438793992
0,353669425844395
0,358342563568337
0,358417114582126
0,360987344595278
0,342298350037347
0,351368485952104
0,340618128503179
0,351880595777219
0,338297980914999
0,326045360873623
0,326861131729297
0,326124304042822
0,328095580684962
0,344959593813018
0,317725664166283
0,324792316726495
0,326056352113306
0,33514676275121
0,323913803966517
0,334108850839575
0,3184042824456
0,320227339073177
0,320170059129816
0,322068529279021
0,31498563101543
0,317005352431878
0,309331544304563
0,320845872610725
0,317562910880608
0,332437147728285
0,336747099767968
0,326406796120433
0,33137805945356
0,325408330986684
0,329631676389892
0,325857969133758
0,335150686841789
0,34712682955437
0,332642651512572
0,338790365084509
0,349512248258536
0,352750014287406
0,347291873323681
0,347190726829053
0,34223170309261
0,351249026171238
0,34665572468453
0,374239227436785
0,36918112533315
0,376665920907601
0,372355534904013
0,379967576329025
0,372184270066075
0,393925701950161
0,385255839603998
0,412570071397831
0,410560565025482
0,394835133225516
0,407032709382584
0,437886884119168
0,43768673559132
0,450931014535766
0,44963965576468
0,486818436977318
0,486537232523341
0,508767813942851
0,50346579700264
0,52529942007309
0,545047362343678
0,542951085070191
0,561482655744485
0,587111155613196
0,616508079800025
0,618042016642819
0,595106472741281
0,591932140538303
0,605713599373803
0,598206226072179
0,593085536384819
0,627287796757194
0,570893397008389
0,617277911926128
0,556694445495345
0,592454263174507
0,599875131660548
0,582672817085389
0,550278530608465
0,596032884436609
0,565028470157093
0,568830837174972
0,538180074004042
0,534660679147017
0,556329581130815
0,56208509000341
0,558938331268163
0,536354430231741
0,540123765156538
0,538070289879116
0,525481023587968
0,555509388253384
0,500695796977687
0,543623747502118
0,531463686848449
0,529270903587529
0,506184769018178
0,510844985466711
0,487137173507206
0,509102992976631
0,507111570833395
0,52911200545337
0,479210472373719
0,509552148262734
0,494989224346698
0,494045884012865
0,510794642735838
0,515486435316929
0,494371081416146
0,533757942220268
0,515643844310992
0,527742043962254
0,495808703928431
0,524898440070962
0,523606376477602
0,517587152008867
0,5048294339574
0,521871942019132
0,522370675011502
0,529250810585632
0,541278542458461
0,555153793417669
0,533183489815191
0,568475195563687
0,55840294929564
0,567950229040182
0,508631938407424
0,548402624218775
0,569460176972022
0,595375952493581
0,567652507538374
0,548762742954653
0,595962707382185
0,632987024526637
0,58351899688855
0,616642291879273
0,542940514757256
0,609059624932147
0,589150248190202
0,609660502329014
0,591734617190134
0,719588996384813
0,692962501835236
0,671831531423457
0,650709323551405
0,668971982184282
0,642661263417261
0,712337201953302
0,636446335479733
0,689948880071029
0,648181467982156
0,722889682653854
0,771275669111552
0,760040757998265
0,656726670591349
0,926100272847079
0,77827240920047
0,76241502074931
0,664501217120446
0,678405304170531
0,763480568414548
0,810738174385658
0,749999569952095
0,766576931946918
0,725700333209418
0,649622088726064
0,760715998077058
0,714452441210173
0,700764229431301
0,669858587515896
0,626554758494092
0,748622202596289
0,700302236462971
0,561623683328426
0,640774208229713
0,757344585724389
0,615806131624665
0,621882035671827
0,7452011269685
0,759154753085258
0,595367895385037
0,937874089583701
0,788719081446775
0,891943370525789
0,76185018712043
0,682801002747823
0,730157533303003
0,807333779573591
1,19582077636015
0,771577677346651
0,591642931133422
0,21492614931001
1,04036634120362
0,843100272232141
0,633204920040881
0,619774988534675
0,452338969354195
0,578339331134729
0,714089795023535
1,06152743242477
0,55746992652901
0,629435633621568
0,676982987374896
0,842496566756359
0,749532854406418
0,530781319131742
0,63382860579562
0,807723206676412
0,949103768689473
0,729490577256542
0,700825107167342
