3596
4000,36533379555
650,420452594757
1
2
2
0,0968703672872764
0,0852893733107995
0,0953872543054212
0,0859105141600877
0,0987704389077071
0,0917106990373502
0,096745931376461
0,0869614503638722
0,0980424567513103
0,0964734098657854
0,0944986017046504
0,0831920183652764
0,0974620283238052
0,0775164694193587
0,0896280624551667
0,0843864242504461
0,0873695882136594
0,0870539292686559
0,0898034118789621
0,0792026668323567
0,0890656795795499
0,0841757708149972
0,0910285695719584
0,0836072890919427
0,100155167789708
0,090979184510871
0,0975981161305732
0,0803752699825145
0,0908942749429594
0,0873943949004435
0,0899694998629077
0,088456490999939
0,0951530447664365
0,0911145337644326
0,0961278571340898
0,0822101788206261
0,0936048233995284
0,0874464912968062
0,0914261880890258
0,0877389484798311
0,103781959562464
0,0932606052048269
0,0939599648726625
0,08475864063021
0,101608061662457
0,0943922301964353
0,0994903917228692
0,0898076283857938
0,0895257735706939
0,0838617402262865
0,100554265303428
0,0891532157545126
0,103758233968508
0,098173617982699
0,10300438396286
0,11395190543521
0,104367586604205
0,0841907700947892
0,0896771916768893
0,0862417720934094
0,116934889743428
0,105613695008964
0,0838152639573191
0,0864707457682124
0,092030896462357
0,0942215415118633
0,0937363508990484
0,0874798104019366
0,0899919243613165
0,0928540363996652
0,0818894521573072
0,119956737298555
0,126120531079461
0,0887072498846792
0,105420895003481
0,093666344265646
0,0942298658052594
0,0838487940128523
0,095449893518678
0,102134270949298
0,115330610701901
0,0960308445317422
0,0926212629916168
0,0801447460312716
0,102342145464366
0,117124776040516
0,0879219227505007
0,0945200917540089
0,137584069947241
0,0940972622041742
0,0922414882206886
0,0779741805660808
0,0867302306424399
0,0830762604845098
0,0929039274908818
0,0828065133372329
0,0896077866465618
0,0858794889836072
0,0914692103620347
0,0955762511681763
0,108049245810947
0,0995813177643606
0,150979198880584
0,102626084605037
0,162366286044621
0,111099984504451
0,101057487910791
0,156119579467894
0,11580381283186
0,0971654800061297
0,0875223343864632
0,0894020991581043
0,0998566907090695
0,0937123071367052
0,0862798699650121
0,122639273313009
0,136613716109087
0,0940710637798363
0,101078681994505
0,0932253901071523
0,0896754057704945
0,130977001027612
0,155255780512464
0,0903421254566701
0,109016731586565
0,0916735355264457
0,102620516474535
0,144596567871942
0,137127319611087
0,0809703593444812
0,0907762227086075
0,0792071175789234
0,0875111770911836
0,08850340076867
0,150967630011599
0,0964921201014659
0,103483016873267
0,0962962548697344
0,150207260278945
0,164445771923169
0,10765453836216
0,0852505302532158
0,0852669397223844
0,108428468262746
0,157422457289177
0,0952153399603275
0,0922958958504789
0,127018768158404
0,108503913317721
0,0762574784694622
0,088229793414909
0,0843235295427945
0,115840975999673
0,105044996834829
0,0824071387404593
0,159787044034986
0,19981090371972
0,129359409921761
0,175753602519224
0,0974464148610873
0,112692211029215
0,089401102224855
0,090618500357973
0,0839633559691327
0,0872230250481738
0,0771243721082969
0,121845480437165
0,130688261118509
0,0923204239636145
0,10947340457068
0,145250984769705
0,115128252032319
0,115859195203317
0,16902911685223
0,113528981608565
0,0897927889359795
0,140738237777566
0,102896383751882
0,0867160751098036
0,0984752077559519
0,131344715756841
0,0886209547301948
0,0812080277656454
0,0756049551890126
0,105564766774242
0,113365781152087
0,102864957862105
0,0889166896251264
0,0974671001114049
0,0752137244451118
0,137354885825053
0,163980199138411
0,13527728763252
0,0909590409740569
0,0974461197967552
0,0750418951258073
0,159969166534883
0,136283851952729
0,084990348390224
0,0784658190953114
0,0848169593636638
0,0817540632551472
0,0783078348540914
0,0773759143353394
0,0830625115090167
0,0785297105656221
0,155755508038372
0,115356293340108
0,0886000682165767
0,0839177321070694
0,104182979291327
0,0995364535666377
0,160311773969065
0,132160273518538
0,088769659568907
0,0894579923988631
0,0879008082357757
0,11949455962978
0,11660139609258
0,0889878436752725
0,0842411228768811
0,0744630514006415
0,080966852759108
0,084627421005004
0,0858734808384891
0,0828565531984779
0,0843860546980012
0,0795746383726156
0,0900730347006092
0,0927272955477213
0,104551963626453
0,0882104113111165
0,0830386544114141
0,0849035682676582
0,0789028227492374
0,103912356462789
0,116943780640381
0,0884953546751088
0,0865901968156931
0,0763756981786282
0,0839339814805974
0,0841719098756088
0,0822826318366113
0,0791455195764329
0,0859665085005166
0,0925543878513376
0,131350768886263
0,0943811562978652
0,0826323226106166
0,0803203587814681
0,109206343206011
0,109836568238585
0,0827654936068924
0,0883367163565639
0,0860960813736281
0,076633452643765
0,100936371291141
0,13236759360133
0,0974418721006542
0,0852094471155277
0,10919069681334
0,104245543929794
0,0916171393772166
0,0884146195425523
0,0918091415272181
0,187331495844417
0,128374795869824
0,112795723184514
0,172071912588255
0,128106815969062
0,107865173835059
0,0894517467237281
0,098531592306767
0,24942588376557
0,163687466952977
0,098652562225698
0,103587750917328
0,111861463787789
0,0921329813167235
0,0996520022090144
0,103615611361989
0,12166209153922
0,154432880668334
0,200710084318935
0,17195407920426
0,0931171337049616
0,135956250161473
0,13033744580142
0,0967941457004724
0,0952478625151118
0,0845474502233653
0,0918560299844267
0,123011489438223
0,118839826489291
0,112028006202898
0,103713600857743
0,107346095356709
0,127572945020232
0,100098723071576
0,0852143110323498
0,107916197737577
0,109543424554949
0,0843537460408551
0,0864284177730147
0,0915920483728575
0,101974787147344
0,0918704018708398
0,115237603028979
0,164582214331912
0,119333494804959
0,110522008352398
0,126106102557162
0,0992614873449531
0,0890884198773928
0,0873562790718481
0,0862686103264573
0,0825492950292568
0,0751516684511872
0,0954045457769393
0,133746923996514
0,099122348797033
0,0888231924531367
0,0907082119515579
0,0880791010553509
0,0886189727320505
0,0900145935238439
0,0846483327954278
0,0869590236193298
0,0908552911933744
0,0916695090679914
0,136189984658288
0,127109022592483
0,0938263739047809
0,16145834056298
0,146143096583735
0,105677743349218
0,091668351245961
0,0912414984709204
0,0899241498100461
0,0837063551244918
0,0884608407176647
0,0873500026978686
0,105706030845396
0,126782948095913
0,108532264259861
0,105584743888479
0,121946394351558
0,197105586345107
0,187084336374506
0,122449860419547
0,0985263476969963
0,0990852730936323
0,153936158651224
0,153401462330716
0,14589031028569
0,133344470820232
0,103397287233256
0,104193019394813
0,0990539212701312
0,100826416705114
0,0987809928557615
0,0993357614232215
0,103316245682762
0,108877581718962
0,109071990114031
0,115068890933945
0,101207074860724
0,122088681473703
0,165847036869224
0,126965295781975
0,113657642762573
0,114879940159497
0,107077147469138
0,162448880326951
0,163193392780171
0,203730984380309
0,173448737120377
0,204962018785461
0,19488577898762
0,147484826519637
0,126519785437262
0,115328265579082
0,12830604768718
0,133647497666312
0,131964936067823
0,132719377383924
0,124194484138554
0,140159650654761
0,133673010823525
0,133637234793064
0,131443247665362
0,147328350336879
0,163654311468777
0,146931809879478
0,143777827421491
0,157042275893032
0,183522890514471
0,257503500645306
0,21964605577549
0,173597508940585
0,173507479237948
0,154368021058534
0,152159417508329
0,156842954747696
0,155923416243002
0,164462413578928
0,186987520680317
0,221321723042609
0,209641057099655
0,220469264451079
0,185528151362436
0,181411925316302
0,213359701345296
0,193474432592858
0,206931095730876
0,234210845891498
0,184827968118828
0,17883643726389
0,228527503207177
0,215547446488546
0,21842420612076
0,214044457065515
0,199091849121107
0,185161060972069
0,180991678507582
0,200136953149769
0,201743807543295
0,230025422726534
0,216466312616857
0,219445169279011
0,218989563675747
0,208039100112344
0,216837453169622
0,260852092927868
0,215782729106546
0,24351357037237
0,241706505832328
0,233682056618874
0,227191792567405
0,228287255353406
0,27835677470482
0,274052172386486
0,287706820065362
0,286099931118482
0,233440983330878
0,247874946921873
0,248680326301808
0,250564039352256
0,249222112111932
0,262223622305049
0,266078696164169
0,263434594414613
0,263432534210088
0,270205896941482
0,260513606052062
0,27577509559004
0,270995764851275
0,272358577164168
0,27407164059926
0,291326955850479
0,278499553524178
0,292196320983352
0,343197064205483
0,372579722421453
0,361248612067847
0,372193317827624
0,304123033709082
0,319352471082824
0,316570285488982
0,306416193519934
0,31942057173971
0,326965156441925
0,3085987983112
0,32547324319257
0,32388232493604
0,330061068634039
0,322857777013448
0,346985702495296
0,341867837365307
0,356045757369634
0,342505458874082
0,355488516733282
0,343861403948042
0,355951585357121
0,351360826544912
0,404707168308059
0,375978646641931
0,394291077057088
0,38112399744917
0,39928449963932
0,376325289695541
0,389401769376909
0,383101574702423
0,392330560101281
0,373651746671616
0,385227325064785
0,419377514921455
0,432713751416257
0,398783492358098
0,433945864649038
0,40626820704666
0,4374848916265
0,413387463044693
0,439168210755866
0,43087697372767
0,44238271140231
0,442015299049914
0,436131743785161
0,436365081368543
0,454593372622352
0,457689633214439
0,49202661519663
0,453826609838078
0,470542172473009
0,459220698047659
0,468288453206317
0,433609371974588
0,47269227845985
0,47177461687923
0,486924612428617
0,475506912557408
0,495914530283157
0,477780214457008
0,533517742316979
0,496293678936405
0,54351341338319
0,516082121009853
0,530711013078341
0,516888752866389
0,537028512462679
0,495916127357437
0,533944604740622
0,552774115457723
0,542297932353467
0,543698733304761
0,561634239313532
0,530771656632303
0,541368465134192
0,527969505039698
0,603284203310531
0,562110981360637
0,591062822374098
0,547393405023612
0,59653993045371
0,571584661119167
0,604275469947486
0,53786147267435
0,581949205066788
0,592012455394384
0,624245799805412
0,621448676137131
0,639188268117216
0,570477727779166
0,647422923035798
0,610609549866637
0,623859631251921
0,62947180384141
0,622628959150425
0,592578807617274
0,638940818244739
0,618140962385663
0,6704095382247
0,630519908384073
0,646102273739171
0,64236224409081
0,689249588531285
0,646550272707983
0,666144880388267
0,620958070756609
0,687416810933343
0,651211232923105
0,69682576068872
0,658168089119143
0,736188724848275
0,674524280111461
0,722724514069263
0,70483786501308
0,744932457368617
0,681055470425995
0,695757338099931
0,6988899437181
0,72777245968919
0,732034775992333
0,748809388121517
0,684671472855083
0,770260316898243
0,712898781876169
0,773168335216728
0,705888667174626
0,747676652688659
0,732698085838744
0,74512617637143
0,740919211730316
0,816327348199171
0,725480870073779
0,828575561046065
0,720016922838523
0,771083689039892
0,755508143361154
0,793755793375727
0,772478843965671
0,804955143138957
0,774838527810716
0,805874869267679
0,732844780498161
0,817156364282309
0,743617210498789
0,818335556171379
0,790680083113938
0,837211098828387
0,776873171630423
0,877063806658626
0,788182744520913
0,842207615004696
0,774165318744306
0,868025836408043
0,807615633570393
0,81881692129083
0,803278640509354
0,886561413986258
0,850554704975669
0,85030094522359
0,832319192157593
0,939314353515086
0,856305374210772
0,862268145031997
0,841739998438204
0,863307374337014
0,846188708089628
0,883173587141883
0,837204416753411
0,917604676015645
0,820850965777414
0,887619916502133
0,837291507688928
0,892999662023574
0,81373450493593
0,897701083222702
0,875634325887832
0,908222074607696
0,859364945054066
0,913139130458369
0,831415303554076
0,938263678617385
0,867191796973855
0,955738319986352
0,885096136525918
0,945455103970045
0,899206902236858
0,959658641758751
0,900517252561869
0,938797316946072
0,909320849570915
0,983511725290413
0,952706121352673
1,11234189571498
0,894476162034777
1,01990709819717
0,937494725914086
1,03424878123813
0,860269500594133
1,05847350558407
0,944760436441018
0,998443258824009
0,882489312946786
0,973872400104685
0,88509955516453
0,977212679686838
0,89818525204826
1,02831783052384
0,904723040953383
0,989202564376242
0,910514062071786
0,964107159892079
0,938106249309188
0,965059329734918
0,929081897816579
1,02131037945272
0,925399760426655
1,07940632037517
0,983714640645661
1,01545845110538
0,950853360731819
1,06103754377533
0,938870637773469
0,998952103151411
0,986508031324748
1,08281605338849
0,951134875728463
1,01268901435256
0,960799802584159
1,06049230023023
0,962767271902994
1,03513510361211
0,971610485544806
1,02631358553475
0,934653038373962
0,995542509211684
0,982146091418714
1,01661284996098
0,924128055531625
1,0428477660894
0,9302927545929
0,966963327345046
0,976563867548113
1,08318944984087
0,949798832213646
1,0055356595892
0,976571264632945
1,0235481104565
0,98034884648639
1,10207914928097
0,967308189581682
1,11595779767657
1,00940072827557
1,02286777139818
0,950271350167461
0,985451286923958
0,98976930627365
1,0274147744738
0,993455165036595
1,04318490734576
0,962780261239651
1,05734885638164
0,999542771241348
1,05669223687069
0,985521941835038
1,08102710195206
1,00511212864899
1,06436079941177
0,942567979846974
1,0603427498122
0,933535565484576
1,06857565616806
0,961631647143861
1,01894783021491
1,02019300981844
1,01604766330306
0,956850584887373
1,00345150086842
0,932090550267417
1,04903676697272
1,01086394354945
1,03742430710722
0,97999440396807
1,04178146127963
0,953043995146664
1,05692766891765
1,01011684489251
0,989305286811006
0,963475575956827
1,01799213188611
1,01122704639786
1,04367240077873
0,943101250935198
1,05927238117195
0,971748652081527
1,02327391847582
0,970781682637968
1,07029453083578
0,967032556769739
1,01855378801679
0,972558496393528
1,03102879249856
0,926377995287572
1,02156819472316
0,934438798217696
1,05850556834374
0,942130643944511
1,00834815040473
0,918603321970075
1,0319967938844
0,992949021434774
1,0042984343707
0,975177694869604
1,02997310015156
0,961625639050091
0,963688981025313
0,941995180797837
0,968750822828921
0,952756503904533
0,963153546441724
0,929120945649952
1,10180972708961
0,948356950273066
0,984058875069831
0,914233861193766
1,01953301410317
0,943277065583349
1,026735214141
0,951607050329494
1,00537012217899
0,953626928344841
0,951120427301155
0,91429529954166
1,00540234524509
0,872494728352093
0,978878396086791
0,926715428355024
0,963674126022152
0,888355725598838
0,980697403407687
0,955002758661334
0,935189655303707
0,912780149517438
0,961831708946948
0,932489053894758
0,953631003436559
0,882747119974025
0,924194544742665
0,897245852670835
0,937855684483323
0,890694195269479
0,933173083207669
0,859297105175619
0,925294269530768
0,873864947045836
0,949050258978153
0,870854689391578
0,894807418827695
0,875624193192049
0,91478696015346
0,852564796826645
0,900332790867177
0,869601217837353
0,915021040929115
0,893615943475896
0,854050442149963
0,886195581904736
0,903670278767739
0,836720710708369
0,898873132424263
0,833886009237258
0,842808962455217
0,849556871974179
0,862475837463033
0,845083829064462
0,887848560914904
0,826021820382177
0,85446369038513
0,797710086536387
0,837337404701153
0,8196762023374
0,874764681492203
0,793571664544352
0,847999403682679
0,812231669144072
0,840432477453357
0,804682695554647
0,812622081838321
0,812867915763087
0,840754829466964
0,785710987688516
0,844984542805522
0,803178671766169
0,819148634032568
0,777446653259192
0,819062345233862
0,78236213631732
0,819365586925606
0,795899277600084
0,830520881912935
0,756075111335912
0,803004744498969
0,765994475702405
0,777689977590599
0,738975597559899
0,773199764423624
0,747466114472406
0,776846155267339
0,726924012128059
0,763678916140026
0,728958883143978
0,778441415047836
0,729709382694582
0,745452772468539
0,733330513057933
0,747585162900743
0,711564141473185
0,735314343804264
0,701699550829671
0,734566186854272
0,722498617250581
0,754285587583041
0,711794641646439
0,713402102571546
0,705446301979002
0,698754661896733
0,673675514470711
0,729506005725689
0,697102059714025
0,707854023344993
0,676445359577601
0,711158379307525
0,665082688541747
0,690519817431739
0,668748796502351
0,688947826275632
0,653233678579486
0,686503871542147
0,664407126843475
0,675060581247345
0,64337689014013
0,666331673318022
0,646861097069423
0,664850210541902
0,617503977511278
0,651650370858683
0,626479378357198
0,639155448518744
0,63316738462289
0,634897268481676
0,62885820182828
0,6262117791705
0,623558103720584
0,631961246075857
0,609259834025551
0,616112003312331
0,59293509576833
0,627528220771802
0,580198662277977
0,60610031242583
0,579993742727097
0,600047604169604
0,568745291784636
0,587689499552973
0,579073367289613
0,617540227143768
0,5755943511074
0,569258682018629
0,566510961912226
0,580141402758414
0,569854327312104
0,566297863344368
0,552581901133648
0,567262505540636
0,552736189224219
0,562891943011476
0,537249370538718
0,555915704857175
0,544804241039171
0,545848028503955
0,526755570444169
0,550640565009587
0,521158375611017
0,548422295036916
0,520352544354841
0,522138683984134
0,513252206525295
0,527811627760442
0,508334243828965
0,529388795054746
0,499261831769993
0,512307870811979
0,505898108827221
0,501620457050746
0,487710726644534
0,512497796457353
0,497673037687287
0,502978020402924
0,48728330671494
0,504096207455369
0,482675238591249
0,49902048612434
0,468329772867799
0,485530071557244
0,469357144275324
0,483347353905766
0,468425109391499
0,47381229819018
0,475254419678704
0,475779735994156
0,464585129663482
0,465361587687445
0,449905910293333
0,465664942324397
0,449474158665562
0,456251664716682
0,445950140560055
0,455853747200749
0,437129573463625
0,449119260693131
0,436005224489946
0,454034016755727
0,425651906197546
0,439107158245644
0,421096460749989
0,434917971286269
0,425871442428777
0,430700611104446
0,411895517886448
0,438181816853197
0,411679682330719
0,426484611109815
0,412144064967132
0,423447881005775
0,413944155236899
0,418706842883963
0,401663896218535
0,41249723369409
0,397705415642442
0,409459294951223
0,409125496253169
0,403607256023719
0,398004526059666
0,395746915968248
0,391974857147483
0,398052085966401
0,391485276215701
0,395634461552815
0,378575470999277
0,393067843654421
0,379308771267808
0,382556576040882
0,375094727027109
0,378863566239102
0,373293260357684
0,371709082042401
0,373680654691904
0,374162223456559
0,361813881626219
0,366454668645531
0,359207420374737
0,365209197951275
0,362523496718458
0,359052428585822
0,353553403633525
0,358337082047022
0,345861913283481
0,355486718693046
0,338938728441056
0,352532511747405
0,347757883749129
0,35093182565049
0,339380584861519
0,344256214503828
0,336817629122328
0,336482587446675
0,337845481158833
0,34641723748872
0,326741287873668
0,330170405091239
0,327536904155853
0,328324136934819
0,322192202997784
0,324238708447866
0,312227807006898
0,319152951000904
0,318057207443646
0,312388134059236
0,311335126439538
0,310995719255015
0,309145319962371
0,31704540207987
0,304977692777586
0,305148223781892
0,304848571137297
0,310331260343664
0,309223833487966
0,310365104861753
0,300205292480747
0,309862592349696
0,296141147371306
0,300756034535265
0,293718640932659
0,297202529090066
0,295434321933943
0,297814252150724
0,290297015435853
0,29854918004691
0,289081129604822
0,29654600412196
0,286292430959253
0,297248466814633
0,290403384270556
0,293427556261325
0,287833044354052
0,293872231675571
0,287302840895828
0,292662583461631
0,292009374565238
0,291342666374168
0,289608815526199
0,296895543456629
0,287237296567153
0,291196468128164
0,289416386258599
0,296669749863266
0,295964208195457
0,295145822268952
0,294793120819478
0,29731261005255
0,293499019408737
0,296033209656015
0,295429721369616
0,30360932691697
0,300506709487593
0,307517966616435
0,304981357684959
0,315572576363803
0,302686825690678
0,309203311758869
0,304451333503342
0,310401265630998
0,311699603587549
0,306508800065176
0,313324859018138
0,315215090715476
0,315602875652998
0,320848635118892
0,321524469738286
0,323687246986415
0,309877415854068
0,31587923940506
0,322028654105299
0,331006332549836
0,334777616602608
0,330855314628522
0,328148000168946
0,333213590466673
0,332058143110453
0,3416009750572
0,333215922986469
0,343887083169186
0,345375952305278
0,346749026585547
0,347541876005873
0,355645352475609
0,351282869225781
0,361400139094684
0,356071632019348
0,359681163108131
0,364004321584552
0,368727053046699
0,359035867836919
0,376205820856729
0,374562378096829
0,369675941063278
0,380946818306659
0,38359211191777
0,378453780051662
0,386957420424687
0,382278375881131
0,391829182524441
0,389935241730604
0,394845296480413
0,390161424332686
0,397282252424202
0,390127632785709
0,39863456319576
0,386932660643724
0,396928433449577
0,400391452467647
0,398151664381995
0,390980892219659
0,393991500752009
0,389254423099153
0,390519810143309
0,383560395915349
0,383924522598118
0,377390216355597
0,390179001132587
0,388749251253838
0,390569099421926
0,384395889261359
0,386106115979777
0,385739697934513
0,385904486154112
0,391423868476596
0,396769873701418
0,385873187095808
0,388601507773793
0,386052236235744
0,389913706396052
0,385599195971786
0,389088816864829
0,384511633144626
0,389198617410368
0,389526681212808
0,390389971432689
0,39125852987366
0,392361924533539
0,385552658129263
0,394516616743763
0,389580264086397
0,396094534561682
0,388649865972494
0,394855709806808
0,389634043079644
0,386908896192168
0,394215113732006
0,397201402378573
0,388130512021019
0,394583354171687
0,391123852200034
0,398416242049443
0,388622028689995
0,389673980718071
0,385413916426219
0,389514735098715
0,386401431652095
0,387843804294892
0,387280928746809
0,384573618060884
0,37940234342405
0,385731169923544
0,380419560967554
0,374277743364821
0,379257421250274
0,378546003566204
0,369252155191807
0,373510460657271
0,367459048537761
0,367188046009453
0,364622795100297
0,363946972924649
0,361092504885605
0,360183874014902
0,353992279737256
0,355910361767604
0,353444525818533
0,352051144908172
0,346366620256412
0,338477129157371
0,333378534329569
0,342232577340439
0,337550771968702
0,331869369012224
0,327649240086184
0,325683202074247
0,321742122215669
0,329007834359068
0,31642265987815
0,31130967148044
0,308033772335845
0,307204804122831
0,303875500678852
0,305187756176022
0,300779302317397
0,303687480123716
0,29391065700017
0,292184190255241
0,297531837697514
0,294536337591547
0,290882831826516
0,289965329784531
0,283518469542079
0,287093267923843
0,28114285137074
0,279510351004837
0,276841448878365
0,279997024499236
0,281953502027665
0,274850691186487
0,272667056454698
0,276796531463988
0,269692224859238
0,270334147252036
0,270991928428043
0,270621210212331
0,266703596595784
0,267307557141675
0,263540101413322
0,261623525188253
0,256975390582818
0,263267984116465
0,258825740824919
0,256861087590756
0,255570601127598
0,251063696700102
0,251215470609758
0,254253687056693
0,24785092504805
0,247473981038854
0,248513086350747
0,250602010375627
0,244168858954262
0,244351852715427
0,246113088059145
0,243263592016204
0,24758309801071
0,240298871089325
0,232989871445544
0,240347845381037
0,238298688271987
0,235805641299937
0,233070885715223
0,234862439019644
0,234070928805504
0,234567852695599
0,233766190744809
0,229854707480893
0,227335852862906
0,228427188391386
0,226057773284065
0,227353087977189
0,226384959722892
0,225335844989042
0,229381486880773
0,220380851005831
0,216623874549226
0,22337413502076
0,221457001394748
0,222056782758038
0,221993681305516
0,220876817131493
0,217596564912973
0,219117541899558
0,220920996273658
0,219066285716452
0,216720729146755
0,21948345242082
0,216858190338713
0,214293373424819
0,215330030195562
0,210764784543297
0,207653513339126
0,210198494483906
0,208803586528191
0,209542023985211
0,211889749112192
0,203968308079016
0,201940336381541
0,210196453157731
0,206621784907994
0,207387683111231
0,208844202853735
0,203377163833927
0,20258542717462
0,208612590518275
0,203648503905878
0,19732179597186
0,202936144335707
0,202025965262051
0,20313274322796
0,201743115944387
0,197172115499057
0,203098961857045
0,20420148754067
0,195815347550037
0,194413796502143
0,199166008586663
0,198947739304484
0,199507716217918
0,198297598031291
0,195922708493838
0,198018644221902
0,19784774699895
0,189315499903758
0,194178224477313
0,195993595443295
0,19397848989907
0,19609681090659
0,191979091490672
0,193130414456024
0,190821546435599
0,191568432033241
0,193745485129319
0,188265122210826
0,191220267473127
0,190240507445394
0,185260654677023
0,188639925799489
0,19026059586332
0,190143711811522
0,192092996939163
0,193139533741136
0,189787539489297
0,1877115860288
0,189954738525994
0,189025223701273
0,184626554307197
0,183198082403634
0,184857576883137
0,189292788460133
0,188756645832932
0,187381500842836
0,184167328872746
0,185865333706581
0,183419437242175
0,185279297771121
0,186453655097618
0,183565576336249
0,182265257863605
0,18490873220226
0,184635754080301
0,180517536978824
0,177837176805159
0,183034761157592
0,180990340248189
0,179927191206446
0,17852412616912
0,176333535591513
0,17840651487947
0,177519929481715
0,176515218100103
0,176207933085568
0,173451890781242
0,177713180047871
0,177070360795738
0,175371130990585
0,174266736260875
0,174340927521929
0,175038544982225
0,172356933377336
0,166745684791327
0,169011390021914
0,170616126971117
0,167802145438638
0,167444452675114
0,16966460215732
0,164973918657853
0,166931723926526
0,166218485249976
0,167757664742978
0,163247125570503
0,164782001007583
0,166060415897354
0,161772540374649
0,166134206393368
0,16521463101718
0,162242326975709
0,16107752988835
0,160764893567442
0,163513757103724
0,158169764563791
0,159477330788886
0,161380350241475
0,161303825739284
0,156668515385907
0,156918192130218
0,15982780995623
0,159179152263953
0,155072952102206
0,15847199282947
0,154680753941481
0,15474990100914
0,154501264419482
0,154692935793725
0,1574702478224
0,155157603526291
0,153248305886184
0,154912277202159
0,152522687326157
0,15105439092153
0,151014109153342
0,149166707813778
0,147193715743611
0,150606067143953
0,147101746198468
0,146993809353864
0,14395494220569
0,147903039352834
0,147836019058023
0,146484464064633
0,144317824630238
0,142362949246923
0,141278913115803
0,141377280201681
0,138596469244054
0,14193342630843
0,140474290053699
0,138737718448357
0,137130097942607
0,136610411560212
0,134826478885914
0,139938859365117
0,135760702467139
0,136592833327938
0,138417099742731
0,136964971216499
0,132143959946876
0,135248762673833
0,135721941505813
0,13216664762803
0,13147279827948
0,130746735072397
0,127904967450391
0,130915125395054
0,131741884920277
0,130290718258269
0,130612496033477
0,131395590584087
0,125742284749297
0,126128101223327
0,126764177245568
0,128069307448435
0,127581715091011
0,131385251450505
0,125550978902917
0,123784240469031
0,124619762189829
0,127308422342849
0,126209373992697
0,129026881184581
0,124601282071098
0,121379753734836
0,124044506370825
0,12278734094898
0,119412438943504
0,124400036943868
0,120170190504932
0,121784079939623
0,119894180059107
0,121439000196854
0,120223414554211
0,121013386923591
0,118722053792096
0,117267217223585
0,118744604056347
0,118978743035044
0,117966354459266
0,120876095879594
0,116102467283735
0,120253366145199
0,117539217379452
0,114787397235391
0,115848820546826
0,114305132973262
0,111120170364353
0,113897681376259
0,112955669318528
0,113920313553944
0,112404100607124
0,116342500796091
0,111111243669993
0,111694435829526
0,112454861630505
0,112019340213158
0,10931963200004
0,110794165631557
0,108657438498393
0,109214098660392
0,11169118281621
0,110066873793936
0,10588408575661
0,113073394965351
0,111653429890866
0,108488268641182
0,108410481942996
0,110891000432259
0,111486410005527
0,110203732829581
0,106011578670265
0,110665843562099
0,105562042381086
0,106578196689527
0,104849549357244
0,108787728485705
0,107468460757639
0,106853329428227
0,105430857407642
0,108622684011647
0,106158163198257
0,107347600859075
0,108129936010499
0,108742296605075
0,10497710586123
0,106415286837443
0,104166922378753
0,106931816639483
0,105592136299201
0,10737322762307
0,106117742214991
0,106625517394177
0,104936590155403
0,10739044825007
0,105428822902574
0,103133734632247
0,102263995612462
0,105770094701524
0,104687808920419
0,102307409418704
0,0966908302750007
0,102236622079234
0,100666584389428
0,100470444068884
0,100925300595147
0,101740108173806
0,101119886000566
0,102093369432696
0,100772562816354
0,101177732121539
0,0990992260733993
0,0997681600173663
0,0983929993511313
0,0996232797921251
0,0964559927680372
0,0993879981362137
0,0984835788469714
0,101188956295354
0,0969821617079752
0,0971713094179445
0,0961054282693504
0,0952428284390615
0,0955817022992492
0,0990687768239026
0,0973692814104894
0,0972882655736385
0,0973241879938573
0,0985801784069781
0,0954933788983549
0,0946159157458617
0,09662729621449
0,0968625873688907
0,092753589029889
0,0958375967893106
0,0956940795979159
0,0991494719507793
0,0961908534201052
0,0957481961862743
0,0950947398643215
0,0941617158070432
0,0917509119277178
0,0941214342047682
0,0924168668991728
0,0938783897988211
0,0931555384151057
0,0923943797774109
0,0908884790318437
0,0920598181510217
0,0927294783233807
0,0930432435673418
0,0892452330922772
0,0933149608225692
0,0948568925290731
0,0950830335783566
0,09022753205234
0,0914686626480427
0,0934928656812594
0,0892179237639716
0,0894553750401185
0,0911746563588353
0,0873071733521651
0,0924222567492859
0,0877426582285518
0,0864003092610521
0,088248569359337
0,0853295151283223
0,0858247162637561
0,0873433742318967
0,0880008441548838
0,0858569378558729
0,0848291969915874
0,0849325473834909
0,0819372271935017
0,0850597434509471
0,0862036463938499
0,0851304165723131
0,0808363299634792
0,0854928962169381
0,0820118807207847
0,0833442929834339
0,0809850780255194
0,0831795282957213
0,0807571549494099
0,0811482797418187
0,0769258413328062
0,0824829663513003
0,0816294445435111
0,0822833242940941
0,0794527663423309
0,0831747739028941
0,0794563016357517
0,0821932408953293
0,0790910994675162
0,0793890616634963
0,0794406258102884
0,0800744876656099
0,0764828914005521
0,0784179093341034
0,0794097726003745
0,0783403973469034
0,0765915252329129
0,0784319361308267
0,0763272405341326
0,0787286501242407
0,0741688772901148
0,0787417984638208
0,0771122196161565
0,0784767510761154
0,0745298330598222
0,0761166282482885
0,0760521708921216
0,0779103753022824
0,0748912670088842
0,0753648159036872
0,0738429400637979
0,0802309607531411
0,0745650610742991
0,0739713116028377
0,0745614425325889
0,0766092416867769
0,0734813333456845
0,0752647417197802
0,0710712174092249
0,075501834345913
0,0708779159764865
0,071736207068978
0,0719358027768023
0,0729704380614319
0,0696116630907965
0,0701437165860803
0,0695578912673234
0,0693170280610045
0,0690051065113667
0,0746824485976878
0,0694200950362979
0,0712184996614471
0,066598433943776
0,0674510403032124
0,0663066054783144
0,0693281580037221
0,0665746532240389
0,0704965088643215
0,068923394504825
0,0679542693833521
0,0674462651343523
0,0703852836351495
0,0650743530019782
0,0671991688168581
0,0679526255316954
0,0693231572487447
0,0666442789776303
0,0667281048198388
0,0667884855165092
0,0674034539794066
0,0664101829268428
0,0700193293722908
0,0646785339740194
0,069129480074432
0,064643835888037
0,0663446517164424
0,0667346125960788
0,0705044342731754
0,0694652487012048
0,0730471096122739
0,0717331329885186
0,0736161803715487
0,0742008335064666
0,0743790389990613
0,0734232568351494
0,0776880674272726
0,0781466681830887
0,0819154236680719
0,0768265145819985
0,0813457540240164
0,0760483867051815
0,0758035973021888
0,0719649925413308
0,0758930616986286
0,0735357634990725
0,0803509614697296
0,0757023330493085
0,0725702904397028
0,0679017250805169
0,0766332114358171
0,0748786310950067
0,0745986932280301
0,0759167784963102
0,0827133652540099
0,0669380856730877
0,0786033880741974
0,0679983204395458
0,0719092229115678
0,0711581163852137
0,0724932263984233
0,0714232904525261
0,0746037585401052
0,0718087655776482
0,0761656854976055
0,0637994891092834
0,0640484525106081
0,0683353384394143
0,0697001301608879
0,068225074448921
0,0675539506929656
0,0695595949374097
0,0669112001632396
0,0680582377054136
0,060512812011213
0,0695426636184701
0,0638419603533865
0,0703405896623263
0,0621459279997203
0,0751705762740341
0,059071297088784
0,0740326236012468
0,0559519744173986
0,079944695238518
0,052617492993787
0,0886666114592393
0,0526853488829278
0,0898708334094494
0,0494672792448439
0,0939693890682136
0,0445676098137144
0,103328868172325
0,0380682885745865
0,103955308384274
0,0407454166028423
0,11094927425753
0,0376015158811957
0,107401894148361
0,0448795901462204
0,0930901307984228
0,0500784773549125
0,0862388399552993
0,061438828207154
0,0718017167599233
0,0742878217259668
0,0631445859387816
0,0776680212655372
0,0572005150864158
0,0793523782524616
0,0561627446493337
0,0741459089309338
0,0625724246036377
0,0673576946133281
0,0654085539345914
0,0638063205590224
0,0689601325356557
0,0580278040339085
0,0639567500460085
0,0591926559374917
0,060776696570054
0,0656836718559919
0,0569672079534871
0,0592593298645664
0,0580672978978957
0,058651403604018
0,0586334643346039
0,0612897420284007
0,0592364217203069
0,0597434395293759
0,0588220007977626
0,056929856194811
0,056632513685683
0,0577773851252899
0,0572971582358921
0,0547124536371065
0,0575442924825078
0,0552129045589062
0,0557550347214227
0,0600208098379676
0,0550252644986172
0,0575114805968897
0,0589022715087137
0,0571679977486089
0,0586293372940176
0,0568998902849547
0,0570064257106856
0,0566950578822813
0,0586373026957744
0,0607615685944582
0,0591178237952991
0,06001914410738
0,0591131828522939
0,0565529531621715
0,0563675985580571
0,0587588033120127
0,0586921143443311
0,0578953615284187
0,0572885988267288
0,0567374296501394
0,0569361165929006
0,0569571979660863
0,0555382078973933
0,0581806300165678
0,0589157532740817
0,0589228984740544
0,0570333422526001
0,0577975359661195
0,0556834589031984
0,0590698662325537
0,0543761150479751
0,0560297160902013
0,0557330827585835
0,0563057394120256
0,0563561990232831
0,0581505275719788
0,0526961749106634
0,0575551820130632
0,0561670901279497
0,0563819055672133
0,0586379360611524
0,0567028325703881
0,0546624541975935
0,0557139142991336
0,0555622734488213
0,0555927527405791
0,056310020103041
0,0556857967753806
0,0556434877953969
0,0559715291834294
0,0541263083978204
0,0553038459212922
0,0540983085259702
0,0547721317017377
0,0554982769415951
0,0552838682869492
0,053242321113846
0,0565267244880253
0,056777382441783
0,0573837479869547
0,0538081602757245
0,0566066753138089
0,0579207646599923
0,0593198194819147
0,0545996526393331
0,0575777758178759
0,057010642271552
0,0580046518211687
0,0560408781674607
0,0597420942035415
0,0578791476865485
0,0565214297204923
0,0580074485596558
0,0586647910248038
0,0550937185543182
0,0581569589987106
0,0588821620315821
0,0564054461269318
0,0550275628192057
0,0572132253969706
0,0569663258607131
0,058093750408476
0,0556358499320652
0,0569781893760024
0,0568498725246106
0,0582626804529911
0,0565025434639199
0,0583823134600694
0,0580588588232166
0,0578987334964994
0,0566161075768614
0,0552363132095656
0,0593618027962688
0,0579527147410885
0,0563476284636757
0,0582673917034025
0,0564994862822936
0,0581583480537509
0,0558401812108478
0,0577434188909541
0,0568245243204011
0,0566009063197923
0,0568147793539125
0,0575268938224874
0,0576942835326247
0,0581720835282291
0,0559638956992834
0,0581388052214447
0,0565237214385651
0,0590208272292502
0,0565583262308946
0,0591379654224759
0,0570559442200329
0,0564871203938166
0,0556807711644929
0,0579239066001351
0,0559607508170266
0,0605441470774946
0,0566139230058408
0,0596832963098508
0,0567083748170289
0,0600191927969681
0,0579191290424865
0,0571607545887729
0,0572021789758575
0,0578946259888724
0,0578383337578049
0,0576267241862498
0,0578758200130155
0,059807964915774
0,0576331965972723
0,0606760256684259
0,0570986940262006
0,0573273318899472
0,0569826967655622
0,0596377146310478
0,0596134621436107
0,060149875404169
0,0554077605213091
0,0588250541912891
0,0578378354113178
0,0583246425383447
0,0584278736036308
0,0581631315058774
0,05814903682343
0,0593545366144449
0,0565036169374039
0,0569990798209468
0,057295203113372
0,0595015394188762
0,0563969347046498
0,0585760041776936
0,0575855466047481
0,0580548482966683
0,0569938968295657
0,0581598055646072
0,057069257254688
0,0575418742282866
0,0570036863680308
0,0595720621073139
0,0564817424881006
0,0572640578817618
0,0565500129599946
0,0569579667119676
0,0545228128309051
0,0565102785869452
0,0533233154488274
0,0543470908955951
0,0542301028655983
0,0564708073916938
0,0550816273263518
0,053942626158559
0,056149139836812
0,0544080699591869
0,0561785549982741
0,0553228075469321
0,0578889646787242
0,0570841805462908
0,0535123903548667
0,0571967469387663
0,0551282201516075
0,0554250338203088
0,0542238537158257
0,0553393334988083
0,0530959824532524
0,0564586702306603
0,0558692091882748
0,0558788012630844
0,0552954824027958
0,0566899431787538
0,0563770180753283
0,0544765751833287
0,0551125005121855
0,0557732958651783
0,0549223206421082
0,0533535532702084
0,0533924515845807
0,0547285340197028
0,0544788808632334
0,057857578778419
0,0536660550726306
0,0534809220086929
0,0531480412215711
0,0539896589679893
0,0566959735692922
0,0561626322268966
0,0529065853727965
0,0536920986481734
0,0527915965629552
0,054657483062027
0,0528540567523941
0,0562571467534861
0,0544677767809209
0,0559503240284936
0,0519155308138957
0,0526187554386938
0,0515879791273448
0,0546734572038913
0,0526665738911123
0,054086163074932
0,0524849445519154
0,0528844995914488
0,0532022681623692
0,0545553164296586
0,0527663890319127
0,0519698813015995
0,0515939747339769
0,0486884496910627
0,0513551583507701
0,0561347227376123
0,0523915826400384
0,0578509634509998
0,0565813996880873
0,0529358157362316
0,0523402036079951
0,0526151772323682
0,0531486712774082
0,053358892448621
0,0519805261300187
0,0526687358671073
0,0528303222720186
0,054451869055943
0,0536832356625968
0,054963341323621
0,0506293661054022
0,0509681724863655
0,0513527920751604
0,0526483840437489
0,0502781607499742
0,0507611331190105
0,0529388531147208
0,0530722464362482
0,0511694447797442
0,0523462801867957
0,0517187119770826
0,0508082755994484
0,0535514252301423
0,0556791340759605
0,0513018810535427
0,0515856923639621
0,0514937702737624
0,0529162800600956
0,049791639734856
0,0507260886358213
0,0503664273166899
0,0507489768911933
0,0527946420776588
0,0525558192253749
0,0480281448940532
0,0481238384462273
0,0493245784209727
0,0498552522513303
0,0490098636382007
0,0509282148498316
0,0499656760823841
0,0503174363287338
0,0482322249067639
0,0516972071658826
0,0478564381334064
0,0493648232346703
0,0499488108482616
0,0524520984482593
0,0497035707125466
0,0611848803815215
0,0496753123591379
0,0489475053339215
0,047908797002143
0,0466072548866148
0,0456397190485674
0,0479439211649925
0,0464033339539524
0,0486596302219943
0,0480241095881761
0,0488671797237763
0,0443107628212853
0,0469087607881241
0,0450079557170851
0,0463533663226925
0,0445719032422146
0,0455592247700455
0,044653532850889
0,0449518706652101
0,0478084767777134
0,0475127107839076
0,0422515899829183
0,0468099716550117
0,0452048220253707
0,0480647052071187
0,0468957364991
0,0595087335463134
0,0636965373996307
0,0474934452485461
0,0482511541364305
0,0509242750840545
0,0497050605211949
0,0425131429019347
0,0468516022805255
0,0462556771123561
0,0440099566014237
0,0467094952572675
0,0463482335921348
0,0430989725588612
0,0469484163020745
0,0447846335991097
0,0442052895105625
0,0442263482519083
0,0428813798322578
0,0447842831427046
0,0430536779665334
0,044938822399016
0,0450998197617111
0,0464367002792671
0,0444015514826413
0,0456488061665054
0,0448138377010153
0,0438136198084973
0,0557279858187029
0,0513856187649296
0,0474043288827977
0,0444026526327722
0,0446472423457452
0,0414335915067807
0,0451090472731613
0,0443593483885095
0,0438437745548044
0,0443590784917623
0,0420310918021113
0,0445300265966811
0,0416494215849987
0,0457742523125176
0,0481184130278811
0,0413595796409065
0,0429848579129739
0,0413166398122786
0,0432421446001209
0,0410307004763969
0,0427142634742128
0,0415866324455614
0,0433892249538704
0,0485145198285846
0,0465709695863964
0,0409125362007052
0,0572415242349239
0,0744248970963254
0,0445637722602007
0,0466737702445615
0,0444411127158276
0,0428213146554624
0,0422854705449882
0,0434492618994656
0,0390757241551253
0,0433395299488606
0,039871430382677
0,043494834056339
0,0404996390814274
0,0444312838079887
0,0424941203885915
0,041311269396955
0,0398183097945006
0,0420597042701106
0,0395090335062381
0,0437050269509092
0,04112744366497
0,0512454585376848
0,0661846618553809
0,0515475206678783
0,0411934885130853
0,0431979887438409
0,043059231437324
0,0770744849346315
0,0520721309445268
0,0414827991180431
0,0431929638525618
0,0421042781179117
0,0415985153859955
0,0421396583513743
0,0393972542951138
0,048417475749483
0,054721563204989
0,0441506749571186
0,048152837351023
0,043829206371171
0,0425508033468392
0,0405857825942145
0,042347376937317
0,0401430892202766
0,0411552344794869
0,0424204807677886
0,0372637472548579
0,0386529395229674
0,0422551088982757
0,0411556074429676
0,0375134361069458
0,0493742572838826
0,0538446593202682
0,0419141521820018
0,0412735586809279
0,0426703094560252
0,0409584859911732
0,058268073889174
0,0701826713057464
0,0392035296300359
0,0455256767957782
0,04012030803945
0,0428145693620286
0,0415885010498524
0,0429875896839754
0,0396574046740225
0,0395950604514117
0,0391617322108359
0,0413828576717806
0,0428077141098094
0,0395239393889426
0,0398712138121559
0,0409233046329097
0,0397397575375948
0,0424630061662965
0,0422332214414682
0,0402406131374283
0,0446767530552383
0,0474477729874965
0,0762866280169754
0,0788298273327647
0,0631686968542029
0,0618427064640694
0,0494792933697081
0,0456208951428791
0,0441515684556169
0,0418881601008685
0,0427081587148064
0,0456455180547751
0,0396594511375927
0,043704595604459
0,0447276866340284
0,041896484434997
0,0391325130890699
0,0396661323374452
0,0402477300360617
0,0410821189309619
0,0384322358294138
0,0440555107570419
0,0387252684288044
0,0408893922038876
0,0400839562553001
0,0551699938354899
0,0547194247663657
0,0460096351383167
0,0513846186810611
0,0890540523166664
0,0776366312757175
0,0523648392633491
0,0526993657570946
0,0425861427892324
0,0438450822705001
0,0403723297281843
0,0461447062537036
0,0523460736456171
0,0458274844435569
0,0403179714719619
0,041410247219184
0,04535643365959
0,0408365021019621
0,0403508120025353
0,0713032866537201
0,0915595662647932
0,060736586897064
0,0486883688095728
0,0423648180003188
0,061737978072824
0,085194935310439
0,0491028956822122
0,0516903345429451
0,0462437981942516
0,0413130797342871
0,0456903120801017
0,0405144640804478
0,0441535512447147
0,0544198695614789
0,0472616401904075
0,0418329136073519
0,0437412163339558
0,0421737748116563
0,0506245667475346
0,0509853058136889
0,0605224469717816
0,0602998469477843
0,0446201101567033
0,0537445132740789
0,0538841622568387
0,0437895516715596
0,047276823497443
0,0449626386389228
0,0488046841581362
0,062454533747255
0,0677985469810006
0,0578524619096826
0,0723856427634237
0,0645850151338054
0,0474715362576942
0,0538910390837909
0,0646396712205329
0,0580708102055643
0,0484051950256901
0,0712161948312859
0,0958556713087281
0,0806967097368695
0,0780832699556273
0,053023223137815
0,0505330472185685
0,0483064713781277
0,0434375852646192
0,0532699748791842
0,072320341826887
0,0580741876415761
0,0462458875583063
0,0497515313839789
0,0598519383005273
0,0728243979953766
0,0568387771887373
0,0553449283942454
0,0485678160911706
0,0557063420269385
0,0717302370381861
0,0581767137556564
0,0572879017613311
0,104133293129834
0,0972378251963345
0,0880606510241107
0,0616761696075123
0,0666196230572419
0,0950282316144836
0,0675982788160736
0,0538668959334404
0,054151808607746
0,052256313289196
0,0510646009661635
0,0736527992686079
0,107172101116805
0,06830720462122
0,0568648767868847
0,061305936619139
0,0673038986871294
0,0936522692917485
0,0765047059525056
0,0554330944864723
0,0600314964093426
0,0554266820778333
0,0724635483762429
0,117246707727334
0,0999582552483759
0,083928504635885
0,108493137026667
0,0927418967621079
0,0886791826983924
0,0762819370502329
0,0718842059220383
0,0944286302179057
0,101886675644001
0,0681627161918207
0,0638394166793845
0,0977257477372266
0,0976528219529085
0,0753846118617047
0,0706812774368229
0,0682053140410612
0,0793273647050979
0,141590243999267
0,163482362017053
0,113966907746979
0,0816683078317337
0,0932702693785336
0,11334132353441
0,0870229841474248
0,0714225338810863
0,0755041046040318
0,0751102729440038
0,0726400536321375
0,0828599899593899
0,0948470523917726
0,0838415129781843
0,0846523369995885
0,0823010733937362
0,0929830624420657
0,136347276459645
0,185394643721636
0,133444495466537
0,126787392050494
0,132050794794049
0,130193350864978
0,106486375890056
0,0987602009585432
0,093193879168107
0,10881851929627
0,104211395205619
0,097388575644513
0,110656567905069
0,135616727356968
0,12401689367477
0,142835673601746
0,134175146530128
0,117802721565503
0,114538460676142
0,180765716035219
0,286441518768153
0,181954818037028
0,133490886168009
0,155069089951319
0,185898376099284
0,219978608646171
0,160159159344585
0,138831372268176
0,140318902784197
0,137482085591896
0,154306832151906
0,168880543316667
0,173307684921109
0,185128857649668
0,163912368344523
0,174770313402342
0,215932104087647
0,328617666556251
0,28320023601988
0,211707123071305
0,197653310301682
0,228741919392749
0,22079134582116
0,199768427476391
0,202873065530691
0,205897789027855
0,251471014052934
0,278641720904441
0,241054361249826
0,217983122807709
0,252542978277009
0,249835215829788
0,266001547745406
0,294036508626321
0,304827462328407
0,261821197383058
0,260751136282085
0,265879182793694
0,260569749370427
0,27843628317375
0,310223247675147
0,308085471056686
0,28970090471429
0,289008664741684
0,290072154356642
0,292995824429414
0,305635446926042
0,300339547526636
0,324629281421834
0,360943788342236
0,44998495335285
0,512840474311018
0,369003759888735
0,325910740729272
0,315506309903373
0,334779373528389
0,368467182094028
0,38806786539812
0,399213036740581
0,364477859523888
0,327536526333891
0,320256517908152
0,328933659865418
0,31592313492547
0,326370451343651
0,316397870221492
0,335999325392224
0,346491353621597
0,348803457150901
0,411237468210887
0,410749659911483
0,330602387811738
0,309953968862984
0,326794661523536
0,315031284572041
0,317054578261738
0,303654510094876
0,34525556799359
0,331309014123773
0,318015501439854
0,292154281573344
0,311254482550494
0,339041332335182
0,33661255999253
0,302106975569482
0,29429592518817
0,294832046539686
0,285922844135242
0,291231332976693
0,339468681992782
0,334573201792173
0,302727297087378
0,266428807491241
0,278732559080739
0,268585196510355
0,275898308857714
0,25957696069955
0,279805914164134
0,266671595562728
0,269942955328733
0,266867123098055
0,267147657391687
0,253402159946263
0,262136541239776
0,260945738046728
0,263466613038163
0,256505522348511
0,261629809954535
0,250122146922078
0,251570762243811
0,250084441807183
0,258490467799924
0,250746405409467
0,263582080347342
0,255912677311576
0,255103608879468
0,249417317917505
0,252314597024965
0,251842242327377
0,247741310829362
0,24265960139694
0,245557599095926
0,242828602637111
0,240262320411287
0,240640773987374
0,243388705662569
0,244885222136873
0,241581237297195
0,244774552348791
0,242486245279476
0,246901382139125
0,241024988131753
0,275459067504454
0,321346942673465
0,276947932044443
0,247638870411086
0,232977345674221
0,246794594088445
0,221581716293468
0,250874221375046
0,293442045731002
0,279347869896898
0,235663528482149
0,228916133350635
0,22701258640372
0,25996603611294
0,231794415897992
0,237749627203977
0,214129161538307
0,245709664641311
0,294670842611124
0,352728745492824
0,385350213351375
0,343101953234895
0,255716317868775
0,221088523480128
0,281659181550557
0,251893565143264
0,238958066592463
0,203677505025235
0,225969607241662
0,267524166269412
0,242318126331596
0,219438200797265
0,204422539503561
0,211107240726476
0,256405412761564
0,262889522920278
0,245238300386958
0,273914830793731
0,262833851667575
0,267419673689839
0,298739403289625
0,343280721204947
0,249531800088471
0,207764831369734
0,203273016110385
0,202642866186698
0,245801163321166
0,253994055665268
0,228798650485246
0,213918988764775
0,188550864582516
0,19371527834256
0,204855095887536
0,237970767353095
0,19448108871497
0,243540419300179
0,220088097481888
0,209737301612171
0,199323201453399
0,245200718472055
0,260661755007183
0,272691152469293
0,198275887486758
0,185566991986513
0,255148889835533
0,242189389371278
0,22127686976628
0,193752159030958
0,165142943122401
0,198241360166563
0,193494361102892
0,17971592663797
0,200384740454929
0,213648876374652
0,250034963819219
0,28394402112587
0,314456386326794
0,249612008976648
0,177174503529883
0,159234601527748
0,151245735215816
0,174913353961289
0,149356972862426
0,169260627913801
0,200925603800718
0,165579029927002
0,192350080405833
0,200001157641344
0,178957846432028
0,158846668942053
0,158261144786813
0,157627647194142
0,179801371768098
0,22928990603788
0,241210400506148
0,189231347544296
0,205592667647095
0,195142729579379
0,190216592690641
0,164982035479435
0,177709927141757
0,167122083396353
0,188512503071681
0,196132055016559
0,193421533054161
0,188626734020348
0,19288390394481
0,193051044612272
0,275688380227507
0,217002695228891
0,238352522299261
0,244051093452356
0,303174128137339
0,289588531959897
0,251796358814511
0,237190412547448
0,228145490835098
0,240340043735957
0,240543158937489
0,240015806628099
0,288831810634634
0,27886025746737
0,270541602560985
0,249173991862382
0,268159041841022
0,251584623479812
0,288067256402073
0,31074656110831
0,338353071829116
0,392022646004058
0,346690654410517
0,331343086652153
0,275461650119804
0,28510177890839
0,293116517267223
0,292284087449335
0,282880566573438
0,278413537787169
0,314996872010357
0,319206390134151
0,299348280883412
0,292671396113043
0,294694064711602
0,296685030847449
0,293288094640865
0,303068788869683
0,30039531908411
0,304365593031387
0,310490344069925
0,297015930875055
0,353448070892367
0,401899699480234
0,346255972060039
0,3201927889936
0,323569486748375
0,34178962009459
0,32029218209613
0,335833321034817
0,360603649193832
0,347447141615144
0,340337490879799
0,335903018794904
0,344020838259936
0,332069673121129
0,384386572874011
0,362266039512769
0,356666292129874
0,353800910797591
0,347020961144621
0,441304433099648
0,402354239589552
0,411648724751795
0,372513679734816
0,377785430691733
0,355889850148136
0,368086739055221
0,351934023331907
0,375031136382308
0,361795873814656
0,372839656092972
0,365708418228344
0,361097591179708
0,361665046811247
0,354990373137026
0,383426571700399
0,392050416390104
0,369985903789289
0,362615403202627
0,362395488344385
0,359449313512902
0,36983103523632
0,41037001232145
0,390030540892291
0,380648633961464
0,360470571195621
0,395815469756755
0,408886606529589
0,386570407802162
0,363077851578761
0,362613999167646
0,360900491454558
0,375560960401178
0,351963943315091
0,396956408364491
0,394775257095
0,3882117811691
0,359179217044746
0,376112996518593
0,362113208960383
0,373111663048046
0,364402404651704
0,381352034478739
0,37193833247642
0,390106264547459
0,378694541434384
0,381011647731461
0,378050816702573
0,400638617204144
0,416226791660484
0,40350125952875
0,372140395485403
0,378561013026803
0,364141295916196
0,377499335722777
0,375225571240296
0,378268658504648
0,354196244363188
0,365231169671606
0,335369054436941
0,387667754572773
0,384192863614639
0,367962697125382
0,365240183659722
0,347241923851693
0,338401156341321
0,334186895935248
0,332651782600904
0,325360203864987
0,332513177213347
0,334081575276677
0,321986026194514
0,323770135222376
0,321711730384235
0,320490856248515
0,319201965652655
0,32499438570707
0,316985466893308
0,322553595406698
0,318537771118194
0,319630899730963
0,312439554673895
0,321887415847813
0,306848463797325
0,322968094420368
0,33892774836258
0,349465836226864
0,344702037097705
0,320180909659122
0,335384364874386
0,320750768650074
0,312815930222434
0,310184976798778
0,317315401949045
0,309407370540286
0,311314292388102
0,310513561921833
0,312709510623328
0,307251365221229
0,311242079969907
0,312375095752425
0,31192562092062
0,308968086409992
0,310319059854253
0,310985320317492
0,308566038637348
0,31528593232341
0,313894856752114
0,325261855514593
0,313234265660503
0,321990143169034
0,312782033458124
0,320075429164915
0,316553474574327
0,315282576014394
0,32088910066358
0,313858250402566
0,311137404322668
0,307016787788121
0,313123707946946
0,316285013609745
0,307698422454564
0,312075954095348
0,305321194569479
0,304476079040123
0,297245542755376
0,3004522966164
0,297883019006441
0,297129016431088
0,291873214675047
0,294482423511898
0,288626072810571
0,290779772224333
0,284710719191387
0,286453132517544
0,277477377846636
0,279231178025885
0,2792996440685
0,275494500544333
0,272497669689883
0,27566969160515
0,272250860424387
0,276283529755954
0,267236013257554
0,268643253328815
0,267606617503127
0,2678411094452
0,263002269613601
0,266492020111263
0,267392069898608
0,269179269325399
0,266462167885301
0,267113553658394
0,266489379610542
0,268562808831055
0,265548219506844
0,27270879028103
0,268457696176433
0,276148772663576
0,27589049699132
0,277926945838992
0,276229686913431
0,278577121280736
0,280689774876172
0,283067379283832
0,277653883510922
0,281992239118485
0,284408175447446
0,289650732593946
0,281362955520333
0,282463064328168
0,287651071082112
0,289417714732198
0,287720266574201
0,287473782840355
0,289848978789728
0,287226042651245
0,285658047606908
0,289266151218491
0,284401614499641
0,285712145672098
0,282025260648462
0,286581224933764
0,280707354108032
0,281361866123998
0,278786139680304
0,280463864446058
0,279003873798906
0,285979961402348
0,280289537846983
0,278728390982641
0,276488218866968
0,279020430787698
0,276771866482963
0,275524570341035
0,271670089702658
0,273331088159675
0,272702142957646
0,272838933763367
0,271351238595886
0,270817540159548
0,270797089858673
0,270260972030478
0,266257353040558
0,267649784777447
0,267264816163542
0,266018559660752
0,263746618674424
0,268171582354324
0,264778426790736
0,264517070351925
0,262406205596735
0,263503570274913
0,25927294496288
0,260474141329916
0,257991937505576
0,25777532855961
0,255441737453569
0,257228995270334
0,252545382885681
0,251691323168928
0,248271027440961
0,249451159867101
0,24513268230696
0,245310579480335
0,244034066364639
0,241779311865563
0,235259691813225
0,236499220469096
0,234571743618238
0,235430068142332
0,235110896346465
0,23755961525917
0,233848297772046
0,235896935105275
0,22973959539949
0,231597085908106
0,230666378060943
0,233205917501151
0,228224416814063
0,229020150111821
0,22712642450495
0,225677047098767
0,222466719424369
0,220711040574254
0,221749101686376
0,216347990743148
0,212246828658536
0,209050110366621
0,209630200266134
0,211695834480378
0,208540557672457
0,212342234161851
0,213184089188607
0,218247474700594
0,220049692170379
0,226027699463242
0,231537738456007
0,238663509109252
0,24395034417827
0,256376362650025
0,263761489506943
0,274959706690836
0,287159944529469
0,294880472236643
0,306925895580399
0,316959823777277
0,326821398593571
0,335562321473442
0,349102168373706
0,356142198997905
0,368786991023559
0,376415682720804
0,384415241269044
0,399631845179889
0,403388701154048
0,406620358988295
0,41390569260818
0,424495825555673
0,429563413027831
0,435782528077831
0,438229179922003
0,448648630037772
0,451598357009277
0,454681667829392
0,462420463984014
0,463501179061892
0,460590100082387
0,46805478601069
0,467117059432633
0,472619493160832
0,473467922944706
0,476985066588944
0,472976803524851
0,475072367314625
0,474960809171278
0,477653109520171
0,484113100580623
0,480312930675791
0,487442638599099
0,491110261306456
0,489425358802285
0,495516442768773
0,498816718466358
0,499981644644066
0,506369047356203
0,510065189171232
0,519560790136657
0,522517281553655
0,527706247567762
0,528970601373405
0,536133050506133
0,541324765709945
0,543619995069393
0,556796412151641
0,559238388964226
0,570783272613117
0,577178219736296
0,593808964983638
0,595296508831666
0,598789690800449
0,609710731099894
0,620999696727125
0,617706674673832
0,633033595229205
0,636128760681138
0,631294718748693
0,629403534058967
0,639759146800631
0,635320409149535
0,638561704557061
0,628052129651875
0,624601653520188
0,620432517742695
0,622839666944386
0,616258962158588
0,615610563834657
0,623775518627597
0,622802970636848
0,623875826206881
0,648372307984567
0,645414654068959
0,657634102503614
0,669314117764732
0,685003305702618
0,697753594874323
0,71323298462547
0,726560630604623
0,738378897576414
0,742700716012939
0,764548677712442
0,769806949316674
0,784902386151898
0,795070463851553
0,800340345151156
0,820819583838617
0,829181624331076
0,825784567383395
0,859651929700435
0,880609997331359
0,876760071105135
0,890861817812485
0,907793706091677
0,922173047581938
0,94307372532495
0,952036246709055
0,968829612528561
0,989526328194372
0,98842266867686
1,01021946595702
1,04166973441388
1,04509821449453
1,06862815861962
1,06388409134729
1,07607549487239
1,08694153623796
1,0848782448419
1,08341748049358
1,07482787861796
1,09356029900882
1,10677047017764
1,09564771169222
1,07394791857776
1,07103381623359
1,07702477615983
1,05320245640998
1,06386675625936
1,04280050915477
1,03691287045752
1,04254623838054
1,06713049311144
1,0380565726278
1,04903669798547
1,05068034036925
1,08699051898105
1,08636087870216
1,08616550181444
1,07880731143063
1,1076235375489
1,10005142688099
1,11420691676297
1,10473070198863
1,10213584446029
1,13717887367136
1,16226462427207
1,12675670972106
1,14084366769046
1,11511286162832
1,14552323560047
1,14144621729168
1,13165806635281
1,13183651230045
1,14836075513345
1,12242048077988
1,179224377019
1,11905812154021
1,1484821838396
1,13374811050625
1,14941160076209
1,13062880503406
1,13113041640213
1,11040724274145
1,13236944109383
1,10173747969853
1,08344094878407
1,08697124920061
1,08178212147025
1,0815347725315
1,05625590338279
1,06936753737494
1,05533466786215
1,02556708231931
1,00643975547806
0,989300862066427
0,969771115977709
0,935083008851368
0,920313571575041
0,897641242378319
0,871277029465777
0,83416746564695
0,813931686394823
0,767500425875121
0,732224442289718
0,711698670816188
0,684748857842237
0,65447280717895
0,646789892083499
0,620939815895909
0,614176267732767
0,597128889475994
0,593229992773128
0,578391619411836
0,579820322067932
0,571075370095095
0,563720966036155
0,564090355767769
0,550570370227261
0,547869927026114
0,54913060886357
0,545517666344895
0,534248438121402
0,523407495865211
0,52511577597371
0,516462075410936
0,506064641210185
0,494776785672233
0,487511246213872
0,479698383256997
0,470317828730198
0,448877872941232
0,444905781842267
0,425646132652136
0,409625155298355
0,392380043850537
0,386118918168585
0,364003919354307
0,347979100196599
0,338827564683938
0,326049608232361
0,310752067762705
0,294209913901396
0,286440680350108
0,269030121610083
0,260668668508577
0,251649564811941
0,246566961140929
0,23862199887525
0,226852476012356
0,225031653882446
0,217122173717736
0,21326321732984
0,207924721355692
0,205187104423698
0,203758056169456
0,200870825714238
0,19945785446945
0,195644306865703
0,197601560024517
0,1963585188765
0,1938266235867
0,194631331213975
0,196059002955889
0,196573588827174
0,20035801800623
0,202607579200103
0,203929039867399
0,2025689497139
0,202533271848812
0,202078623254065
0,198309574305959
0,200842375998918
0,198149613267333
0,197298744824932
0,19514724574045
0,191097110654509
0,190973260344193
0,188011549793218
0,183021302548148
0,18556714858491
0,183908102151491
0,180428672577016
0,175139476038826
0,18006692033599
0,178746471753691
0,180695144873016
0,181926073268085
0,181437996879581
0,182203548203453
0,183325455606329
0,188956608066996
0,190535740419119
0,197341372257096
0,195942400114577
0,198514596968861
0,195596043236135
0,201008207168738
0,204154918036965
0,202814167369073
0,208803868098745
0,208712986286513
0,211224190359942
0,213348638280409
0,210476149697282
0,210996903012143
0,21286633999667
0,215203315049224
0,217898038426534
0,215106193276797
0,21934125617539
0,220833150976392
0,21648440127652
0,224600947003116
0,227471163358305
0,226994596563559
0,237138869059018
0,244175964948303
0,241357612494624
0,25028128881797
0,266758195222333
0,272976575675299
0,279980145219145
0,289713782284568
0,297205539547838
0,305012285754842
0,300239515227666
0,30665455799719
0,300625052508446
0,303587774794998
0,30202971293705
0,287575965900355
0,286066099345001
0,29093857049291
0,276451309952438
0,276823623675704
0,265743779448737
0,266097969132557
0,260341365897781
0,266813537034727
0,262838015510965
0,266455301061981
0,265960136483107
0,268597774385439
0,268673510813472
0,261139816031216
0,264576395316236
0,266190625392802
0,266443850651119
0,271580710496061
0,260895001300991
0,25551751036348
0,249271679884135
0,243658712602611
0,234738295859556
0,239194406919384
0,236396817526268
0,241517295379336
0,232661575843033
0,234078403620022
0,222844180338747
0,23311500998647
0,226817499909187
0,221016130175355
0,218595671648085
0,222563485178017
0,219214990343851
0,22068652034784
0,204324405029546
0,213609986610776
0,21332296636646
0,214000068275788
0,209041094080724
0,21399661689675
0,19950058723171
0,204091493765623
0,205237557771838
0,209493618480551
0,200278049345057
0,195634676266991
0,194946224327778
0,199095259369413
0,200326726662291
0,208771081721191
0,189677613892888
0,193762638460698
0,196853831783133
0,200726003251573
0,195367527715471
0,196953198270829
0,18094750707582
0,198385675497742
0,187455879595516
0,191561837198482
0,182711807979903
0,185388874942837
0,189413195876457
0,187155796174165
0,180999448649755
0,203656747230806
0,201839899942607
0,201245589570061
0,197206064280898
0,198234715328924
0,192807750191116
0,197635889612177
0,202668433883297
0,212245634766535
0,197903935134863
0,204364772187123
0,205396423187379
0,213441218561026
0,209212559555125
0,209893608904642
0,214200843730575
0,216721571404953
0,205286156384959
0,236267731206973
0,228678750468539
0,227102525929016
0,223934633268075
0,238079974287838
0,223474637353898
0,236264038597082
0,231924902867297
0,241724092187075
0,240353609353966
0,240447366047147
0,255007559246523
0,264775996367237
0,252623616362812
0,278582511850281
0,27598549679667
0,29133612945565
0,286567934729001
0,308671433764044
0,307247779545677
0,316280001841864
0,345850850108089
0,357140612817556
0,358662935558778
0,361426200808876
0,367095596030998
0,39036849690293
0,388008139516349
0,380404930603636
0,363349282256197
0,367833670081935
0,369660485911775
0,37095949105407
0,350436953065885
0,351717705055439
0,353780283143467
0,350952409340792
0,358991592410147
0,356520550303749
0,343737410096293
0,339142006300351
0,335765392043808
0,343637252655768
0,324098907695175
0,348868251198758
0,325602960788776
0,333932488047771
0,328340651039345
0,344743292371394
0,331314492995036
0,319833481975793
0,300932387094569
0,356108375851468
0,308002681614246
0,298448406972979
0,302514127743003
0,317211214013024
0,288374602485391
0,31047486608388
0,302459365121381
0,283351354210412
0,289354965411819
0,315130527415042
0,302219715350572
0,321920738809602
0,292635833479732
0,313104115532849
0,297797614356387
0,300550724805061
0,301190285944996
0,32458245398916
0,313632018994449
0,310544376001243
0,31034179715977
0,339760890720773
0,323986939100738
0,318135365313654
0,296915117014123
0,307268622167519
0,344994925097465
0,332506490213605
0,333704996481262
0,347646997843566
0,326937407148874
0,311784495986181
0,323626284419271
0,334318485473901
0,315645798616164
0,319870635767963
0,303120649648425
0,344518562855552
0,319589408971811
0,328725009820436
0,306413802812193
0,339773726975611
0,330513607283089
0,358497659416181
0,351257414086627
0,376669643419303
0,367456437145553
0,381281668545747
0,390950989562759
0,418821525513417
0,409989585499556
0,412777687315384
0,356900638198306
0,413001828897248
0,38848433850892
0,413642893815209
0,358099437117419
0,464472144871579
0,464505659855237
0,479319074369126
0,441450532087935
0,450883211315973
0,437031003023476
0,459866886655016
0,473384238226384
0,511358938580158
0,43289484887178
0,463244581010829
0,451227712844132
0,449990605634279
0,455364762514519
0,44715623152402
0,432269656142727
0,430672104084398
0,452297034894097
0,396026094824688
0,428256261749291
0,513628975533066
0,40398465211464
0,450104022127222
0,434233166820036
0,432272679933084
0,392969538846387
0,383694611797793
0,442854328413019
0,381915395476029
0,263274134803604
0,392928071354119
0,455419200650478
0,475692475209368
0,508807620767554
0,494283101581121
0,473887102358395
0,492843458994887
0,450675416358249
0,427809735368628
0,389690246286592
0,454089554906138
0,524077001931771
0,137695739897136
0,481465184380166
0,518809188978571
0,399937425124934
0,645405499284306
0,313821714486027
0,38689615056704
0,294556369609037
0,380351848955057
0,452815196017425
0,407316040091983
0,386658476248761
0,378479633037607
0,483739930524745
0,561992035784471
0,305900993998246
0,149298948676989
0,437945318661352
0,278748468225716
0,413282040816236
