3596
4000,36533379555
650,420452594757
1
2
2
0,11777603304907
0,109108361263321
0,121988827363287
0,103636811905982
0,118174646271531
0,111720941535043
0,121937567790015
0,101325710463511
0,121840080015973
0,114654697932706
0,122386207663475
0,108043496728471
0,122455411739278
0,100146837950813
0,115430601358157
0,112154721533577
0,114696464491975
0,112232561881077
0,122881904889764
0,0986922623552916
0,109850285070971
0,106855250679633
0,114513867539293
0,103415248330923
0,115704163459569
0,110031276828466
0,123294316131586
0,106084819187015
0,119478555683853
0,112709356558261
0,116147698202826
0,114156159518292
0,118455363567886
0,112223254908013
0,119696592541288
0,105723915210835
0,114600909163225
0,108697713136638
0,117758939360453
0,120038839800132
0,127530074659403
0,103379758467117
0,113247410121688
0,10884949253263
0,125824249197773
0,115585173825396
0,122629932814206
0,108039246199243
0,116110734851181
0,114115109671084
0,120456387842409
0,112061661767603
0,134195668919115
0,116198085416081
0,126921059428177
0,135319987795141
0,12323177380781
0,103757151978211
0,114099269504618
0,112938293744609
0,139785921628986
0,129031710508611
0,113447771339042
0,11111245750912
0,103617394270827
0,111743249790664
0,109179946322494
0,103002524229114
0,111215714941602
0,11492996196872
0,118306191343098
0,132608084016002
0,134903687425767
0,108165904349326
0,13020192111
0,119624204358926
0,120569717416793
0,108388521193975
0,111953116013577
0,116203721469982
0,134474542632375
0,120058066510031
0,110845947684668
0,0947341580035384
0,130503256274042
0,136961683253642
0,109358671381106
0,11998664607111
0,16154223911241
0,110870200822219
0,111399825434873
0,0990821505555868
0,107980265126619
0,102215709160943
0,113787948450164
0,100264005134421
0,107887984412482
0,0981209388558826
0,109699072272281
0,113880225681306
0,127386393750644
0,125280743932389
0,179470925351695
0,115916959805419
0,189348839432138
0,126348712373151
0,118222841792673
0,170283760873979
0,136340724627018
0,116228346876637
0,101793040909443
0,108860134444465
0,119328466420722
0,113469162826808
0,108902006427249
0,14897634868027
0,155065430058997
0,110276935698355
0,115064546459758
0,104847790031436
0,113296202416966
0,148653612853633
0,163092294192222
0,102747709254928
0,133495514812142
0,11070001588712
0,118889513152374
0,162266051767672
0,158529500221156
0,0923785454852228
0,104683201423709
0,0917899149530877
0,108661046909019
0,105432213598711
0,177951625722912
0,115014819493694
0,121207716966689
0,108506069911558
0,166349362808482
0,176900055808801
0,126332914414579
0,105942479272846
0,105942609977222
0,118315994183464
0,180540431513564
0,130400187468241
0,119969270330677
0,140296469907462
0,131665988879487
0,086746456151423
0,103161593674173
0,106449717989891
0,142051452540807
0,122007065572474
0,0995121394820016
0,181773242688952
0,227257194603508
0,132683799405329
0,195075186455746
0,0998497795730491
0,13121603738585
0,107431101785316
0,113700943739231
0,099501662467217
0,106678768635444
0,105030247904006
0,136710213262349
0,141846254561724
0,111492750541418
0,124230810044784
0,164125408065732
0,137332878329411
0,128618264724497
0,180765955504069
0,133340565270968
0,106133019317635
0,161173867854918
0,113191767658066
0,103345916390883
0,118589792652245
0,156663710679425
0,102706143106982
0,106261989905449
0,100663709844419
0,123248896274193
0,128768777311099
0,122005106214847
0,102596345417529
0,121937118967814
0,0970852747461831
0,176196512910927
0,193239791610906
0,150183296294376
0,102082894964445
0,116308584503212
0,0859455763856303
0,175771142773444
0,156481205869874
0,105405869518339
0,0923154744547355
0,103464501327842
0,097371950881674
0,101069787215276
0,0932427317456197
0,102018862828308
0,0976935018859419
0,181590743518728
0,12692275780054
0,107981462506119
0,104648792623923
0,12395982511033
0,120332607918824
0,188981299016058
0,147361847469905
0,105164975710233
0,109635405070287
0,105986335266426
0,138886133240411
0,132794518916897
0,0993077558698272
0,0988515801729167
0,091194950270619
0,0974279764399849
0,102968270026824
0,109636310414954
0,102728239920346
0,105218723734037
0,100795811361611
0,110582112028232
0,108462797569719
0,125530916061109
0,107395951793415
0,105128172731125
0,10815659443741
0,102193818511548
0,116189397159634
0,140048243835454
0,103076469032601
0,104317398130343
0,103036659588641
0,105028930637158
0,0942007184851299
0,108426182133294
0,100782172549249
0,101756285689158
0,10975526296624
0,16130606777318
0,115430666329178
0,113672961052911
0,10851968894552
0,134951825559525
0,133367959780245
0,10512355889889
0,105141587091527
0,106891434929931
0,0986233064462448
0,122106502915237
0,155667911135488
0,123451089926174
0,112156334908587
0,132924066930098
0,123989058055966
0,106877648558005
0,108718013598245
0,12261433475962
0,209617505094081
0,14688952015839
0,128649899824731
0,196808614989657
0,145855579470138
0,134444464012425
0,121585632838656
0,118989395171124
0,278476763105138
0,181369571918693
0,119834268000767
0,125763604174285
0,13607078659584
0,120738247350493
0,123929405731327
0,140594251313203
0,147844109904105
0,180585662077909
0,216917922994564
0,191510521838874
0,113766627457528
0,164307013309507
0,153108960746042
0,12131441243006
0,117068433979411
0,113361538473073
0,121100936710681
0,14750371684916
0,154013521527928
0,143644927666124
0,12728968391853
0,130057015325701
0,159273553303643
0,121457233972576
0,115931735640863
0,136580207842485
0,135272901144248
0,11417927501861
0,116043724683362
0,125143779008198
0,13530798922567
0,119549649323548
0,141883248012652
0,200303679594738
0,142665497985868
0,135481217352036
0,163556807625182
0,131411232470221
0,11773541905113
0,116295304430881
0,121504561285286
0,115606950679243
0,105103637671993
0,130907493913218
0,165248466191235
0,131767987313697
0,119975836416529
0,118069058342985
0,115070215964754
0,122233074539156
0,123201384492641
0,125712522653146
0,122121055943639
0,127756553398233
0,128905852778927
0,16621826539907
0,165153297150361
0,135788853560985
0,188040071904812
0,176815781795463
0,135131642467015
0,128841219842621
0,130194381878198
0,13611275432478
0,123349263358041
0,130116172024968
0,12981791599617
0,146879163980021
0,166080176965809
0,150240803967487
0,153337436740074
0,174271849916107
0,239156561827056
0,226895296796894
0,163949252884935
0,148687411597724
0,146870855288737
0,201262180702289
0,207472485377287
0,190406525754085
0,178385588793713
0,145276653359384
0,153947435921049
0,152749720409521
0,150670987681519
0,153699385241914
0,157686295480578
0,157924176053412
0,163549625178268
0,168126039462436
0,170429958465858
0,164468076702606
0,189800761993456
0,22326356102124
0,179869364217391
0,177161043047282
0,174505639430898
0,175420205186201
0,229083028800981
0,236316710147106
0,253799888579284
0,238447566850402
0,266201845472814
0,260667730624996
0,207935388352657
0,19673289753962
0,184459909134958
0,194265635119381
0,202056420627309
0,204067946156179
0,19920551320066
0,194655011303329
0,210887160461129
0,21114680185549
0,206885696729573
0,209340792691618
0,229719416627692
0,245283285447139
0,222496198566697
0,218578630455213
0,228386024499755
0,26974851101912
0,328553380130337
0,298210140999326
0,25777329993893
0,247493224518439
0,238875759884022
0,241822227141224
0,242045751711633
0,24397670565348
0,263437082741131
0,28412856798875
0,305158134147547
0,302985159561402
0,316452826315596
0,278878022881836
0,263255008094612
0,297187171097353
0,297633391930637
0,303568775240038
0,32009591272705
0,289357902109199
0,289764624106961
0,333750927198139
0,32792236113235
0,322223307438091
0,326754461055569
0,305610309629749
0,303545924582839
0,302483992792745
0,30863331204696
0,313929073434892
0,330412031508902
0,328581754722895
0,333590248512191
0,333978724524087
0,341705899210522
0,345110715254413
0,371346154140069
0,345176394476271
0,377340386780314
0,349158408084465
0,346447217945962
0,35370704898951
0,353927152665083
0,401009837926355
0,39917942682116
0,410842278566008
0,421023157952246
0,36943547990405
0,384197790239317
0,386767019741919
0,391781564274574
0,392427102223159
0,415519627591439
0,405095228191878
0,40839994349239
0,409050380491551
0,397448003046474
0,403414581262492
0,434647682663179
0,42766682208496
0,422110628180167
0,416252689616054
0,438525409416023
0,445025181975814
0,460616052077862
0,510803755218421
0,542761520911872
0,520706463009132
0,503592866907001
0,477732861883279
0,487115797884986
0,471011824791283
0,480594951994059
0,482365526218531
0,49652256061839
0,487415909307913
0,501656962589438
0,491081766584862
0,511044427124048
0,501508857579139
0,524890076492495
0,518758290010204
0,546334978555271
0,552652950201067
0,555751899787709
0,543213558788197
0,540427186296868
0,534317654925483
0,581663133093092
0,553960395641354
0,602698296755047
0,578289828809833
0,583704013100159
0,539819219395832
0,561904679151481
0,565840071317196
0,610807778322665
0,598558954437493
0,601152340017133
0,587270376587139
0,635812700478946
0,579929446903411
0,651527399044703
0,596121153960068
0,60743557281825
0,612059779074169
0,644286339742553
0,636961234951921
0,661709794895224
0,628117659710858
0,65458056417269
0,644996376835249
0,685977652870897
0,68263193881103
0,762865492141969
0,689629279002438
0,698988637514018
0,672046020594374
0,70305391849489
0,673502580115763
0,735912654707442
0,689583046612669
0,715849572929122
0,680946853853829
0,746252545713127
0,713267344523654
0,776413615706327
0,725595717539212
0,783617798446371
0,763730154343123
0,770992969187752
0,727527269148877
0,75254231323771
0,765760208940574
0,792481652187905
0,786381633014793
0,861599108572047
0,797802279227663
0,830067723726091
0,793707029473125
0,823267785447548
0,772581911501407
0,832714679789063
0,786733513829266
0,82377871639459
0,811746794513258
0,832584934308892
0,798975462629337
0,864550048324167
0,794801072897008
0,893298075059839
0,895913941991769
0,885660230114306
0,854578579817659
0,927626657835737
0,811289279316554
0,892206164167863
0,976917312979453
0,996426921447381
0,842105787603008
0,927552186811258
0,903249736977909
1,01746866287237
0,977420610749801
1,01043582113737
0,900090885525721
1,02489252641333
0,951643642265699
0,946383327897065
0,915626751503493
0,999153883519944
0,860399258900551
0,996178882470262
0,937322594182483
1,04520873432173
0,93269700163679
1,0435342815671
0,963445816183749
1,03568417549074
0,899541927576631
0,99311049599354
0,989115752653055
1,07852750866351
1,02081003555794
1,03039669003208
1,02470990803292
1,11571601998677
0,999127806536076
1,08149989550269
1,00919259031983
1,14521676717311
1,09247264850119
1,21934625404504
1,00468114059436
1,18815030707751
1,05565236881003
1,19782960267602
0,97424661966696
1,16606523143561
1,08287249145773
1,18123050534591
1,05830737080841
1,21600017138662
1,06915358109654
1,10991371321589
1,07669235233215
1,14998960679751
1,0960521717594
1,20452209960585
1,02303583143547
1,09683813000914
1,0462809535496
1,33617590434543
1,16076109550906
1,31013492250449
1,0764335009966
1,31342121251316
1,23890694251157
1,29018765959711
1,09664687324308
1,33619650082973
1,13561162166553
1,24984376747757
1,0515214235474
1,23570884794269
1,21750184926375
1,29517500838325
1,26094062373164
1,33229397076922
1,17600599566572
1,2248972495945
1,26855486800918
1,30576928040156
1,22188901345928
1,35545190606477
1,16413936825282
1,26837368355764
1,21553833169145
1,30843724030423
1,12689499760688
1,31161895473346
1,28423120749787
1,27686647289645
1,13028720050359
1,32381519777756
1,21423624009283
1,58061941595577
1,43658848318547
1,31096210439797
1,25224647299691
1,30959739812205
1,24783130228988
1,43639580720147
1,2191128819766
1,33862805519229
1,26273736568173
1,36749730019551
1,28136463598088
1,36295445843014
1,32995481869529
1,39509249491591
1,27420166733046
1,54450029794091
1,27493207077807
1,48087383924843
1,47516468743268
1,45472143072975
1,23609963493671
1,60205202839127
1,36058173622271
1,47103141067346
1,39266295765284
1,32592224079412
1,30804646122624
1,58365193649245
1,43019933421482
1,45298397366309
1,1827316217958
1,44179653395778
1,30851635623945
1,38721168179968
1,38853240652052
1,42906654509243
1,38010604045443
1,43035122444271
1,47370708628877
1,43157367689622
1,34336632942764
1,54300002055504
1,34465544629347
1,49092485263556
1,35824884206501
1,47655256268575
1,37342179237644
1,51227132950289
1,36575881038139
1,46773936692416
1,34980141741191
1,54275918820132
1,40787102310054
1,4668572964248
1,26973138928723
1,59887347233337
1,38666864032338
1,58409632200329
1,50006061247423
1,7279894799633
1,45098540669664
1,54244952067648
1,44199153368135
1,45939881721986
1,39248091767069
1,83114111458423
1,31312759971009
1,60000469784056
1,48018332640269
1,50993194123359
1,38352651827949
1,54329589340128
1,37223864510954
1,41461809585794
1,48691924799379
1,74387950964812
1,33220882981136
1,51793376403948
1,45381908478377
1,55262210775913
1,43717698640637
1,54706796817373
1,4852390194814
1,56622939078875
1,4137684665614
1,43686573423977
1,3668026451491
1,49062969445836
1,51200941691551
1,53556725298223
1,38568968955765
1,58868024878336
1,4526709275003
1,47102948159903
1,54858257081107
1,42871931438946
1,48564549007903
1,46610396309592
1,56909116706463
1,58743427607581
1,40536152558104
1,46002763911194
1,31000217167384
1,64532566060342
1,3790449471579
1,58831377749538
1,42930255509023
1,5390151620455
1,53465335296232
1,6040023058768
1,43659712266463
1,54227324019152
1,35219180395688
1,55317325642035
1,33732587135452
1,61246420290609
1,41217526465041
1,8469017003895
1,37554301386531
1,38976330349281
1,47299750050142
1,60052419409307
1,46581193702676
1,55095580876341
1,65556291600319
1,60755321112424
1,42845239062571
1,39069271339523
1,45179698746303
1,53120761633712
1,42241620148524
1,55193056418443
1,39004361367081
1,40679512751236
1,61984816494968
1,48277221203265
1,43845877539056
1,48896487604506
1,34552757894191
1,40799984031872
1,35115717364187
1,52833708657992
1,42958584170554
1,39326907685488
1,42278971760176
1,64809459565205
1,39831001602627
1,54523806778475
1,33897661459401
1,52314930976561
1,41658839784789
1,43593362051717
1,44163290876816
1,57730188173402
1,32442040840107
1,43493175382184
1,46184459921687
1,53460326186938
1,43324420253974
1,39980752301659
1,44905989820146
1,45549205332457
1,30114332584273
1,48466896772451
1,39145974719574
1,5117219680608
1,3927528969649
1,47408019484586
1,35696618677313
1,4150218249229
1,40481729289502
1,4880675018763
1,44992899626001
1,36089935318299
1,29209179620576
1,476263206612
1,4089565927908
1,46264109544303
1,33816974504933
1,45676918878315
1,44173779805061
1,50540011938777
1,37216833376847
1,38653236952779
1,30592321477599
1,38481930012105
1,39423680636219
1,40008321848236
1,26446559021413
1,36997551519729
1,24835098769933
1,36238413850804
1,29821583906434
1,4163190735247
1,28940551224973
1,35600320066101
1,21914562897848
1,47401125357035
1,28066607171695
1,35315045406654
1,25150027116043
1,31894316515096
1,22582933598743
1,31299992920232
1,26019813288579
1,28151005820112
1,24827800937834
1,27254419756891
1,27939249184953
1,24048525937688
1,27548858391374
1,28758158360227
1,28507501961177
1,33075384855441
1,25094385403742
1,34480138461148
1,22248020260437
1,29704504480669
1,26038335409763
1,26851511294162
1,25873040224192
1,20724172553113
1,19735329278557
1,26537186398014
1,18377983430146
1,34173249245641
1,18803790412081
1,22006333300735
1,16684906453021
1,18500630916335
1,18365740552934
1,21808553342281
1,17709882557005
1,22754248832678
1,18446229633178
1,18535392334891
1,11739879458358
1,17597953850952
1,12828504578227
1,15381928813345
1,13779152817568
1,22175098703607
1,07764516377729
1,16483665175456
1,08576049433846
1,20613683228092
1,10732198351456
1,15156993614992
1,08847146990739
1,16397692201148
1,11821976653971
1,16041998603828
1,06718329143832
1,11257156676987
1,03197683990523
1,07779794002421
1,06464799300531
1,06157298765405
1,05526595514993
1,04883164977124
1,02272544802592
1,05189679915928
0,996943519774238
1,05540312121917
1,01862809875754
1,0763792198501
1,01690771486856
1,02155936502166
0,995065064547625
1,08576907005852
0,994643895204886
0,997351707232873
0,983937489206761
0,992530187994482
0,952124488513977
1,00475361059734
0,994060748420251
1,01946123607199
0,96758274454221
0,96099927519144
0,978031859468527
0,951152982910402
0,924450419327628
0,961364575917721
0,910446428237489
0,949253666630503
0,9109945287106
0,937664036033478
0,907777483267542
0,923004507235201
0,915830180943735
0,958399741097661
0,897941744286272
0,94735776488655
0,887514059620307
0,939137546027927
0,887004835664591
0,896818969367583
0,849488934375765
0,880622074243769
0,873692924807695
0,894086343966979
0,844841922108406
0,87150698939917
0,857134940812173
0,873159928597508
0,836364255415977
0,860739193731447
0,825407061643151
0,850202531252729
0,80685178056263
0,813513172458595
0,829312599158717
0,848405731673295
0,822418953763228
0,838350760533394
0,799556847078239
0,831386105333734
0,80838017022971
0,817418048221185
0,800493176020633
0,822945543165678
0,785081212794997
0,787190230647042
0,767432648019119
0,783501278439065
0,776623290472282
0,783335881491582
0,757319414466741
0,791406630561163
0,766779019584081
0,786298422053925
0,741634818231379
0,752054292478866
0,740107027277703
0,761100945152923
0,711862689135245
0,742477330369084
0,721377161652233
0,745088643492917
0,736575605561555
0,753947162031403
0,715494952917248
0,7545917646815
0,725313819386895
0,73009763337956
0,71118515034499
0,721912564466697
0,700383761224731
0,723794089193843
0,69717713122494
0,699416771894233
0,674659994101872
0,692221901173838
0,676601719663863
0,669597152927529
0,667344066209942
0,695439001390283
0,664756081524679
0,679716224289423
0,660677524415123
0,664252404552101
0,638018918277002
0,673310934701338
0,657866322296492
0,651913581836789
0,639444048427668
0,646451853342938
0,632965063182573
0,639487647082979
0,644078061609682
0,645119453622077
0,619692337046892
0,626304054006229
0,6211052853602
0,629601609742923
0,610339926311367
0,633821233887791
0,597353411342793
0,615959359194427
0,605099813093502
0,616295133922629
0,603520855914954
0,59714362093794
0,594813252394236
0,601593415350681
0,584435822882394
0,592897572799301
0,592332799233573
0,575730764067764
0,57072229221362
0,581396320737352
0,571595208794895
0,566422361005927
0,573788089373306
0,576270994425448
0,567798302494204
0,572071673089524
0,554573930732306
0,56949925253553
0,549328165214631
0,556619089740046
0,549821735172029
0,55030108760258
0,537777248766538
0,546697298849764
0,534516942437966
0,544461076389354
0,529484359128037
0,538181971354209
0,52768473399939
0,517658570571566
0,519701532595948
0,521641236987711
0,522374924946555
0,539780234318717
0,50548914296256
0,513902304832596
0,509644937562526
0,510240356185605
0,506525378201962
0,525200482339688
0,517238938473154
0,51677518001666
0,491224748988047
0,505148606847204
0,497961514872862
0,508461758191316
0,496657908417331
0,499176850687472
0,498275653212848
0,519347477423965
0,501368865202748
0,501944771627338
0,495120543164861
0,491387410968295
0,505285761182788
0,505040036848572
0,491407528968121
0,507091260996443
0,49168064383691
0,501639529937458
0,504325539985747
0,501293230109913
0,496270915396861
0,506586657435349
0,504364864117814
0,503366788004952
0,497502088184025
0,504828048952816
0,505396537968874
0,52317943817266
0,498006381395007
0,515900930388536
0,515311583403373
0,523006504807533
0,51595902770126
0,521272801094994
0,516651698277624
0,521296439589778
0,523925917664554
0,53596609697738
0,521633739778744
0,538203132269475
0,515977377186882
0,538591202574931
0,53256663502033
0,531422440027226
0,526379101554901
0,540970880477941
0,537137145179155
0,551247257281271
0,544899794727492
0,542204430396283
0,549345175434429
0,563914450976291
0,53807213413849
0,57216984793145
0,557491750473588
0,577245163726139
0,570042685827676
0,571031054475503
0,578581842007558
0,584695745733011
0,574143811694321
0,587652370868043
0,589785455970046
0,590344985396381
0,583582326281155
0,597984426602518
0,582867529732896
0,597006753861644
0,60408894539482
0,615341657985129
0,593644317003384
0,614217947848926
0,607868111841331
0,631364477801067
0,606588693354819
0,610663071969521
0,637254048552568
0,638074342141087
0,630451247270398
0,630946923649943
0,625623367291031
0,652002526537455
0,625890784603384
0,627347946536881
0,62035367005824
0,639907187613417
0,630627873867421
0,639775053720046
0,625870811236849
0,63762435498879
0,618328009287757
0,632889111022902
0,624606515643831
0,633465316774386
0,618618057257333
0,634916279505735
0,617652272889948
0,637438873585611
0,621137393208015
0,613152008321447
0,623860717429979
0,640259711947667
0,625445902793652
0,635113203758101
0,628681592445709
0,640527469014614
0,621848131038292
0,613654153031404
0,627070421201331
0,63828195484342
0,615984697289194
0,641228014118845
0,628404963385193
0,632496287896855
0,627661250994564
0,622923378318919
0,634183356731581
0,630490513505355
0,614497979104684
0,627492968710199
0,635084531891605
0,634179738882143
0,631977231063157
0,636961465740821
0,63449070470738
0,645385306117921
0,629891007473995
0,632288857291283
0,639729541125273
0,633249600635839
0,633480415797093
0,633035436411096
0,627005833066961
0,628802558874176
0,630721035885767
0,631553130024889
0,615912159687026
0,623332450872458
0,61829246103606
0,629772519611716
0,617166724654708
0,610188040791357
0,606130673129471
0,601714853132632
0,603265040335975
0,620139395031921
0,598787936965709
0,589149050574161
0,593188702246541
0,588558956040668
0,583711190984554
0,586388336149774
0,580661553727764
0,579596698423043
0,561090029531669
0,564109288441698
0,563497940516484
0,561612856898188
0,561760017930566
0,547312460104687
0,54392632014038
0,545487276749677
0,539733589305872
0,544537691817547
0,534844623210076
0,531182454387064
0,515952976207195
0,522385877524179
0,518941841461707
0,518600107031259
0,510400063789846
0,51099869407011
0,506733806415041
0,502485647950536
0,493056876727184
0,498417609777076
0,491020594021302
0,49378771956466
0,484595057825627
0,486371377699626
0,476928593087545
0,478566057539973
0,481385714381501
0,485695402816557
0,48118778638951
0,476998714116267
0,470427443483427
0,471761976822831
0,470617185503747
0,467399609160567
0,466186130814181
0,469877023783267
0,461003063623754
0,458690235360263
0,455753575925707
0,453802602679905
0,449463865375271
0,457407514311603
0,445613798617771
0,44130963667036
0,442933020932385
0,439290751590935
0,441495551734621
0,443197588034228
0,438658462277342
0,441948287543291
0,432955378339562
0,4350492621995
0,435739502282692
0,424065045730556
0,42776391521412
0,435829222905018
0,431440866789586
0,42699879730333
0,413490626826952
0,422090664824636
0,423460898854377
0,422222657815316
0,420520270166246
0,420436830883473
0,413986345361716
0,413153635919228
0,408979145392132
0,4132804082121
0,410445023422018
0,408224516189949
0,398663347756497
0,409303251492428
0,406337417654703
0,401341695295882
0,404902229374401
0,406587522428438
0,398807794810715
0,393517592197659
0,39895263511351
0,406404462060474
0,391686630746243
0,395092428263474
0,392435982479087
0,391915145357683
0,394481931869725
0,401081475715793
0,39517309192758
0,390365442952915
0,38987755477805
0,390049941541615
0,387817141505661
0,386615560376999
0,381546475155969
0,388466636521534
0,381054481719375
0,382677935717327
0,3837989075589
0,381758681298904
0,379244967481594
0,379575958750914
0,376825614898999
0,378701439552009
0,374847554467886
0,371860695005938
0,373739913489261
0,370851832172934
0,369569323387644
0,375673996983622
0,375368591096721
0,374959633164076
0,369162567270364
0,372888615582842
0,36884698115296
0,369769267694485
0,369250604866163
0,366471323733808
0,366454088520612
0,367971639574661
0,366309156925802
0,364556560902575
0,36713208827667
0,365962882180875
0,364040042263453
0,364185335362846
0,356190591560027
0,359554889984164
0,35861805552165
0,362832295121967
0,359538626423833
0,356842518924417
0,358761802796467
0,355677577850904
0,357328308424161
0,36476805050191
0,356773854971346
0,358388985389323
0,357064716068176
0,353217624958148
0,355029855506067
0,356288870041359
0,35347119246907
0,358589250038265
0,352969068956402
0,347965136465693
0,351345114160682
0,355235273787778
0,354030968927321
0,355399134145239
0,350177600372718
0,348873082569413
0,351305458680445
0,355151059864269
0,349338513242665
0,345301935056356
0,348067591805525
0,344946230794202
0,346724934919941
0,344418117579489
0,341756653288456
0,34657964229189
0,344598510684631
0,344011327570813
0,338372249465871
0,339670857755393
0,34303163664114
0,340809572356885
0,344363101313459
0,340371935765618
0,339480073956098
0,345742636798109
0,33666795920923
0,334621855271225
0,338510626586484
0,337965576864963
0,338550901839269
0,336205095221664
0,330917129589617
0,332841840449666
0,333052483623273
0,329585137187079
0,327639984084616
0,327379758725192
0,331563673155669
0,327085784451158
0,327129500672005
0,325178078795165
0,327076042689289
0,33066115924285
0,321266627701998
0,319043156117746
0,322991393282957
0,319562135765918
0,321929973348097
0,324666193183165
0,317218232019508
0,316649187577395
0,317520091112419
0,316223503546317
0,318317467621542
0,320513904556026
0,320215688691515
0,316702695507478
0,315517926213214
0,315337317266899
0,315903795185087
0,312619821269867
0,311315721347797
0,309476135948341
0,307602301105515
0,311373045605621
0,310131017210431
0,304346757097438
0,308550382860686
0,307319729324886
0,304094172330301
0,302626315620063
0,304636491118786
0,307908944846717
0,308350686599128
0,303187369801967
0,298946421640759
0,296782023169997
0,296175886765523
0,293888604931276
0,294974302445119
0,296169561980838
0,297872571815875
0,294598855174226
0,292158080460336
0,293061828592043
0,290862850405566
0,292219133500999
0,289449797750614
0,288642604761055
0,286294973949674
0,287655843087448
0,285794820233585
0,282238690665075
0,285482261038002
0,285068326783306
0,282325924581644
0,282481803326134
0,287880137693926
0,281177918865521
0,281043156306706
0,278736715628524
0,276687083081901
0,275145223826216
0,278196342840759
0,277325151010364
0,27569685290555
0,27376017257172
0,272820153610619
0,270614861051538
0,270695611345769
0,270398986255432
0,27086220085656
0,269069791339602
0,271195817913981
0,269319173161019
0,268152093634336
0,26863185686686
0,270319754434863
0,266445809120492
0,267174512394439
0,268824162673164
0,266248266047601
0,261985903062234
0,264629744816429
0,264017332690238
0,263075125614887
0,258942684895399
0,259090246708095
0,260172337221485
0,260443801952131
0,257808010701981
0,255157805993682
0,254605123125995
0,258334314450791
0,259772166667051
0,254881991357769
0,252240320911154
0,258362798522314
0,252165404701736
0,254087168455258
0,254103255930228
0,252903145261074
0,250303777334003
0,250111637500649
0,249254636404648
0,252414333719986
0,248408588224804
0,247317366871588
0,251496772817725
0,246375680130218
0,245202183710221
0,250395335718997
0,241805717071144
0,242203869238644
0,240946720472891
0,245674620036707
0,240370427929366
0,242704828555517
0,245021012715716
0,243345562348151
0,238589622245631
0,242586924114558
0,239763633281096
0,238119508893181
0,240581786266335
0,242320364427248
0,239900339937579
0,240955221459616
0,24088934438114
0,238383620279822
0,239252182426551
0,240100134777379
0,235636657663681
0,237720507562816
0,235314626622661
0,237458623689838
0,234557241480542
0,235400292716913
0,235491531088108
0,234865325942497
0,23578275986581
0,233463856732754
0,232039547567082
0,23406166102543
0,23374801121867
0,235268549846758
0,234091012132969
0,230931992572909
0,225426781757378
0,234897122544073
0,232671372630574
0,230318642661958
0,228710038791718
0,230990734739136
0,228562521894842
0,233156151465778
0,228918313199496
0,227257641218415
0,228928022232946
0,227859713089953
0,227144805216292
0,229993172487248
0,226361275219575
0,22530197298754
0,224287003036435
0,227564340106698
0,224220093048277
0,225847284560777
0,22404691450372
0,223513153435348
0,224513938053815
0,222769065122669
0,221472510437273
0,223099402150516
0,219142497374576
0,223542193610323
0,218738633320313
0,221240811541766
0,214593622544824
0,217933650435033
0,217375616556455
0,217823677212766
0,217743287070447
0,219148201269252
0,218404749458641
0,217730041466999
0,213820072223605
0,217683095973482
0,218044227163204
0,217005758444054
0,211354723688899
0,214872962388398
0,216390866885302
0,216254282892431
0,214625851352982
0,214864289627625
0,215502604898134
0,21550737847492
0,209825360775634
0,215420526930449
0,215826263454671
0,211486859189788
0,212774936894452
0,212998282145462
0,209066527084259
0,212351943889955
0,211676849775878
0,210387550352999
0,205773643123767
0,209706622430747
0,20390757080447
0,207147246417447
0,207331223352701
0,205144108361077
0,203201862853933
0,20614462069432
0,205549717691741
0,208372423725346
0,199899662335622
0,203973978997301
0,201998639609465
0,204076855166851
0,201154471955429
0,201590158133567
0,203030322282287
0,203458427894525
0,19858510983634
0,200874006012373
0,196784194651782
0,195185096172003
0,19583200985828
0,197989208166616
0,193301290445126
0,196175499043303
0,19274112157751
0,196818870135283
0,191547241369299
0,191820820205732
0,189018060354679
0,192255048507581
0,191226301583332
0,190435275852111
0,190218565487131
0,191755593585816
0,187548641868059
0,188061811311201
0,186143487549261
0,188341662925845
0,18435547224474
0,186819635736675
0,18526189899136
0,186939244777135
0,185792813784999
0,185331024709442
0,185570050940272
0,184143702479171
0,182780224031421
0,183363249756492
0,181599306861303
0,184398511336909
0,179922195571864
0,182288155615455
0,180410376748188
0,180558916053273
0,180764923951455
0,178586195705398
0,175741475060719
0,180261510647242
0,177613486882695
0,179200148912474
0,178597177599248
0,179870598879452
0,174589790830848
0,175680293185754
0,173838685687677
0,174496159919462
0,171717362337586
0,173555202822176
0,170912806756455
0,172832010507331
0,169584298634531
0,169858020438008
0,171243582286584
0,170631965933325
0,1665353795028
0,170335622684732
0,167112061769177
0,170454737536538
0,16294509387684
0,168280809850197
0,165920971607412
0,167737741612395
0,165315297597511
0,165871862218182
0,163109665096735
0,162301308656786
0,160220877607447
0,165289719725286
0,160397382505649
0,163112749108527
0,159142448816736
0,159239001620091
0,156817281803968
0,162262091236118
0,156982016970826
0,158137266848437
0,15700043795268
0,158005026422405
0,155630181166898
0,158303029714641
0,156873580436442
0,158187010623019
0,155323671774839
0,157905838047933
0,152693581955297
0,1558819223383
0,156988821983758
0,156557760545324
0,154733764741289
0,156780623644614
0,154995288860117
0,157250877047084
0,151643537528369
0,155460975392942
0,151296937129253
0,157777432462293
0,156425993152109
0,157300950087506
0,156234957878197
0,158973210946225
0,159424510927286
0,160738270321505
0,163139026291057
0,164579695812822
0,159960475979094
0,168448433004055
0,164618800557723
0,163437038615218
0,160602587531358
0,16322292405516
0,154355590688102
0,163886701880166
0,15743468556334
0,165871336744414
0,160508724479208
0,157382543280778
0,15060499464841
0,158919376892465
0,152560365187377
0,156876826936083
0,153435886495903
0,164321964937693
0,149295416746517
0,15937533872425
0,148533763692951
0,154176573086142
0,15368095318574
0,154067972379312
0,154427763098732
0,158301491894393
0,151041523978024
0,156333627648178
0,144776417537078
0,149545391176373
0,14913511446776
0,15108505273496
0,145028740397176
0,147693436561095
0,147413992622812
0,146128828711068
0,145696607391071
0,145306616751368
0,149210523106236
0,148389442956955
0,149902904662511
0,147248276729373
0,153446559358791
0,139807622612694
0,147421692934277
0,13552575657216
0,153461501827571
0,138153262279857
0,164236367804785
0,135903294931328
0,163777294193812
0,131445304651075
0,169703600607944
0,132594617282582
0,178984507200727
0,119306129744608
0,18011007418994
0,121808788594101
0,187158314451837
0,115855222980192
0,182826383333345
0,121917374933019
0,174602157463687
0,125686076186382
0,166678986587974
0,138713950405226
0,15181400852069
0,147395266913093
0,144469680653618
0,1520019543168
0,139280373815624
0,153424840166558
0,13595779931306
0,150775406992967
0,139686241160808
0,143140914967802
0,145255887903138
0,137465513798579
0,1443400791515
0,13321000149711
0,139147264595203
0,133559941515153
0,139140140194615
0,139887109626728
0,135068744805261
0,135069838729735
0,132307200490145
0,136649799269193
0,134485489619024
0,133295436051236
0,135848916127287
0,134635263858096
0,134328340090389
0,1334226011147
0,132789034945381
0,132592259538127
0,133662696416161
0,131449083829542
0,132416766220747
0,131051161922963
0,130753335987427
0,134056760079582
0,132782745635457
0,132872034579607
0,132710392407499
0,132144943592461
0,131019987956304
0,131573195300709
0,131463304828448
0,135008419891131
0,131240921031358
0,134823408798892
0,134274329847558
0,133733210108261
0,134152514350871
0,132673252880523
0,132549600048862
0,134013874526305
0,133612948210056
0,133868459415115
0,130992901546487
0,13063462402767
0,13307164056063
0,132749072818827
0,132184324916636
0,135220251837456
0,130836106459971
0,133194829090531
0,133050384739755
0,136020074014041
0,132134146336782
0,133886635473029
0,131571802980813
0,133764496385169
0,128668684719748
0,132578114424787
0,13317584934005
0,131910807381212
0,131983874988204
0,130683488377269
0,130697888134648
0,132210620993285
0,13173113541982
0,132517071486507
0,131598447394864
0,132885805669535
0,130541766058693
0,131976927004165
0,128244365364053
0,132877461700033
0,130105266466596
0,130987921466203
0,130579430757496
0,131634469344203
0,131327243300578
0,129768805909225
0,132897642843067
0,134417711297206
0,129942635116324
0,133626905388308
0,134748679913192
0,132959309327126
0,129049328491348
0,132542633291852
0,133858969949126
0,134445137697556
0,133888421134035
0,134419938334128
0,134000128223824
0,135602520775652
0,132667746590476
0,134151815450019
0,133117882316555
0,134151063060139
0,129845320664039
0,134542745672032
0,132197887397649
0,132142677529784
0,132043149409641
0,133654906884109
0,131410075502344
0,134275312161405
0,132536954164536
0,135857472411648
0,134021547998322
0,13414292089249
0,133140522930696
0,135648751354565
0,134230911849604
0,136466383863011
0,136196688704491
0,136539505544481
0,133015660915023
0,135226288579677
0,134785188107838
0,135187809724443
0,134059914167648
0,135461121803605
0,133736857324957
0,134357390890064
0,133734448362841
0,134835468749423
0,133714421716122
0,13797191927026
0,136653501699477
0,136408444491191
0,136086114030163
0,137039095428298
0,134132871879287
0,134824362003302
0,13361489283484
0,137259922046683
0,132166495990532
0,137235254017557
0,135178377330203
0,134900584938145
0,132291519490683
0,13510095077408
0,134928126476252
0,13800785009587
0,136211106988885
0,137558942489897
0,134191831494891
0,139721931068888
0,137535129313018
0,139086909935298
0,137757213604835
0,135936281141252
0,137483232224362
0,139817352960858
0,140800533990944
0,140178362314375
0,138197903699468
0,13908799552188
0,138619470317208
0,138796588980688
0,137678323352451
0,141464856515696
0,13904829468887
0,14113501121108
0,13718529253753
0,138233435401033
0,138830796565693
0,137488436065341
0,136498387070561
0,135182272755908
0,139240491109075
0,141782462216256
0,138757743472724
0,139210366373765
0,137144827958128
0,137719975751
0,135003961863118
0,136559878799971
0,137549391558034
0,137057232855476
0,137494124108658
0,137367779898062
0,134836918899905
0,135035327678622
0,135187291615244
0,136149413513013
0,131333852470548
0,135458730204675
0,135069381329345
0,136950888110333
0,132428220930433
0,134860774689655
0,132537332080623
0,133464051892276
0,133000199450756
0,134259261940128
0,132985412508162
0,135071500959298
0,13215305755881
0,13460227844585
0,132938242445968
0,131925362589685
0,13160292386296
0,132963195007416
0,130748140336266
0,132669753365585
0,132076216830649
0,130373344114041
0,131904957093482
0,131172809707653
0,132806872883439
0,130914706134984
0,129623255748908
0,13187956538752
0,130343563602723
0,132359516562517
0,129182368469992
0,129470122204196
0,132776204511047
0,132046975706303
0,130856031893395
0,129453021511652
0,128350882085509
0,131274592074501
0,128691698947581
0,131148490899213
0,12961208151503
0,129453782977784
0,12919891363207
0,128510799923764
0,130736783302673
0,129265048657421
0,127228522723205
0,128599328209743
0,127113273173684
0,130698337751325
0,127132111077145
0,127074125517812
0,125161340938768
0,127599502637321
0,127420513523438
0,127655932591408
0,126703472783237
0,126497221487084
0,125556604450622
0,127595580091547
0,12397805105934
0,127241340867094
0,125930721934521
0,127510803205847
0,125951473890902
0,126719414712716
0,121290309868558
0,123357602198276
0,12191868966889
0,127126534523146
0,123513918228016
0,130762658021778
0,126231674484338
0,125005816316354
0,125142456564424
0,124203459776711
0,123531832644553
0,124503441829808
0,125426983036492
0,122923741624098
0,119735948364425
0,124131243664265
0,124807518791209
0,124559250593941
0,122863450389654
0,123186063364553
0,120991050647926
0,122397659932697
0,123075116361147
0,120826771970125
0,119274461777544
0,122306411783503
0,121108647984373
0,121803568892691
0,120915240408671
0,121257431412657
0,120059570508205
0,125356188772052
0,122246994611829
0,121743484362039
0,118182201417808
0,12019887148169
0,119909858954328
0,117604472750882
0,117783744690181
0,117022594230008
0,116122895975093
0,115767583337996
0,116504558289212
0,116912748002172
0,114708126533574
0,117540811718471
0,11612155576518
0,115125902841987
0,112345830501119
0,114429779030121
0,116303825538238
0,114470276622447
0,112756358062849
0,11301899290002
0,113437795607292
0,116242358191176
0,112906105065543
0,120437554428071
0,112402223762239
0,111452372942765
0,108813575695435
0,110669191184229
0,10779515741445
0,109265811048441
0,10784365144738
0,11021023497862
0,109598661518073
0,110721008691955
0,105148029284469
0,106827935975584
0,104698328173022
0,106121960032704
0,105304899068355
0,105968704318522
0,105317811758969
0,105276284917748
0,103225457525862
0,110047707684675
0,102902874686571
0,105824285671195
0,102141690463666
0,107345510684763
0,104185377102344
0,115891173219363
0,121046287264167
0,106859711049124
0,105789732060293
0,108301925415507
0,106103892857841
0,101698242053249
0,103812316998173
0,103402903956363
0,101482558785336
0,102321207347869
0,102894785171345
0,099850020247597
0,104157952073925
0,101105512350677
0,101925158223153
0,102830796740265
0,100059597676811
0,0994657552473004
0,100010011276303
0,100560652134822
0,0986864643147252
0,100709526241509
0,0993015006403514
0,101496193591332
0,100304089687703
0,100273938695075
0,114209430746047
0,103944802550203
0,101241668325063
0,0962585815093217
0,0976934460396728
0,0975575420214638
0,0989392892660282
0,0981020556789378
0,0974294742498444
0,0947601507364609
0,0950708155241146
0,0961531742751323
0,0935311059748507
0,0969327858742821
0,100006817838473
0,0933068327529479
0,0967232905643709
0,0938485876167226
0,0949462418403509
0,0912207440057907
0,0949525323634225
0,0934093863044455
0,095877557250444
0,0962621755623984
0,0950140695548992
0,0903579492438265
0,107353866449887
0,123162073510133
0,0951996868865522
0,098307359905235
0,092845107039715
0,0937013900294121
0,0913220712960134
0,0933236657516755
0,0911596235650512
0,0924548182422456
0,0905911961352344
0,0931210250482382
0,0891770380798965
0,0933935116225965
0,0909677765272793
0,0915689603834106
0,0891293810787301
0,0926045762092164
0,0897714861628167
0,0939976598945144
0,0901829511829915
0,0990721241132127
0,11513991532048
0,100528085933191
0,0914248643745812
0,0937542904632181
0,0889906459939983
0,126388066660443
0,100307830389634
0,0910379942490984
0,0924151194400302
0,0897344194897423
0,0892007384486862
0,0895341947769446
0,0895605569779046
0,0942776128518766
0,100190670369685
0,091778667897663
0,0987384873072868
0,0906214298512599
0,0905295060361599
0,0910546127307892
0,0893988923424161
0,0872234589727474
0,0881675646505632
0,0897516520625463
0,0845007783984537
0,0881870234243523
0,0889980609451849
0,08971963523298
0,0843890432052953
0,0975539881266141
0,100575144312481
0,0862878335107027
0,0885164207313614
0,0904864369910362
0,0877174753365988
0,105062306149834
0,118076724313584
0,0873046092910961
0,0911901427135757
0,0848025915581128
0,0896634897653783
0,0912630812151058
0,0898109485363338
0,0864796519008879
0,0870540153621075
0,0864654602783273
0,0880316648962734
0,0870379728000367
0,0860231391003399
0,0868084082750896
0,0874873804888797
0,0871063680184117
0,0867947167139865
0,0856331389003964
0,0852570088877864
0,0897377464366597
0,0916295577142452
0,120656410750774
0,123445524486392
0,112718039726658
0,110224308083335
0,0971489242639852
0,0932400908513267
0,0903755877977109
0,0875174507812688
0,0866414454725078
0,0920241541937316
0,0881369619800712
0,0908340659781512
0,0882845588673965
0,0892029145226832
0,0844520159341456
0,0865243280192392
0,0854793799035671
0,0876733464711199
0,0845321866053253
0,0885432453339651
0,0853162470518906
0,0874191141596248
0,085697981063692
0,103336308728522
0,0984932787451795
0,0939096025808814
0,0964095475778176
0,138298769632909
0,124803557670393
0,100519954242046
0,1022416326405
0,0861296943544798
0,0892251334059572
0,0882538743415091
0,0928332343531313
0,09869827493881
0,0898300993827574
0,0881518466986884
0,0904757460791587
0,0940812177946734
0,0893010951612542
0,0871174656383436
0,12142590962329
0,141610541381152
0,106197518827298
0,0953356352227939
0,0888313899808234
0,108537365164396
0,134719913650281
0,0966302590590579
0,098558340626347
0,0962805759410226
0,0918660997025236
0,0924324624670878
0,0907293164337469
0,0948971735714016
0,10410478229903
0,0962404285282458
0,0908031648277976
0,092179908871609
0,0907714898834119
0,0972816762104943
0,100523477406647
0,109637173807576
0,11218204526037
0,0955528877970669
0,104551134198917
0,102860126420105
0,0923391580353023
0,096979825773742
0,0935167114886976
0,0959753289939333
0,114498704158998
0,119483143540521
0,107022293938039
0,124460601564166
0,116363377901247
0,0976035513257167
0,108750661475774
0,118494447415051
0,112394698914898
0,10031000252451
0,121172349926369
0,148175352646092
0,130349134099481
0,131955080058252
0,105200329286881
0,102269455624011
0,0999041213335276
0,0964614962407519
0,104036879184779
0,129448524098097
0,112842025442869
0,100638683986996
0,104760338309653
0,116689615831696
0,125648207596325
0,108472580280166
0,111608277211922
0,105277766456094
0,107936208314781
0,127822712651162
0,115844797148316
0,115117057316336
0,166402481639592
0,151944841217815
0,145916411942028
0,119270730497753
0,121389984222742
0,157020876136137
0,127310975385405
0,113320570900686
0,112711614262319
0,114799551436977
0,112478994215527
0,13049133377111
0,170136656930774
0,128398028141387
0,117915198529996
0,125377871667724
0,126477732532481
0,156735000613706
0,137728311208013
0,119086408350559
0,12498886747834
0,120651914171909
0,136014806168379
0,185497822698163
0,163852632049966
0,15050752596107
0,179912475425668
0,159158222769834
0,157808194722186
0,142816317001438
0,143714808382842
0,162290317316502
0,171652288153729
0,138885889127207
0,136488775390748
0,167628425152341
0,171963730830508
0,14773059133721
0,147037965022135
0,144697971762544
0,155937830710844
0,219735961695146
0,246888251753637
0,194880478246494
0,1605198936374
0,171499336632387
0,197584415891868
0,166307902712309
0,155676286335648
0,159214877017246
0,158978745466326
0,158948445044387
0,170841487401287
0,182240225804132
0,171039619764513
0,174704636050925
0,173931842205693
0,182741083746503
0,234829069562813
0,278518765930638
0,228270356927931
0,217814830921082
0,227318885936002
0,225597258390785
0,202271822958941
0,19799656757941
0,19325976814292
0,208466504037429
0,207030158182998
0,198656795305884
0,213759532788652
0,241573166509376
0,231460046696412
0,247903081796279
0,247397616648945
0,226665857936322
0,225216875752789
0,282690277177356
0,392964725080204
0,29293128052852
0,252027221989841
0,27238515916624
0,301179458466985
0,350771184419777
0,284092283074821
0,271655819707096
0,277874978181026
0,275747773172196
0,295100678403216
0,314970102493681
0,319011883720638
0,33795198701809
0,319620664907875
0,324798499343603
0,373859804605959
0,487618916009309
0,451912869008115
0,383791499208902
0,366197893826095
0,404828679925032
0,405134169714069
0,382335083116024
0,39312214103656
0,39638985673063
0,435158596501976
0,487709848846602
0,439623721887904
0,421027925456742
0,463465848123596
0,470940818997134
0,480328567075102
0,509023304245853
0,532793181805327
0,485345200387961
0,493678650746594
0,498536101654159
0,498816677766089
0,517559986422462
0,573785313587466
0,568099481778953
0,542922514100985
0,545732245505726
0,550426698072188
0,55706285118264
0,5763444160662
0,566922532106452
0,601738011924149
0,649298478226143
0,702319529887666
0,814606377904915
0,679874278487673
0,605821083260696
0,610839760957671
0,631222974206211
0,662758350350678
0,672794913859194
0,677657539767404
0,667660211081685
0,620007085960325
0,620460301405259
0,63125889527791
0,626386814184152
0,643355470765998
0,61751199576217
0,634291952779429
0,655300399344274
0,650835495981362
0,719931075521423
0,753475918075252
0,641427691514224
0,609278590468069
0,629338294658019
0,617762199627203
0,601691167023667
0,603441927355838
0,645103881640862
0,640548705087066
0,622268018101886
0,596904122964624
0,597119179972372
0,623165457862901
0,640836050790214
0,600360742171441
0,586679817006686
0,573989437506886
0,575062663835826
0,577333845654339
0,603746310222741
0,62591750046719
0,580156363701847
0,538160493447577
0,546494773744635
0,528424918848496
0,528039272490796
0,523691183750688
0,547104640147455
0,521315395202667
0,528920490004338
0,532352273326119
0,520959871324436
0,497850536063297
0,508592178672634
0,515684494867593
0,515937541365357
0,504724215453965
0,505183207621388
0,499823195534985
0,499025729580602
0,493149514682685
0,504331201347361
0,496322368202345
0,509374293908929
0,502250397409776
0,501466350468001
0,487369340671804
0,491119823345378
0,499643348817811
0,497339330496546
0,488970503317233
0,490380222173063
0,493015680099388
0,486614602910425
0,481314734499693
0,486525447098184
0,489049755796705
0,491171482372866
0,488438017683878
0,479510352836503
0,487571848568642
0,482800791022546
0,505049807473789
0,55795061851354
0,53505179914874
0,495760445449174
0,475232722772705
0,479387795957775
0,463852309122837
0,481825907964566
0,522339608795885
0,522194836520259
0,474917586624082
0,464579567514348
0,45919673261963
0,493016581369921
0,466596050723775
0,466930451447227
0,447718878472783
0,473794299401008
0,524940646473463
0,583071530689565
0,598668141964321
0,589405228572618
0,487535543888673
0,446679076865587
0,494443619606099
0,48706955333953
0,463594636759336
0,430110189594183
0,450360059013318
0,489380107119377
0,470709974561641
0,442944802873127
0,425839189247277
0,431020875095059
0,475299406101856
0,480764947670478
0,453978664975177
0,482044455751375
0,482061698750383
0,485693712255474
0,51989744907542
0,550872535875318
0,459604570699284
0,418823337300133
0,414217293244266
0,412247652889509
0,438219983127956
0,456064075045031
0,440033030532807
0,420977477006751
0,389573067575195
0,388469423286489
0,407404987450013
0,436831100019449
0,387618572765096
0,434618498729518
0,416188213387104
0,404076986910277
0,390298280226888
0,429304889670054
0,463706641576718
0,472355590784751
0,3808786282456
0,366214845044654
0,433537934111455
0,434112441510298
0,399797592211253
0,375363761806448
0,346291019961836
0,374131308743148
0,372159698612872
0,356751515291465
0,376031619036644
0,393048479255637
0,421809202027827
0,44342798896502
0,487062738519531
0,424872249625744
0,346544641657914
0,326428151640346
0,317188477238236
0,34453086127718
0,316004928772994
0,332560289101133
0,366411784154475
0,334880306031782
0,352391852831077
0,367273022824815
0,345660241642835
0,321830062411093
0,321069960342911
0,322106757999748
0,344203314702086
0,393689544123772
0,406486684994347
0,359012675333184
0,371538609076532
0,370023026976492
0,362949773574762
0,338638201053251
0,350398045396377
0,345109035277117
0,363771340743857
0,373394823471111
0,374689005031438
0,368762593038416
0,376212993110915
0,379339511227788
0,454543403577256
0,415908507416145
0,433715873966171
0,436852402421608
0,49636132660805
0,495398199148272
0,463612037545265
0,455174074055968
0,442227932090537
0,453429207651597
0,457458857654318
0,462096291429067
0,510676178794565
0,517840727899283
0,496316093546147
0,471037966817834
0,502599357642251
0,486613901875178
0,516506571647012
0,555024457539059
0,567285686914672
0,619175383806378
0,594663525075658
0,581000367227276
0,532815193686144
0,53774542642952
0,536775580042641
0,543827744390468
0,532747168813227
0,527651357798289
0,556615506317989
0,585831765666274
0,552466123410654
0,555185923079444
0,556043043593802
0,553632871625023
0,555386466066307
0,561804653592384
0,564028169114265
0,565010106106627
0,576539603152837
0,565863570345968
0,607695899559566
0,666328475715404
0,612513081890763
0,591056454488916
0,596666458167642
0,61451724973885
0,596189744168086
0,609434834463695
0,634236749927625
0,631411452547633
0,621805509415668
0,61507193271945
0,625253157729511
0,614399916768629
0,663106273396068
0,65310670531564
0,646393640471385
0,641844083629225
0,6405648496297
0,732569345216624
0,714401438557387
0,701493087514645
0,675475243006296
0,688555944069164
0,646681287915929
0,667578972664567
0,660756173363716
0,679706973321724
0,664037304428161
0,683843773608742
0,675705309951366
0,66989248202622
0,670660186717905
0,663328236792346
0,686716413842046
0,710236735772484
0,684251922712341
0,679782166001753
0,676130151018967
0,66850931728283
0,675870647973648
0,720705810440904
0,697934588091604
0,689674431255194
0,672038587794223
0,702204985511663
0,718907836604437
0,696244713751721
0,671083994954955
0,673551188948936
0,66917395080427
0,684510929458151
0,659383557110426
0,697529707114574
0,715926089316132
0,712205293993411
0,680254173192907
0,692648006045325
0,684024293087788
0,695197307186917
0,688175021712941
0,705169703804273
0,694829868309557
0,720453229109478
0,713808262491613
0,719174587364043
0,709900593745007
0,728467748769573
0,745798353637951
0,731325113627782
0,710007242028172
0,709634837566884
0,6930420666378
0,712321188300711
0,704780772860781
0,709221040530231
0,678163806525726
0,69489580529675
0,669384265891264
0,711106890896454
0,714974461052252
0,691608306813768
0,682619114554449
0,675979063140714
0,662202360531439
0,656838250875323
0,645535198360134
0,641628262624653
0,63715141094794
0,643713351042606
0,629234491763375
0,634850419838177
0,630545793880141
0,62672373362253
0,628294127726859
0,626513975902204
0,618304669671582
0,62132794906453
0,620644024975924
0,629730098491422
0,616147573022398
0,619557824937548
0,606130685157175
0,619429656057661
0,638005318925527
0,64656281496977
0,64116476123147
0,627005916566068
0,62837175651933
0,622331134932669
0,608597499187937
0,614892233635557
0,621791770196119
0,615932042400172
0,609780753374115
0,610265754939921
0,610039251934521
0,606948135425165
0,604992310073972
0,616288162097322
0,604510537912598
0,607708863568288
0,611999588955722
0,61067978926221
0,610621838585107
0,614538433270153
0,610173775486474
0,619101751484265
0,616511791903509
0,618511179002234
0,606837292450029
0,617422952498481
0,61712400501811
0,61980143045648
0,620370822662045
0,608792486037255
0,606935586773192
0,602813994908222
0,608423398714383
0,616811477583187
0,608786420277301
0,609383214131966
0,604942144242242
0,599111009288897
0,592950355207958
0,598892450850763
0,590244770013236
0,593255012969902
0,584864493288686
0,575233090398303
0,577685823854693
0,582686364756904
0,569762335756708
0,564778371132109
0,561349636842639
0,560709001218996
0,552418608978154
0,550550297253985
0,546499346510785
0,548855587214418
0,545009273263073
0,544214278959429
0,539897269882916
0,541756012863725
0,537132893064409
0,535435551301972
0,534363380101557
0,5358439108414
0,530291611596354
0,536679587663952
0,528377288018222
0,533098512826741
0,534791846012923
0,53210707451433
0,532932524957862
0,54024595080762
0,534604105012587
0,545644312292584
0,536531627412796
0,547447031969521
0,543973761957709
0,55158209148857
0,552362020808731
0,54998584705905
0,551354996096435
0,556234842013799
0,553259642878887
0,565223927373258
0,561235064886948
0,563882416130494
0,562529901315149
0,562108443673174
0,562381182005571
0,564233207378167
0,565838850415404
0,571940193870099
0,56612630392208
0,56527797618683
0,562731775889263
0,567394789595831
0,561831644636791
0,565177791082039
0,558223832222984
0,557276433775046
0,558306344869305
0,558333944362891
0,553807735164227
0,558595848469083
0,555139019036128
0,549489042927128
0,551505419925563
0,553697328529926
0,545942361812937
0,543548885368862
0,541972214750617
0,541435585698284
0,53917758693794
0,537796771275827
0,533437895996743
0,536716813248236
0,527161226991425
0,530760984996136
0,529295948542453
0,530870554644921
0,52793478938496
0,529254774689355
0,526145638383844
0,52484048424062
0,523739023781984
0,523643032068119
0,523650097066745
0,521630048587036
0,519612259526161
0,515946878678475
0,517809317926442
0,512602819300024
0,504318958527813
0,507735820913308
0,501444122525563
0,496916960034349
0,494531761015967
0,49440713621934
0,490862829852079
0,483731843820967
0,477309673148813
0,476480764878234
0,471813275240127
0,472065648157604
0,466335764955567
0,470134992338812
0,465812239115635
0,466536968850513
0,462943879340963
0,463471515343898
0,456800650839708
0,46043314640591
0,456312906980294
0,456961724296292
0,450326081130115
0,452472687271421
0,444798115959348
0,446312661908686
0,438253442323443
0,435591449906849
0,429646003133333
0,423962329619699
0,41989615472852
0,414566851688343
0,414078522554646
0,409933080736954
0,407382099959001
0,409393291409293
0,410133716625907
0,415826121531913
0,422038362835182
0,428401129100243
0,435237363518493
0,446781051576783
0,452617264315097
0,469983848581986
0,481626559362042
0,497711831396732
0,512271178972342
0,534345351398959
0,546303325627098
0,563322274324434
0,58135859015631
0,600859855859223
0,615621546972842
0,633415908068531
0,652729694585945
0,665748296166769
0,686626464873133
0,696364789423064
0,713322438272739
0,728246118117258
0,732610757927449
0,755178230533058
0,759031023393213
0,77386815431085
0,781784422421042
0,790272434829271
0,799382858877089
0,81395551006781
0,806831154933141
0,821221650587695
0,836536185520244
0,837480860957647
0,835518543636035
0,842901865484794
0,847598641866984
0,846126473534784
0,847593762881882
0,854327132775543
0,856696125756245
0,849565791172356
0,856887528288901
0,857682148117118
0,865340829490926
0,865181569314642
0,866544165695327
0,868649120414127
0,874241200233934
0,881406535619961
0,875541005948529
0,898236722470439
0,900448021477744
0,908420634861329
0,926534868487806
0,922309462292501
0,921987139582996
0,93690640121238
0,933346159115097
0,954497345517355
0,971273790869526
0,979298500149075
0,992995905020619
1,00851663015591
1,03460143596941
1,03627398479593
1,04659069952015
1,06032268853933
1,06593641731072
1,07662321831083
1,09438318787001
1,10307872529275
1,10358091173033
1,09787948990349
1,06921809226902
1,08400592065903
1,09730030400515
1,08184915728162
1,08575328085023
1,08266938733411
1,07800797540788
1,06828207567963
1,07775248338217
1,06573827427795
1,08432789748787
1,0918065033183
1,10348322362516
1,10958173359241
1,11877348605376
1,16184165154516
1,17129779910204
1,19680010842055
1,20291473659395
1,19487320602073
1,25139690291807
1,23892505158083
1,27251976534606
1,28313772459065
1,31320019249548
1,29864184189052
1,36615179540969
1,34334453704163
1,36229711884773
1,40071073136812
1,38403167357386
1,43542465464768
1,45209078225175
1,49122062077129
1,51315375373145
1,59498397209268
1,57670320710703
1,5955912181671
1,63840881359659
1,5978543369864
1,66177800298901
1,62166501904452
1,74433768403831
1,74507634998775
1,75607136917273
1,77512758945337
1,82770797198518
1,8919214641513
1,81372214722534
1,90058421702727
1,80330170094305
1,89664440027548
1,76748814477606
1,81428435603616
1,7499885101319
1,71308290351806
1,94146661762615
1,91215448754014
1,76044347656435
1,73023672261723
1,83103913674689
1,74879880045522
1,74491336372174
1,92250757220667
1,73978277574905
1,82248946900066
1,79988021824934
1,82265880840499
1,88251235984536
1,83942590815137
1,87489873910577
1,83165513516234
1,77276630344221
1,96848426694751
2,02194872841452
1,89718665042459
2,34766551301939
1,99046693791554
2,01506029888929
2,04645003487812
1,95176333906728
1,88298899296777
1,96783054463273
1,97235381254092
2,27977293606203
2,03138551404001
1,98303174669691
1,92805707456328
2,09620799528863
2,46931985584261
1,95936553837
2,07857231478422
2,11721045710304
2,05855945524854
1,97425633284728
2,03408972752786
2,20989840653489
2,07482212834677
2,22729175471637
1,95155466804667
2,39893712847688
2,19356470341386
2,36131280320185
2,06440224114706
2,36094241650213
2,26063786966907
2,21588464314925
1,96881265522117
2,03135276957552
1,84405573590311
2,15720204314924
1,92105210984694
2,03781386777063
1,85108832339392
1,81908973054315
1,6411236369913
1,59430807832183
1,69561059379993
1,64870298027038
1,59245652652792
1,61791989296609
1,49618590636468
1,52456786554962
1,50481410630376
1,55954296391928
1,4164162364135
1,54014287967657
1,44570727422897
1,47146328306967
1,48748752606681
1,44944449550695
1,44251106168783
1,44082059319209
1,35387499514284
1,41887636521481
1,41809660241244
1,35717244903624
1,31323452319171
1,3268790903798
1,32332276246723
1,30201420354615
1,20817605739199
1,23489400947271
1,23703970035324
1,16590630578051
1,1071117798941
1,11042815236366
1,05238709951765
1,0170065697534
0,976679327446887
0,944672388380723
0,892454959391423
0,86523217606945
0,83022263920531
0,821260932173197
0,786462037749042
0,76070205602235
0,731478407360659
0,7053494213473
0,69297926205953
0,676170527642437
0,661362058910163
0,645309450696245
0,633564403726392
0,622296709387746
0,615932601611139
0,61771114232024
0,603313078570444
0,603185488530294
0,595305486461226
0,598295949612679
0,591848382964488
0,589067840220355
0,597649286687465
0,595316124144904
0,596142181024376
0,59606945290627
0,598526333698697
0,598284751300792
0,593485163823391
0,587667669449049
0,589879517264763
0,586335988223793
0,592146878936917
0,578666171698524
0,569429204289854
0,569134741113831
0,564571882850276
0,567920358875835
0,552375041026215
0,561046127776791
0,548223813081746
0,534978674611546
0,53770190652994
0,538624794163329
0,543750318824441
0,537180176966961
0,54354706020879
0,549479135148048
0,542977115172635
0,548046410416446
0,545486470343521
0,562941935407689
0,559889585774132
0,568124616722334
0,56958443628308
0,567248214038503
0,567957856155228
0,576518849040572
0,574991197384915
0,580047304175605
0,585467632129317
0,588841434276311
0,587462024823526
0,590606380601065
0,590406160304457
0,586713075188234
0,584293435397342
0,592098828047405
0,59081110658844
0,599165716346871
0,605613381506517
0,607506489534315
0,60055231616653
0,626789096242829
0,628012165367437
0,629203370812856
0,642256633419498
0,652201980721441
0,664569264494421
0,68955265867417
0,689061292252164
0,731193932307127
0,731376772571909
0,764525059872786
0,759702243229185
0,769768610367241
0,753655177352242
0,767896086732579
0,735645468650908
0,774228877347536
0,729426435350376
0,746945981646998
0,736369310242962
0,726764773263416
0,717889874578551
0,703576936074132
0,699137028321304
0,707706323079214
0,689391976259686
0,712810422155795
0,70007802250987
0,730206434664872
0,712343244813436
0,704771616846286
0,705433084340431
0,713095282387085
0,705121875639562
0,701418562471657
0,694132404636243
0,692033012942857
0,667518702618982
0,691934420831964
0,660060469083452
0,650451971399094
0,669807588684434
0,660921415638013
0,627730676205921
0,635119699844034
0,644618563220351
0,643603460091275
0,632899762883575
0,633855163058635
0,621437255535289
0,631448269148683
0,623601867182515
0,637012559815234
0,614923659589579
0,630837091532674
0,601214749385359
0,593678964616819
0,607408938321271
0,634242645681656
0,594255831015415
0,599374057925346
0,580831061585736
0,589394508299839
0,587365175642421
0,591700684854695
0,585736274637137
0,598512489528447
0,583698567065308
0,589453469452935
0,568201153190178
0,573468086572095
0,575483516494278
0,580946233239788
0,554245891374444
0,574338928663182
0,575386103699727
0,57081230040082
0,551215134109274
0,577346510594173
0,574712617482533
0,569440257030732
0,55446715787869
0,565261655652234
0,552044049893357
0,574171725583936
0,571009807376071
0,576719912178246
0,545467853351028
0,576524143580153
0,578444089355302
0,586857808644292
0,597366984498013
0,584379207403372
0,574941211154826
0,567849400544769
0,58906513136317
0,60500300424737
0,570705725075769
0,602925047087342
0,589969494099463
0,613816204289413
0,597654252800008
0,622937237199938
0,6160404143016
0,644915635403008
0,598386418086392
0,639785824559146
0,624850513643453
0,65374011895761
0,638069847067587
0,670334150226704
0,643506116504624
0,675222305340689
0,667929568427367
0,683079569767042
0,669880419551487
0,688920727240225
0,723855805801212
0,789296912058359
0,76516064987391
0,811944198572185
0,786741240945872
0,828045648199544
0,853744365282111
0,808733883450499
0,863410115710649
0,895190591392168
0,910915074610828
0,963910340318194
0,913921427584664
0,936729641981474
0,879314100885686
0,988860916413257
0,885383029365283
0,939705913958922
0,878520244042504
0,88904367420669
0,882613224610589
0,917769613538702
0,888411550130751
0,918662261091511
0,956110692943397
0,952143088797889
0,858930610679993
0,939327240046981
0,896753567154566
0,906135778373682
0,886423135949295
0,876109177175749
0,916251853097916
0,914124936725869
0,845011474872211
0,923022437259588
0,854337018726143
0,934324605929561
0,847281361171495
0,908085700446325
0,785601420339746
0,836388344451203
0,834070444008785
0,875277323621
0,754145707548126
0,856063711076872
0,904452866822823
0,86648214949905
0,839145525325987
0,834265711114455
0,752841186648415
0,891301951407119
0,924019220951526
0,867668929555777
0,863985336242395
0,919515826663823
0,820852083172112
0,906466042178921
0,885562077615546
0,922973138085222
0,802467766400789
0,882654067402177
0,802715788313154
0,870156357686348
0,982614554420047
1,06445964042015
0,785600940830541
0,871084303671682
0,867311896001863
0,832474228924822
0,912960919461431
0,97807634174533
0,863374805452462
0,978206822837657
0,913754927264012
0,884772282366727
0,791543419828831
0,999016289378166
0,959923174534505
1,07098142241307
0,859097437695016
0,889215704689953
0,957940202370954
1,04919877046281
0,916355352370216
0,965536262423185
0,879288484373911
0,977197775709882
0,871120351803704
0,890086774829393
1,03633112178598
1,11189843483909
1,0135435702983
1,85115717341979
1,26446298338112
1,25641190366353
1,2321623677906
1,20734998679838
1,13522932820603
1,12709717893055
1,02107038109282
1,4440878649746
0,977694798693926
1,14662387011892
1,11870080535457
1,01961445043746
0,859324887632588
1,16506743096577
1,1834506107744
1,18429340989938
0,994392637687149
1,3143547589966
1,15826838022991
1,33211122723286
1,07365430442517
1,07695586294607
1,07170446871415
1,16442203312638
0,936333433515921
1,52167142808091
1,31680748716548
2,44174081239038
1,10195943491884
1,19088298962646
1,20114633625061
1,49535650220607
1,08315094674021
1,09633190371741
1,17320001097175
1,57815378226967
0,846393728073586
1,10881421878477
1,17362269570577
5
1,73767447699646
1,20307256220419
0,89399672799003
0,274010062357289
0,736635034529989
1,16183139368632
0,856708691863083
5
1,40177966119665
1,73163469733509
1,52641685068872
2,42556949245202
0,955577797802585
0,63939452039842
5
5
1,20435355181952
5
5
1,04297432183973
1,40256331144466
1,2623983746426
0,72469903934054
