3596
4000,36533379555
650,420452594757
1
2
2
0,0967415874743714
0,086312979686904
0,100514422193764
0,0851602321965423
0,103327417505171
0,0884794239399117
0,0963165952166218
0,0871354206194976
0,0979037823793371
0,0844443385138137
0,0946792725140277
0,0871097039883374
0,0972146511251164
0,0766454982088694
0,0964618418798558
0,0821505355047195
0,0920890351388869
0,0945858866199236
0,0937155729777302
0,0802066262834618
0,0858289631400276
0,0762336727386916
0,0974493135643248
0,0860028969159734
0,0964147353935134
0,0933165409782851
0,0995943952943652
0,0812222113773763
0,0947443328854308
0,0941639532587026
0,0984650035534388
0,0899352481312701
0,090760436681595
0,0832688590470376
0,090128469212807
0,0823955472827697
0,0977442960532368
0,0859123695785528
0,0925567364000356
0,0941252704118128
0,109620099016861
0,0969592645203207
0,0943647404029334
0,0794870593942513
0,0950278972899698
0,0919055371965186
0,0994741564214556
0,087862169922346
0,101387562485757
0,0928252749437255
0,095013786669344
0,0847964831409663
0,111674357683729
0,0967268105678594
0,106681098641926
0,113803368737547
0,10037575470119
0,0828014895713843
0,0951687157307366
0,0904410177314715
0,126277992918221
0,112481464704691
0,0923455186218015
0,0918672611213538
0,0905570947261495
0,0853291650923472
0,0885125065835674
0,088325254289568
0,0882983919571653
0,0953079299532146
0,0951547482601116
0,119219473403725
0,131068756909049
0,0899452025406112
0,107503306126361
0,0944393974973315
0,0953533054261936
0,0864855836354449
0,0952053100997931
0,101129372759601
0,120325176897182
0,0968941230934802
0,0918299798880153
0,0785567844268172
0,107779416094697
0,11369029042698
0,0893371460465797
0,0946421993492359
0,140237932938976
0,0980240555669871
0,0919036716812318
0,0770995318780089
0,0929042776937204
0,0874766517773399
0,094034680733651
0,081275137805492
0,0863170528677575
0,0827853962613067
0,094720111873602
0,0944730733211769
0,112069009918373
0,104928345143061
0,1551551149255
0,107083166748279
0,174787355838548
0,105355242629272
0,0956099179350143
0,15286324236151
0,113587219257685
0,0874683067592301
0,0829547115465839
0,0914397384670508
0,094468504571829
0,0987593416558376
0,0885060671205797
0,122466409656092
0,128164465779392
0,0909861192843112
0,0972518825444432
0,0909922941507087
0,0956387870072646
0,127229635350965
0,146969972095805
0,0920631227044638
0,118527764149933
0,0920347404834616
0,111096439480854
0,140799999503275
0,130110445189617
0,0763459023093205
0,0912565233739882
0,0791429359919654
0,0891838258963318
0,0896324460459596
0,157537225260936
0,0953062036182994
0,106173946496059
0,0921493693993802
0,141887890827895
0,156248516649222
0,106730247948263
0,0904910819224099
0,090317540939394
0,100040765692783
0,154356526449701
0,101431298767968
0,0961411210159148
0,123203043803463
0,116092383052544
0,0784870613439794
0,0948871417187134
0,0935413944860112
0,118431594256284
0,104684218653609
0,0860689145319932
0,158933691843924
0,201914851307855
0,121414967789757
0,178585826779357
0,0878406022198952
0,115278065003584
0,082918564265915
0,0884620880155647
0,0792540461066175
0,0875412818927607
0,0800814057150177
0,12397888643943
0,13145272101053
0,0914303545061964
0,110355622305345
0,148421075489822
0,116923587460312
0,111095307983982
0,159625786550638
0,112820828937972
0,0856757591750083
0,146556488064237
0,0981110123387626
0,0879922882587716
0,104401542540077
0,130210562749959
0,0811456647701754
0,0903001723277376
0,0801643350071502
0,104070242799713
0,105611764674377
0,105810600130509
0,0892558281882621
0,0987774537995937
0,0759793617203804
0,142745967475129
0,160682570650119
0,137562599127255
0,0886621068441511
0,102660060004256
0,0665808478625112
0,142967078349127
0,136346685329976
0,0876404922745121
0,0815140605234442
0,0867425731325693
0,078043035923497
0,0815952078331729
0,0745985298102843
0,0884385213307824
0,074078933780394
0,146586152463939
0,102998230855843
0,0920295824341816
0,0895900696101241
0,107957059113202
0,104597790304957
0,162379699615977
0,129702205228573
0,090649200330376
0,0848715817639923
0,0881567052542069
0,118618961913761
0,115673431402417
0,090709869539577
0,0840524834903075
0,0734777001330813
0,0813447145173802
0,0802451423444125
0,0872352930647386
0,0813325270569459
0,0858148057757699
0,0843360607488645
0,0886188386514461
0,0873997969750422
0,103863423013317
0,089239322633407
0,084764886655985
0,0869892650890433
0,0834723168311919
0,0998749501323127
0,120264750981645
0,0902010960678262
0,092856636585315
0,0766022850845859
0,0859615047955659
0,0799629745600994
0,0846712606916613
0,0780484407335067
0,0886559039736012
0,097827450692053
0,141875640314683
0,0951264803920787
0,0857226806001816
0,083046633380377
0,116071205976158
0,108496397479487
0,0844511016425845
0,086102391491241
0,0886087737824205
0,0809155932261499
0,0945583458646139
0,133799018281628
0,0981889741878157
0,0824392276853904
0,111563829202515
0,10133067962289
0,0862092481164424
0,0891710045049434
0,105007104936872
0,198681059297524
0,130146504783337
0,11092726928236
0,173052274780697
0,122344640597466
0,109725081899162
0,0965983089060274
0,104109346895514
0,243326280048945
0,160279530298866
0,0973274781471609
0,102137202997842
0,113439617054124
0,0968117972512488
0,100525413041278
0,105868671801122
0,113326079414031
0,152840592881266
0,188670058658942
0,172188387643409
0,0950568464181089
0,139385656308027
0,128745180976471
0,0887019141693569
0,0900809890675012
0,0892449905116651
0,0957336861680904
0,121063190486863
0,126265498671065
0,112224231465336
0,101991597571025
0,104817190916877
0,129077747249424
0,101116325093509
0,0862713583530695
0,109133387812388
0,1071469679101
0,0868378807153948
0,0882310091615494
0,0922450498150906
0,101290881652688
0,0919662274186845
0,11930139114185
0,169841520300396
0,120140884905822
0,118173472398115
0,128632242937705
0,0909306000998596
0,0915325701009769
0,0883506352125628
0,0841187786453945
0,0875708156196888
0,0797162478637064
0,0963548726982128
0,127684884154504
0,0994968103721135
0,084661110618739
0,0846003532466411
0,090379664702706
0,0884023725442033
0,0890132172824036
0,0943500000720204
0,0867728290610061
0,0904090891295857
0,0928492258524233
0,129086328908716
0,12895174838033
0,102505284434517
0,15652302611841
0,1440204403172
0,0944918040315233
0,0874359543221959
0,0918753834904186
0,0935848428948299
0,0832543551311432
0,0878167390402311
0,0843079694382113
0,107008126054713
0,12550049244107
0,113905647500737
0,104746207535288
0,122938682904781
0,200922040965439
0,181991062276502
0,127008966842186
0,105157632655361
0,100542158318603
0,159161143711929
0,157999893564541
0,139060144397845
0,136532636628588
0,0994623970629955
0,105039009840854
0,0996943827815668
0,0963576131690868
0,101077550641134
0,100473816478248
0,101869156563942
0,107285823736008
0,106882115896428
0,108216033469867
0,0976526128423578
0,123415949791224
0,161282650100853
0,121341902878965
0,111101973772842
0,113672782649387
0,107840455725921
0,156292758014624
0,175133163440158
0,183800194033366
0,175384228128042
0,195243883840164
0,193474832958178
0,144020261395982
0,129629162096081
0,113126990730567
0,12475711535589
0,12944415077274
0,125490590429108
0,126806861399011
0,120174158232205
0,134772930394697
0,133256453824665
0,131259469239907
0,128004160087489
0,150210348223041
0,168343316232362
0,140403466385432
0,138151709840422
0,147761463718894
0,181386748736565
0,253131335690885
0,22178351143179
0,171042440597178
0,160691131404684
0,147458317429884
0,146057781915847
0,150379731778051
0,151478214619445
0,166635440254771
0,179262884490233
0,205816783296415
0,194915483178201
0,218343760645022
0,18198510107923
0,169800923683586
0,21063400940346
0,190116244144115
0,213930366522299
0,219693319075863
0,175393727448706
0,179244804121415
0,219452192844876
0,209954232003046
0,212254504356027
0,221724194951706
0,190809613292219
0,186108613305131
0,188390147355178
0,195486806217439
0,206605277426703
0,213163106177251
0,206340278168847
0,218888128664791
0,211175117179647
0,204361359709132
0,223766492002727
0,241394448277754
0,221201983855029
0,239406031554257
0,227177206335251
0,225159342966066
0,225515917285277
0,232058095263411
0,259412405576025
0,274816668054193
0,293113706508982
0,284881268273371
0,242934275394047
0,236288386651786
0,249573784588216
0,246615311446049
0,249373061638631
0,262807706897132
0,254801236050337
0,255561815793546
0,266898579257422
0,271401438386401
0,265906053211641
0,282274630990004
0,26744402241114
0,260482838547924
0,276010765517526
0,289563335353898
0,293278782836261
0,299544984055293
0,341752970889193
0,365207902608849
0,363664412468284
0,336866745689935
0,316218889127177
0,320112369381133
0,319845134876865
0,311280201289638
0,307192193469376
0,330819850071819
0,318439089961185
0,337177437671816
0,329400684286192
0,321916407731765
0,319653045056091
0,336674808766331
0,356012022012019
0,376364311080211
0,354118825780552
0,374611004862083
0,363503919050024
0,370972001546069
0,376968936792357
0,40428749081827
0,375279882646551
0,410002386565688
0,393720150732956
0,384502913379633
0,38230007097285
0,391137699650342
0,376055550269833
0,392078497592823
0,400929044350839
0,41657602276173
0,414509413463852
0,439486549643435
0,410646603380095
0,443058330951564
0,421113393950264
0,437782696243971
0,415788888049124
0,431514980295779
0,434400754003957
0,455712988230765
0,45374134069867
0,442554187234452
0,429275512802769
0,476725094056998
0,46809213642259
0,490173258205754
0,468697908697425
0,476843139864155
0,487998696534215
0,507528960693941
0,487417857838685
0,519656032136246
0,48152465449355
0,49214463961994
0,502400948484047
0,539082379357165
0,530694837857127
0,53145574330705
0,518569013133536
0,559211783951196
0,510398152421462
0,531643393908747
0,515720754622376
0,564918156073266
0,546104993145617
0,556647964272202
0,565344853395086
0,566628867192903
0,590683143240081
0,569079777092211
0,547250166001257
0,575591660104384
0,57717990097033
0,582622350258534
0,582412015168422
0,610540329995922
0,578715640986382
0,654107577180715
0,597675834736656
0,629879942884108
0,608467251689332
0,619184526080401
0,633152627971511
0,658615030755563
0,613430183799498
0,647588121926601
0,611659098203158
0,655204065570574
0,623855560187401
0,684712594184759
0,637107551016254
0,678676792439995
0,651467846425949
0,708250125758132
0,664400908941465
0,703974827090815
0,682225520197096
0,680167773443154
0,687235998744485
0,719462464761054
0,652154479441799
0,664631694999099
0,662970732491609
0,713203287879201
0,690557320064201
0,75039053091349
0,710912264322758
0,738471657326358
0,701513830396021
0,743220818381483
0,716659591517547
0,766837529183449
0,701443770247466
0,77663790770922
0,77263214976006
0,805049412346888
0,774502420782586
0,769261426598775
0,722856601567252
0,766711437987411
0,726360565804999
0,785603487949366
0,767334997379891
0,795923187663057
0,774009041706502
0,784822893874531
0,77641650368283
0,793407815638318
0,793422178628342
0,846548283902744
0,774318546014665
0,839728083798515
0,794356029365354
0,859723897133233
0,804102718046446
0,831825881955404
0,766950362789528
0,799920107030479
0,81198301128194
0,880593316409805
0,850847205494524
0,873193169377081
0,818491674738362
0,850739188738894
0,899633379218707
0,903823318702952
0,844830483491932
0,939481519750148
0,908358895067091
0,886374950019731
0,899603002325401
0,907082421173304
0,847763443811824
0,93642939470511
0,865647250041282
0,943508781867389
0,856632229370009
0,909444460526007
0,901697128618866
0,944942565353462
0,849060662268203
0,939531282220122
0,903901027124391
0,954413188372471
0,886324044151456
0,973765561863238
0,889319664176195
0,919247137009449
0,911816346056274
0,999205477048745
0,909425185932506
0,971994340907822
0,943174594181598
0,971476478451086
0,900901758640516
1,00616508666158
0,913153804087557
0,967521888225941
0,928557870439546
1,00112362563492
0,968011626009449
1,02618095938449
0,942117960170199
1,06005674464817
0,871476121652243
0,95483889041366
0,904936803514185
1,02729783231192
0,958552995331622
0,976402179950942
0,970556860386449
1,06051038470886
0,968691340672688
1,07814689768753
0,970244348890367
1,06570745657087
0,919090391387511
1,031582004693
1,02019560911985
1,00134609836892
0,945710036084402
1,03545157572502
0,947194817747014
1,04314833629376
0,970069708799406
1,08457610141563
0,95036532590266
1,09296571169757
0,993822414946055
1,02677969213654
0,934708830758394
1,07292307034768
1,00998024513672
1,0530108440182
1,04295644775411
1,09754943373524
0,982161464118249
1,08590182051156
1,01038665051762
1,03121506261619
0,993940787559833
1,10153916688046
1,01481855757933
1,06023025353076
1,00840659681548
1,17422243520004
0,997336766227349
1,16072525884469
1,02796450267799
1,04641921644125
0,936587147233809
1,05593718156339
0,997352174911891
1,06786064895702
1,04832283518332
1,0788117652366
1,02969218945266
1,10508644346627
1,01403180591291
1,12090407071355
0,956998491901408
1,04186404633664
0,986893154848919
1,09195017963275
1,02111058919942
1,09475039610122
1,0449163382157
1,07808908660838
0,987198792554272
1,08784682746447
1,02890848962132
1,10768008671092
1,01162933205628
1,1410441599388
0,985125957313378
1,05635391945335
1,06037256544568
1,08630735516771
0,996722573885537
1,06331017366941
1,00404555282059
1,0704653338358
0,996762187416159
1,11388062489519
1,02338151121588
1,1468130157013
1,03466487072087
1,13058351876293
0,987558305070773
1,01186554210605
0,98338313407197
1,04411074002329
1,00772031723767
1,03974504001424
1,00958014694723
1,03662707688718
1,00142558902164
1,07773126290571
0,998845749115417
1,05399447631549
0,988727683631036
1,08245665206381
0,998070789145207
1,06706968952805
0,972436253592678
1,04683435593484
1,03218728350915
1,03775368076896
0,966176074900706
1,08435119987309
0,985323499725463
1,09062674873297
0,96904932761259
1,04855549208755
0,975765429255618
1,0165295116242
0,996600507068165
1,03508865216294
1,04921201204317
1,01955744022047
0,990874110381109
1,05841788849413
0,959124000737964
1,01412100026136
0,952980049244178
1,10880410572657
0,964102054811196
1,0491040909509
0,943551130730466
1,03733779563941
0,949880735595083
1,02519557672123
0,959829166692512
1,03036598934515
0,948173449935165
1,01049262994905
0,951689926620897
0,994315304651131
0,960882085982074
0,994166490481643
0,916952761350784
1,01430125364118
0,931428216086525
1,01908806112892
0,944458348757682
0,957796557178773
0,937749013006782
0,977547573550975
0,898108303839314
0,993741258398467
0,903450794875841
0,973984676692497
0,938470767869711
0,986369278621925
0,894414452783417
0,973844844233427
0,907189411018167
0,985530603874245
0,925782112959774
0,931362131200731
0,893414692364927
0,96034651093602
0,884997064677011
0,910539064967507
0,901106870146751
0,960796824546087
0,862879941401557
0,929740304865611
0,854010104742249
0,889287515167983
0,885289362931806
0,897028503701995
0,887468331166504
0,89515733118278
0,861708852090347
0,913214986540072
0,86649775741593
0,909071107176612
0,864243413467296
0,889582311905949
0,835406526973431
0,855427789182191
0,843280446303512
0,896062982170599
0,832890248028683
0,860590032887791
0,818985922742611
0,868861660047721
0,83844369789908
0,850506616222203
0,821383309101576
0,845194316003597
0,811012123460557
0,851668735375266
0,813932844393421
0,843941916754079
0,819584337488848
0,82462886206436
0,778918078947894
0,811895924503267
0,778420787834015
0,796181183623134
0,781460629246668
0,803341599248699
0,777954463917982
0,801573325160755
0,74915229495604
0,79235530680452
0,760518837365084
0,802338118093761
0,762392226192507
0,780959081604413
0,767618534316294
0,769744752697959
0,739148382486053
0,763736261091254
0,725734336563105
0,772935689601905
0,732503861349201
0,758604969217977
0,729312005887923
0,747410851962795
0,727078086500377
0,750522227575382
0,707640872523349
0,737543150684645
0,686356905260813
0,73491628661962
0,699507231067628
0,713855396991235
0,715632992454964
0,712292173369769
0,675088001575025
0,69124213466862
0,679649326390457
0,707137162339121
0,66358889722027
0,697259412394918
0,682923170881297
0,663934678760291
0,654174886109132
0,698691902514929
0,68661803921404
0,675455194468401
0,638361252536852
0,672265707932737
0,642797978643926
0,64840433731468
0,626965231524212
0,645061827677067
0,613950548178029
0,643018655247563
0,611592108792109
0,627682723552327
0,601907422117695
0,627592877370768
0,600629714209056
0,621020979134053
0,588946010007542
0,620979252151791
0,585448831129372
0,607318583511966
0,589468855964833
0,600716310688728
0,576382873620337
0,592753866237322
0,587127556725767
0,587889693486949
0,557482221682469
0,580604622809734
0,576991592064696
0,563977447021495
0,545426533048451
0,579480286863437
0,5526838092025
0,581639526833684
0,541142889387745
0,540862901638177
0,541327211204339
0,557395066310589
0,534483621486796
0,558577559320121
0,536591692022553
0,538836886178729
0,526140114573352
0,528129515519028
0,512276816680175
0,526440359426899
0,515659043367237
0,530610730683025
0,510561807990785
0,513443430932303
0,497607819357814
0,507063608895258
0,492807869716166
0,519627894991947
0,489143776988066
0,501248434696354
0,489014512892088
0,500129079038601
0,482595552186314
0,494742759569151
0,463977092603255
0,488097037253209
0,469794545279867
0,47710944142385
0,467562047680209
0,483011391970297
0,464049101821022
0,470198921626993
0,452065446239429
0,469605386798345
0,451332942551532
0,460003055652568
0,442826095260081
0,469135943613037
0,434338207524873
0,440328968028737
0,439478696442867
0,444959782291923
0,431929088675984
0,443095490949188
0,424857986629648
0,449267403080257
0,432911697921039
0,437730913075694
0,424887292676486
0,430903357500282
0,414585003330064
0,419188189220793
0,414165989755234
0,420279300181352
0,407929408292627
0,415340964226035
0,400297304389743
0,412935172568475
0,402734651317708
0,406752407322903
0,395321497303476
0,399614188760361
0,385522016977287
0,401813983120194
0,384937745387988
0,397698666878366
0,386761025168013
0,384465167730096
0,369141229987163
0,38973034328683
0,38232350970247
0,376382883296587
0,367917175670265
0,381137170983386
0,361483106906814
0,368711053883526
0,366613760725348
0,372105882707963
0,369489168932785
0,374986744135713
0,355378538764835
0,363595849849695
0,353064154157392
0,366091694180731
0,357010571285949
0,347415162421369
0,340918310954989
0,349675517678192
0,340501496016151
0,351422263198644
0,346310766901399
0,339041437623455
0,333161737071117
0,336744090042596
0,328319195549307
0,334259096029866
0,32906579814224
0,335885555558937
0,32647492718374
0,332572141988034
0,322482540955502
0,329846534526619
0,320918341803109
0,316966059671604
0,311763594201977
0,320971340996672
0,313464533281726
0,317117747792223
0,306875168450267
0,31075415901123
0,303620310880344
0,308626067797406
0,300971672595724
0,299820429084652
0,298416015558541
0,307992035711754
0,299116778777249
0,301062152673738
0,291205857191002
0,298290542993212
0,285735300453231
0,291995603979435
0,28810802174743
0,288183504263253
0,284546386280294
0,296036770120247
0,276694780192107
0,27726590838959
0,276506863071727
0,278028637764612
0,273515147195949
0,281278162539697
0,273564021948899
0,277020588950297
0,269455917464969
0,277806017856001
0,269387305174494
0,272173113787708
0,265603984669655
0,269438786833826
0,264593288023642
0,27047495057835
0,26868613833515
0,265991310305427
0,260547839576167
0,266318614814328
0,260609997371175
0,269452415481284
0,257026193177327
0,264395443614264
0,26394112690402
0,267935228313503
0,254800459992123
0,263227847202887
0,266724789145405
0,270490652512105
0,267479682399357
0,263834234212913
0,263613242180834
0,273102304048296
0,267865716003609
0,273060827612805
0,268694962278211
0,265704363153494
0,263092047507384
0,272069310094851
0,272136355616901
0,27417127751029
0,269091386325678
0,277585432957014
0,274977392017731
0,276231208917613
0,275487590271964
0,286721235214777
0,279369503923334
0,291019948677753
0,275848092769522
0,292830178341956
0,287853588874708
0,295264074173789
0,283801726271023
0,295241454030061
0,288590542250121
0,297584062378229
0,296803729514351
0,307441158529457
0,295425488791495
0,299210576568979
0,296950141499886
0,300385077111204
0,309274560050883
0,317608673060737
0,309628335402187
0,310185397691843
0,312613820258539
0,318772600312367
0,315679205322147
0,32110294576917
0,316759397458419
0,328810484017029
0,332035483458991
0,328794349444002
0,322238408335928
0,333211353560937
0,325326843616242
0,341856131158564
0,337385953821569
0,3398873460248
0,340597172894232
0,339524143347632
0,347342686490078
0,357519859442082
0,354363336751075
0,353384425008566
0,352977482370744
0,366454360599971
0,363332305283792
0,370513486034124
0,364399241643177
0,365880528343831
0,35585976898123
0,373487680103831
0,380521410339279
0,372201101693555
0,365535435803977
0,380849710316977
0,372256531368096
0,378666509438769
0,374409818458899
0,375232545598202
0,368022177336638
0,368868554021053
0,36969434120975
0,37302051235747
0,371022295267104
0,366267885563792
0,369770153791939
0,375487057972705
0,368515653628758
0,372773012615331
0,364513995511212
0,365521488279735
0,361988733824982
0,367496602225193
0,359043650468598
0,368109329082135
0,35985315908339
0,364051495374299
0,360211380368987
0,364946773559178
0,362776537226012
0,362453728221538
0,362384264415741
0,370385819749863
0,363991190437217
0,373550172579981
0,36538478090855
0,366701611995342
0,365045923142894
0,367024044582974
0,364822181989804
0,366897842590624
0,359765947055523
0,366434469103994
0,363069020180862
0,370453327876537
0,363875619587283
0,364423359916076
0,363263645629543
0,365669215223587
0,364227319988651
0,369089701002858
0,361867399965417
0,368280184501249
0,36574283736669
0,363656214041014
0,360031595280006
0,36314013886735
0,358501042489012
0,36534121229487
0,356059648036472
0,352073894160889
0,351078589673202
0,351508294254096
0,345718901984498
0,346442697521601
0,342221893814935
0,342112396965282
0,338503338923428
0,345047818498843
0,337731843335937
0,340609092555049
0,337166088689125
0,33357500834929
0,322944095722691
0,332676508747042
0,326850089378736
0,326581154389178
0,31489076044892
0,315454871309677
0,307599059076299
0,309746198325574
0,300960023102477
0,297620265450952
0,293180651804672
0,300052490500595
0,297426766890087
0,294822981443671
0,280453396664026
0,284654695261192
0,28078288263578
0,27794904121633
0,274831275193009
0,27903181384486
0,27685489827548
0,28030647881164
0,267908875882601
0,269089037085177
0,267835169985154
0,264388289248591
0,266861451747199
0,262188977234351
0,254724162169165
0,255199714613547
0,251784339105537
0,256233584433976
0,25252417506984
0,253793863475271
0,249140078509802
0,250278735600475
0,242731931142565
0,248203555562156
0,246449951740949
0,242760114014563
0,242779870206298
0,241481014162992
0,237849944617948
0,23603685275012
0,235037364103471
0,232888406190407
0,230820706761461
0,238120344888028
0,230552383596024
0,234178826836755
0,228571577646988
0,231365677479401
0,225115807851984
0,226754646629933
0,222486025367113
0,224022348168641
0,219514250578307
0,220023081809524
0,219244721738769
0,217628011817056
0,21455462233033
0,214879688168948
0,216912064357404
0,214474793907825
0,210297958867526
0,215900063612884
0,209486491355919
0,209169993701713
0,212349208278152
0,21165784129231
0,208499210154351
0,206118292518327
0,202327045761586
0,204003573916894
0,202768191200365
0,204614939371147
0,203003251844941
0,205616228896334
0,203507824922361
0,202228255289885
0,202280375051153
0,195823164364543
0,198462839632177
0,203052139340996
0,195471263009865
0,199001357523198
0,195881616396924
0,19652616165366
0,195717650055778
0,199227242913426
0,194905777223395
0,195203693638385
0,192171020927347
0,192862496041234
0,190827832702917
0,191463519139402
0,191823818877161
0,189848900520428
0,186841732107334
0,189390550736782
0,188133808681656
0,189016177770792
0,189312657367378
0,186941591445577
0,185789743212756
0,191659759064866
0,1832422393364
0,18286411366441
0,183813835275431
0,183325728957899
0,183997532096122
0,182912920241751
0,181880324113035
0,179222148341922
0,176218632121703
0,181104739321911
0,178459343588189
0,175661914669696
0,177012049253595
0,18114245126886
0,179024152955426
0,175452801464933
0,176423338934876
0,177388777321451
0,175801151652291
0,17839067233036
0,177864607828417
0,177230583685648
0,175558528527766
0,178129603737257
0,171466554808102
0,169575162647511
0,172758059081677
0,172813864229245
0,170711277984024
0,17171811415153
0,172028581567115
0,169932675828703
0,17222117656682
0,172850115648698
0,168283655987796
0,173252767570585
0,172855104334376
0,168895688555881
0,169042863078275
0,172983797914942
0,172281882050577
0,172421335484612
0,172074291939897
0,17180096510565
0,171643902369554
0,172702581330816
0,171521624470908
0,171578654531899
0,168466667092425
0,162613635024167
0,165730966701667
0,168296020171865
0,166132905679242
0,168632636897751
0,167757252503717
0,163805680191057
0,165741756229853
0,167174208036392
0,16289879366034
0,164572462514967
0,162466713503407
0,163281412002937
0,164843927075558
0,159516424519929
0,163021900294393
0,162340608242585
0,160278301082984
0,159800169545961
0,158281972037003
0,161158884410215
0,159532122266038
0,160423436819554
0,15887275076838
0,157490037350269
0,160001956064291
0,154608789891006
0,153788147490774
0,15898737734264
0,15585263836898
0,155903090699244
0,153759567233452
0,151657673080072
0,152779351918599
0,15303561894168
0,15281418522457
0,153412031474017
0,151650931498553
0,149441185569868
0,14877843083914
0,152047510935317
0,153335490874804
0,146999725894996
0,149911971519305
0,149471103956705
0,146598637239942
0,147755565240592
0,146356784649284
0,145493864109215
0,145707164515914
0,14575233223081
0,147299986859425
0,14355667870081
0,143340547862866
0,146307494633851
0,145274330271668
0,14452412328566
0,143236805075153
0,143183266130584
0,143129658556632
0,142322207658812
0,141559806070431
0,140151728743591
0,142235457780652
0,141394407000544
0,143266848270345
0,140207358747137
0,138110053362846
0,143136046810641
0,139349931559774
0,13622118091245
0,136494901786646
0,134876636365091
0,136633206961754
0,133383979721204
0,133368543981497
0,132598947768043
0,135608954909557
0,13385455031891
0,131698697306078
0,130180474459136
0,130467148153537
0,132702922429883
0,131125835340381
0,128028086341348
0,127337900151343
0,125798153674083
0,126606408120477
0,125971634246087
0,127159336671763
0,125990055190889
0,123279538903115
0,123211978646596
0,122578264013017
0,123435730874084
0,128134773978274
0,121201588137733
0,118716568687924
0,117810412463454
0,120633169016116
0,122203074569551
0,120711072644657
0,121098387693694
0,118973271216888
0,118691911779115
0,119829176727402
0,117946189944369
0,118499529702754
0,11715687941265
0,12127611083777
0,11798613330141
0,115763638799364
0,115240217391464
0,115455877467199
0,115132198588958
0,117963569862547
0,115293358395073
0,115152556668029
0,114138224820447
0,113032008244154
0,111639387636734
0,114091722459374
0,113753596120721
0,111121777706077
0,110313350047722
0,114876055147379
0,113005938784685
0,110942540301662
0,112419830754504
0,112819123801024
0,110941628564055
0,112506989490806
0,10816239303054
0,110435889808639
0,110555877687626
0,10964705236504
0,108181751317383
0,108549847775165
0,107601737320733
0,108618861405369
0,106857809067438
0,10889306707657
0,108693801475662
0,105807153162174
0,106803285003247
0,101770827641118
0,101319313770265
0,103711864794971
0,101992061905993
0,100676463076331
0,0992020439295985
0,102768126434168
0,0997060633945016
0,10098468657109
0,102210478760385
0,101202557349595
0,0990469123046795
0,102522720025413
0,101346816178025
0,101885590757286
0,102361632555901
0,102037780081187
0,0990836810320328
0,100013184169307
0,0993394168065709
0,0996994856182116
0,100723811403938
0,101357272927099
0,097924363020461
0,0988613995289981
0,0989500887736464
0,103049090262151
0,0986253678892866
0,0966816272657181
0,0966866429047259
0,0995128562876327
0,0974343005851153
0,0948384272388965
0,0979995163750288
0,101532960378915
0,0958100539181138
0,100399182823679
0,0990832820289851
0,0990222142287997
0,0968627384832072
0,0949362424681913
0,0954197698056898
0,097223217990037
0,0976917511691173
0,0973319583552023
0,0955988450508775
0,0973280862304515
0,0963714639549419
0,0975673313723382
0,0939475467016358
0,0949493765936016
0,0932300067253099
0,0952614289440526
0,0972865510881979
0,0948241784780194
0,0904849173528382
0,0935781720322732
0,0924213327399616
0,0945186247414245
0,0937419170406776
0,0926769480223615
0,0939132823876757
0,094196128028512
0,0939708646843603
0,0941355261854589
0,089437468761511
0,0915772723222913
0,0929767633150564
0,0901795819896186
0,0874200937909852
0,0919217789610448
0,0890919222389767
0,0899480164120624
0,0906767346852788
0,0898001422974473
0,0888283449259228
0,0895230839211414
0,0883976094883154
0,0913801549104646
0,089949843833427
0,0909673005487832
0,0897546039810504
0,0899981816466323
0,0857982549757588
0,0858773455805686
0,0867691100599494
0,087116163434559
0,0867732855162336
0,0900770399188287
0,0883368045033102
0,0891376582370069
0,0886506083125524
0,090222830316027
0,087299619861696
0,0862403346726107
0,085831308867678
0,0887217001229782
0,0851584407148078
0,0861975607212791
0,0854858387647467
0,0886641724502249
0,0847554726585494
0,0874293257218462
0,0875310013300743
0,0849432838862854
0,0834291393622012
0,0854257605584431
0,0858734098618669
0,0855986573859275
0,083564862939646
0,0849159472474957
0,0841099057201463
0,0816319296783989
0,0822809624778648
0,0828101707130991
0,0815024205995101
0,0842205911561741
0,0804930338559604
0,0813899844118043
0,0795084270370198
0,0785542910276167
0,0795369457199445
0,0809777718327867
0,078965718091297
0,0810482399140122
0,0760733706106246
0,0780280985155109
0,0781554395266253
0,0785982679474092
0,0769237486884127
0,0805093382203854
0,0777439306416269
0,0786071272803819
0,0760970650323567
0,0771118078273343
0,0762535178185878
0,075997484219333
0,0724759830551449
0,0763860407370792
0,0726577042385887
0,0742500913831972
0,0753454455551692
0,0758146100998325
0,0749029618803818
0,0756071714168409
0,0734732993042286
0,0746668930669784
0,0693376668033253
0,0744540341940023
0,0732444740057219
0,0721750628238656
0,0719007872092004
0,0749058301188045
0,0720872916530539
0,0736733590622854
0,0716563971660923
0,0714099149620433
0,0719104153491255
0,0755851077204924
0,0705102507571414
0,0740099871803445
0,0719826485896167
0,07353474549642
0,0672121980336446
0,0683888029182954
0,0721252632611919
0,0727708911277409
0,0723344727159769
0,0739919234663587
0,0661562578561601
0,0703272170083557
0,0693691318705272
0,0695753287392824
0,0705601080915671
0,0731289837405259
0,067061249409867
0,0689446599395923
0,0673873298756555
0,0691721592187113
0,0664499209729189
0,065321987986794
0,0653556096730992
0,0659134387671533
0,0639956083730744
0,0668730716379375
0,0669331155660303
0,0651896831946024
0,0635711239606811
0,0674424985982105
0,0663166481435598
0,0668025813798067
0,0647652063936885
0,0639522211098849
0,0624434293148271
0,0638725805130456
0,0607234807840828
0,0646322815192115
0,0636770927480383
0,0627540667394671
0,062041842224049
0,0626310979384669
0,0631812348463143
0,0630675285002034
0,0619454463988275
0,0645270415149553
0,0626545120868737
0,0647688854605982
0,0589482121884157
0,0630824612129598
0,0633815457765245
0,0645755861339153
0,0589629384394801
0,0632159608746018
0,0615279549072143
0,0641402238450387
0,0613114672920521
0,0677181099150947
0,0658424718543696
0,0668591710657104
0,0659281867658585
0,0706905209982865
0,068955571964842
0,0712971333190087
0,0712684660676978
0,0751378080690444
0,0727555063897474
0,0774617716438629
0,0750407391113151
0,077294266836697
0,0718226921473036
0,0742406647070681
0,0672085964737904
0,0727138381190296
0,0702089504615329
0,0786415349450532
0,0702693544714936
0,0701263886934987
0,0649710836469259
0,0785560344578603
0,0664268459494896
0,0722829805341542
0,0694740963660479
0,0777384908722336
0,0648254479543642
0,0755627814795476
0,0665014102017341
0,071480729179094
0,0663983663013618
0,0696952997883667
0,0691483004931389
0,0697542526806258
0,0668788096670583
0,0753998274424575
0,0615533915100053
0,064981639899258
0,0640352945723475
0,0693203217041714
0,062296156261512
0,0675128455763807
0,0644700688185535
0,0650461343954034
0,0646352814412971
0,0632478122458073
0,0662695192613823
0,0638273766496309
0,0650598754796171
0,0632264488253392
0,0698896017558622
0,057638963288991
0,0652383195331029
0,0561689404299585
0,0732257226086899
0,0552846317482881
0,0794100178495989
0,0557114696400193
0,0853923189541412
0,0490242784458768
0,0926267193494209
0,0459964993460345
0,0967407820181704
0,0383224237231434
0,100659420333653
0,0388405941612275
0,106392430008845
0,0355188270295149
0,104568380088215
0,0415638365896327
0,0936691675437684
0,0453253447274363
0,0866679156484158
0,0549603448879443
0,0727485667319655
0,0655652576522777
0,065255930827357
0,0709039828627814
0,0570926166900137
0,072090393411946
0,0564085677326298
0,0726932958878815
0,0590167392892502
0,0635441459182852
0,0613526971094481
0,0594569216483557
0,066289260473883
0,0544603657344467
0,058124358669281
0,0534261977357361
0,0609627738660285
0,0634209298224756
0,0582398686664723
0,0550340294910602
0,0538664107356807
0,0557647146813373
0,0532022368572557
0,0548499773599891
0,0548361805754967
0,0543206529314581
0,055006467255605
0,0512226599849519
0,0525878904263505
0,0541672433783087
0,0550989165226028
0,0511225654276678
0,0535373060517581
0,0505624926956412
0,0520672289055918
0,0554619718908762
0,0520785321006646
0,0520994199607589
0,0541821736706563
0,0552111808422931
0,0560490190125003
0,0524853980567317
0,0548715642483716
0,0536065969848173
0,0526430963538037
0,0564247662725418
0,0521996112757772
0,054817430600963
0,0546519670806214
0,0509390027344072
0,0531884410799358
0,0546383106345545
0,0549196333624641
0,0541822889443546
0,0536607730288813
0,0535536770107065
0,0541383601369389
0,0517239268439017
0,0517995903320195
0,0548828262943933
0,0536820804243011
0,0533354758112634
0,0522158261787063
0,0548293148415955
0,0530495381399576
0,052007550334012
0,0523815544877802
0,0519092383241364
0,0514412527012973
0,0517709682172864
0,0513291174582553
0,0560025079073016
0,0524475218963541
0,0541344414662001
0,0542072977441712
0,0519010607799226
0,0535937392758536
0,0533104111047168
0,0507433469482137
0,0522622217406215
0,0512907055574343
0,0506230458008101
0,052100758307775
0,0520897267430951
0,0519196591733732
0,0539313950934543
0,0522893482943649
0,0513143212027702
0,0523692350571539
0,0504587703404364
0,0499861594441752
0,0538728927547679
0,0501770327625451
0,0522182793451016
0,0531834057227636
0,051517062121854
0,0517225259427519
0,0517956601848534
0,0522495930388373
0,0525514301374799
0,0519737165516255
0,0511751361218094
0,0534838235908897
0,0563794677581159
0,053112784398785
0,0543463547069038
0,0541843191860037
0,0532475325094421
0,0518951007300301
0,0521630417963863
0,0510632300268959
0,0548821083504064
0,0523776947868403
0,0517324640717874
0,0517826236591356
0,0531215723151185
0,0504178828988572
0,0540255271222521
0,0529774303504484
0,0532714917933883
0,0508085523610178
0,0536134452379838
0,0526761460543689
0,0533192708903571
0,0529042535725038
0,0547483268807832
0,0526001419774126
0,0513390092580773
0,0527626677746852
0,0518475189509443
0,053097951917231
0,0528428387400808
0,0520146866207031
0,051173578103116
0,0525988624829352
0,0532936830602334
0,0538536090229554
0,0549561486865432
0,050928757784196
0,0517248308830601
0,0514037238769306
0,0547802964738797
0,0522212086498728
0,0547821411978388
0,0516848094673944
0,0547734052192529
0,0513537155542835
0,0522467985192536
0,0524576822224543
0,053285566161779
0,0527768493954772
0,0523280509895605
0,0518213394542603
0,052743187979002
0,0538170581293694
0,0539752086097152
0,0498401631381222
0,0551097959131973
0,0513786163379293
0,0534292400659766
0,0515475019630552
0,0539223696779129
0,0518891584748649
0,0543701018771346
0,0556603747067501
0,0540557046839169
0,0546013940781883
0,0541620388439754
0,0537641356697619
0,052998300211539
0,051095848253502
0,0542748189450587
0,0541631621986011
0,0534257526520933
0,0536358668418821
0,0535754793065302
0,0522547812358324
0,0552203021380219
0,05312736088373
0,0524340106111515
0,0549278206542001
0,0564780818516956
0,0527154910311052
0,0535543509032231
0,0538351211941682
0,0528817173971672
0,0502856774190195
0,0533176963211842
0,0525464454752029
0,0521181412745587
0,052745272549986
0,0538093524965112
0,0529672338716227
0,0523653949170194
0,0524700077773805
0,0538783383364626
0,0505660310598087
0,0516407798870945
0,0526495493566781
0,0532710380117328
0,0505404564686326
0,0534737513044176
0,0513972743646528
0,0495992644213904
0,0493361665344771
0,0509348229028122
0,0503550697600299
0,0514017746287833
0,0509637147009115
0,0522140360965662
0,0503811793832875
0,0503266170708479
0,0506436236402577
0,0505885774206892
0,0502361382774199
0,050412242017912
0,0518165493847965
0,0516335280532434
0,0501647897732732
0,0507715984262917
0,0501083576329725
0,0517340075207018
0,048837303719049
0,0500813160577659
0,0507412798131711
0,0497948752365273
0,0494604532252132
0,0498521887388667
0,0511282592797393
0,0526482133344826
0,0498922505452972
0,0489300665930446
0,0485330819594603
0,0503040946527405
0,0491617485931122
0,0504305820353658
0,0520236261065808
0,0487184018189328
0,0501615482067427
0,04966419036009
0,0517719874088856
0,0499197077799003
0,0501548409800377
0,0479484414565553
0,0486288786059687
0,0516071944665889
0,0512665782055837
0,0509393932693419
0,0488089409100942
0,0483069501803064
0,0477202708796096
0,0482395189090824
0,0471642698054209
0,0488731946559483
0,048741476188931
0,0505890707357103
0,0487547954532016
0,0507906870571088
0,0496216368477484
0,0479385644244906
0,0478767505758687
0,0505810243351753
0,0468359838788228
0,046626150048891
0,0459349379280549
0,0492448891612538
0,048695088645511
0,0530058383926333
0,0515619057793198
0,0492935686325377
0,0473907968959741
0,0491635566355547
0,0501777260776651
0,0496538906473734
0,0495430533216362
0,0473825700727297
0,0448053888101447
0,050556595248882
0,0497758314323552
0,048167711891484
0,0477338487382795
0,0481447256413714
0,0475148805263411
0,047570815264503
0,0464694353550386
0,0473431526819699
0,047960716649788
0,0491424611696635
0,0467480943265647
0,0460631348291366
0,0485595237104457
0,0471203449100166
0,0502926535879408
0,0527567490381001
0,0480529124191826
0,0494195640605635
0,0477377613105603
0,0484561897812344
0,0467714738594182
0,0458457063089323
0,0443895075587418
0,0481093804744627
0,0475840008441467
0,0473623082101045
0,0455404484010926
0,0455187648683844
0,0464243209890078
0,0454778156096624
0,0476336161091206
0,0468817936497554
0,0445264924274539
0,0461313970515755
0,0465566458313903
0,0476613296958558
0,0443849447525621
0,0464212180722393
0,0467853546728865
0,0473726645311255
0,0462134933882392
0,0574187064569649
0,0457667451464063
0,0455238364600145
0,0432597295244196
0,0435662471224281
0,0421529782621406
0,0445033405482274
0,0418817142967311
0,0454325316809096
0,0439798659443831
0,0454881482478766
0,0411785521610228
0,0427764924511176
0,0443480563122533
0,0430956008171588
0,0420854251391799
0,045449421444245
0,0426027299246663
0,0421210750167626
0,0438320511515885
0,0461039313629326
0,0397485446414031
0,0441134035221759
0,0438785770756697
0,0439160860381167
0,0423598803971651
0,0552131875557822
0,0595801162857562
0,0450844028001561
0,0460448471620491
0,0492100616682781
0,0503809908777462
0,0418532260601612
0,0437965387280549
0,0436387844748197
0,0417624857625674
0,0429932874024772
0,0439946139285498
0,0412833116672734
0,0461589525549879
0,0418711374733525
0,0431820072347834
0,0414803690871154
0,0395003438228164
0,0427885023815063
0,0417492435359703
0,040470532021876
0,0425948363191675
0,0432545870167803
0,0410194415058924
0,0432300195193661
0,0431682256162169
0,0436520933923037
0,0569097893898577
0,0483562286425941
0,0451756200641866
0,0401934316670067
0,0429850188052553
0,0392590203948336
0,0434328633561089
0,0408757370981667
0,0421211573509339
0,0393343571227384
0,0400927797162699
0,0396069454040713
0,0392816299279742
0,0430803799956161
0,0434002661741546
0,0392375976828719
0,0416919883593945
0,0378621736175772
0,0406749070579002
0,0403585670116584
0,0407736130712406
0,0391310556615708
0,0419372287928274
0,0445493720845922
0,0423710307596888
0,0381879625651892
0,0561040673189184
0,0713048283893043
0,041646954256769
0,043336288248009
0,0402528378817926
0,0395497362650322
0,039980970455713
0,0409187986649566
0,0387203962662284
0,040918608344476
0,0366307450741865
0,0427482675172782
0,0391716325456456
0,0408595371566278
0,0397449496170667
0,041137791274789
0,0380948412647437
0,0396394758466133
0,0367580871990044
0,0431566477365023
0,0401586795616391
0,0490524865206771
0,062651201012262
0,0494778247196455
0,0375837114289448
0,0425265926395757
0,0422406588439405
0,0773639808611547
0,0487029337047389
0,0408194529284356
0,0409944060929547
0,0424476042574475
0,0383586482224089
0,0395822620229373
0,0369382950541112
0,0452717817053793
0,0511510539134478
0,0423848070554965
0,0478379827086528
0,0405487090526563
0,0404312317497318
0,03940653546045
0,0394848817759002
0,036625952095537
0,037879961816635
0,0382813611323656
0,0358978681484226
0,0397314112558581
0,0403123107744364
0,0385756413439654
0,0356887848427583
0,0464574594823726
0,0504382089533207
0,039010183389389
0,0404771198319378
0,0409837639495909
0,0383510020262444
0,0566987338795388
0,0677805585200108
0,0377645258842451
0,0411722111082605
0,0360184708508505
0,0411132564493542
0,0409929886529481
0,0405451308190493
0,0378428397348354
0,0380925964248431
0,0380842448760094
0,0407363016762145
0,0388253368036795
0,0380999595445303
0,0390472753548886
0,0367555687226688
0,0370290711865089
0,0386131564866233
0,0394804050956978
0,0365503665654414
0,0419863657649955
0,0437077453510629
0,0730103994244595
0,0747524432088726
0,0604513698438324
0,0588504063341189
0,0479341049210336
0,0457423474926391
0,0421901864258424
0,0404472385914567
0,0393739629095032
0,0452919161048414
0,0383448732745498
0,0416302780680035
0,0411164781987909
0,0406348062874597
0,0347510024178767
0,0376851145041329
0,0358563097757803
0,0386271407135763
0,0350770238772204
0,0402454229257563
0,035601098430116
0,0379026752568746
0,036896562334204
0,0552927622989818
0,0507738653817321
0,0462081320897797
0,0475434221435979
0,087783604003447
0,0733271638683149
0,0501744325380107
0,0502407657238588
0,0389697344639356
0,0412890851259842
0,0369567252374951
0,0426690030358408
0,0492556666714922
0,0421493993116256
0,040113618445713
0,0400106897899022
0,0433713316506335
0,0412060428410586
0,0386293849508
0,0684177839468031
0,0897495747755803
0,0569865015666108
0,046158677284936
0,0382389691464327
0,0605708039772002
0,0844759245087515
0,0437970935088436
0,0483501121804168
0,0455863625486619
0,0410419656107043
0,0390876640285888
0,0388743388099551
0,0428797457301657
0,0531952371577648
0,0438692909848089
0,0380618408296801
0,0399999544035426
0,0377642902595304
0,0460832364449957
0,0473525442105272
0,0583886990038203
0,0579218369224456
0,0406689847748587
0,0520000472012667
0,050694751292179
0,0423094852357972
0,0447735880207066
0,0421803365826273
0,0457733982626353
0,0614076512018457
0,0655841279108209
0,0563186527351867
0,0714224119177678
0,0596608763159897
0,0435804356533257
0,0512571641473185
0,0624870574785094
0,0536588865140752
0,0440821105357608
0,0694713991293299
0,0909988617674557
0,0767651297712126
0,0758300543261669
0,0485978695585891
0,0468553024138881
0,0416069239115032
0,0404613271980195
0,0465387298067087
0,0706161849439123
0,0553086334192657
0,0438260515315173
0,048472631278829
0,0595715340023036
0,0673672609073905
0,0526683103135539
0,0526659959062804
0,0440988061144557
0,0502595637269116
0,0669927779388397
0,0557775678898106
0,0565885638211216
0,100740432097583
0,0900234682407039
0,0827962150509074
0,0562458591629769
0,0612198481481463
0,0949863300338267
0,0632246066354458
0,0505329629313641
0,0503628371494177
0,0514740518365269
0,0492594050306832
0,0685667129385739
0,102492659649528
0,0645243475145229
0,0517083272809597
0,0590218759586962
0,0622785627476477
0,0899108021969184
0,0697372695326065
0,0503847875607302
0,0551185790306443
0,052852537006588
0,0671645090200268
0,114698221080705
0,0918834559665708
0,0797483694823596
0,106293535590363
0,0889147153120898
0,0856802124137053
0,069682560506954
0,0698557679168868
0,0890506234277936
0,0970677229443766
0,0644583444601074
0,0608395205733807
0,0942326902220153
0,0939955643597652
0,0701515223192895
0,0688620885513978
0,0637654473018701
0,0754282166142029
0,133920461173982
0,158028023583382
0,105566035260462
0,0747213454620181
0,0866847407582105
0,111946850323637
0,0808690480796413
0,0660468354894616
0,0690623869847167
0,0669725273085027
0,0671300424107754
0,0767090308879578
0,0866550377070191
0,0743218214066616
0,0764655473584532
0,0754672539689844
0,0864575072415016
0,133219372137589
0,169498562482828
0,126412634705064
0,120240014231278
0,124199670919573
0,121963944538142
0,0961606064368438
0,0870422606185063
0,0840989074844705
0,100092614157066
0,0935039260629989
0,0885858020505486
0,0985456882348669
0,124913555723882
0,117045124576454
0,132467524971175
0,129967543915247
0,109272000723512
0,107239618210201
0,16941767148138
0,275635322248835
0,166011118368774
0,125625709387804
0,14787103047537
0,17224021508055
0,206315550855592
0,146978841392943
0,1277313452311
0,132156119398532
0,129188245777259
0,145374931618893
0,162880938230107
0,16845408473588
0,177928069220667
0,156165507937052
0,165102290051206
0,205248955661319
0,314902861110771
0,271282002022145
0,199204211205636
0,188107241850075
0,221067155628948
0,212746785357681
0,193011923659192
0,192477141440997
0,199446172134842
0,244788337912125
0,266186261549031
0,231293163927683
0,212671356441374
0,246762617847378
0,247440910347239
0,259810649989275
0,292222350076322
0,301168781406819
0,254400804669297
0,253385477559115
0,257140549495732
0,255147987772066
0,271571730601877
0,305728246505655
0,304242180028716
0,285385428446833
0,278111238157539
0,281319336478299
0,28992631018831
0,29778369288644
0,295893096666301
0,32225272738883
0,356670898933714
0,447895061558008
0,482214960906909
0,36259531823215
0,321260668283922
0,306804728500748
0,327434045852468
0,366018580431914
0,366616526270606
0,375721466759859
0,350672475825677
0,317095051148836
0,313187957141485
0,315159099203626
0,310560864511635
0,3228967718115
0,307591742922988
0,326034109121735
0,34075788250796
0,344169460574971
0,376346044507721
0,39964797302722
0,334514875594261
0,310741077792789
0,315014508331539
0,301551216308843
0,305086040158672
0,294073738763234
0,320517236036751
0,314746162550117
0,311360057133067
0,27917405896112
0,296007597131179
0,3295157510916
0,319152595670196
0,287793798636783
0,277100758019153
0,274787514310105
0,266899529320847
0,26863729964507
0,314105238714038
0,318039829882773
0,27897589003026
0,241624043614708
0,252488588255609
0,242073301569527
0,246414021289846
0,241644710633064
0,259269808943025
0,239258872752331
0,245647915106329
0,242772914634979
0,240579752738125
0,228473508115517
0,24100816784493
0,238120667638586
0,240333587143011
0,230412795512651
0,23198471114299
0,227551791185359
0,229524014429488
0,227610876425235
0,23447132060356
0,23033689861294
0,240248633676551
0,231865559228634
0,229486527580384
0,225914840129041
0,228809667705277
0,229917324974842
0,232980210967836
0,226593917488231
0,2253030990579
0,221343681157118
0,225838435098201
0,223483985437988
0,224968185765549
0,22553003604604
0,222268163719167
0,225543962129415
0,219538947173081
0,225995302665723
0,227632667914445
0,255269255207006
0,281261036347318
0,261453101553353
0,232569076542278
0,218413940369261
0,229167382063904
0,209227828495278
0,236750015603912
0,266043047341561
0,262628028017611
0,225460199811818
0,215475538067167
0,210632987884296
0,240623665379407
0,219672143279179
0,222998442465305
0,204261898632644
0,235898407329983
0,278786171558564
0,352055640742813
0,360799505268623
0,334159933888741
0,25047286360253
0,216067870148184
0,270992215769662
0,24704807433512
0,228439241955246
0,197645631575774
0,225707634998561
0,257511613911565
0,235571796875207
0,214248492239326
0,202741616893542
0,213243023569881
0,250180437154839
0,255924415088323
0,244713919534282
0,264807616945696
0,258587011552749
0,269014849158851
0,304862763581766
0,338318585369984
0,240089116229733
0,206717913290508
0,202678802134484
0,199663004057564
0,239985452816811
0,245128465626273
0,226006121790453
0,211174715758097
0,188716903401468
0,189019508811282
0,202185331365804
0,233706103528061
0,191385143181129
0,23289047134213
0,211476358856312
0,208111466937154
0,198092642129365
0,244182912782974
0,259040622220302
0,273793009130875
0,19354896896371
0,180901808924217
0,247425442636826
0,235568696991417
0,215537918560179
0,190698965285089
0,161311555895938
0,192487568146188
0,188287932172103
0,178016259654323
0,196035314087385
0,209963712885599
0,248271389743111
0,275519302666178
0,306930179231044
0,244052767755461
0,170066663190588
0,152392510784552
0,143135308342894
0,16986698872587
0,140784617252537
0,15880387139291
0,18681613024511
0,157007087820033
0,181453904335913
0,189455386843045
0,171430125422869
0,147966096635838
0,145300051089678
0,147194877467863
0,166773244305587
0,217190188204846
0,228690076441408
0,181299287812724
0,191060297812052
0,182798048060833
0,180704392780099
0,154618018033139
0,165448446295101
0,156664696826987
0,171716396956429
0,180630018910195
0,184026275966753
0,174476820418816
0,178383917742598
0,17934762586854
0,255633934365662
0,205305226596475
0,220019731239784
0,221094547338583
0,280793705674514
0,269901162108918
0,237315407453988
0,220063814951614
0,214975007097376
0,225243205924637
0,220670192540813
0,224188318957626
0,273980853882336
0,255538866583085
0,258603123062227
0,231416032825602
0,24927369327706
0,232679751873227
0,271418689262187
0,287854087104145
0,325455942771565
0,359574473749342
0,327541331121902
0,316687742502377
0,259904053756538
0,270864515327264
0,273918895929262
0,274893165150421
0,263880655250988
0,257656741798515
0,296071207369442
0,299039468345339
0,282216487415504
0,274278756621473
0,273288004395984
0,274884561863974
0,270932341179869
0,277718368192463
0,279289170421177
0,280985564877898
0,28705334536515
0,281671799864782
0,341661930100503
0,37058632558789
0,331762751315952
0,301938130841489
0,299641966925122
0,319265805076978
0,299519302067176
0,314303210255789
0,333507812145507
0,32505623285348
0,317129106529797
0,312470333535033
0,316854630151817
0,306446709719541
0,356325233295429
0,334194796260606
0,337889534549066
0,325412649572571
0,323600628694416
0,406313417834468
0,369009928081651
0,374634425934622
0,347718707662719
0,352890625366604
0,330895067232537
0,344413900513304
0,323628811447253
0,345852883141844
0,338815919365315
0,341251283430285
0,332012928831123
0,338283899158266
0,33740057074804
0,32960246333923
0,351220231685786
0,363682576952379
0,346061871922303
0,339650067544624
0,344017291195928
0,332353523015865
0,34215513816253
0,374990561780491
0,357116764480998
0,355355754908841
0,339570545441997
0,370867021797681
0,377171180504266
0,352437599912823
0,330933701157818
0,333567632156557
0,330279334080458
0,343836115806383
0,323988942682457
0,361731503560581
0,365289798064751
0,364871152123595
0,334559100358963
0,346845809365646
0,333506666886216
0,34624472551412
0,335792947973715
0,349303491834883
0,334099853149214
0,354418056272963
0,346695704733171
0,349994638108619
0,343730293236267
0,362696919135537
0,382527783583759
0,371162700055711
0,342641673839319
0,348953532928613
0,332764957951188
0,348417180165697
0,346258755521469
0,337850755123173
0,320079756170548
0,337243765182465
0,309236876027407
0,353160587025524
0,348486926719396
0,338945672843439
0,335994193177756
0,312457800516923
0,305167671614503
0,304820216769067
0,302137899822407
0,296581545596176
0,303639120422498
0,303106000763655
0,295303257757736
0,292693157648443
0,288927506774294
0,289195690310275
0,290048783574991
0,293132128596048
0,287515277938116
0,294437468482508
0,284964001011436
0,28910887600897
0,281241730005818
0,287443115096555
0,276862423759294
0,294735951458031
0,31289967572897
0,319474700205511
0,310885637217126
0,296643513050698
0,303002690307764
0,286663109571357
0,285900828415833
0,281189349922947
0,284059099962905
0,279275817632952
0,284298937201339
0,279846729321199
0,281226081403168
0,282601364964725
0,279086157149819
0,280539895447017
0,283713994370078
0,279931174523395
0,280211966332227
0,281049266071875
0,280020463598459
0,28334777205526
0,285673278341939
0,294682533132789
0,28731436523393
0,292497212982323
0,283827962628156
0,291556482522138
0,286313674846911
0,2952951639077
0,294697019766998
0,286101620494166
0,282299768723065
0,282967753274681
0,284233516445161
0,284653338237666
0,279332019222391
0,280901481824207
0,280616802292605
0,282093967927679
0,271721674181236
0,274162850413123
0,270094751390573
0,269546151693378
0,266631802158424
0,264242041713424
0,257283402784731
0,263900395443284
0,257934944858098
0,257213396755741
0,248457360183974
0,254123431676923
0,246895595380532
0,249363687148347
0,246015729753357
0,246314677472393
0,244492953862453
0,248408884928679
0,240537911411231
0,242097846509209
0,24301089827668
0,240174425744519
0,237748021835229
0,241128212299458
0,238130060093227
0,243307571661515
0,240211480733201
0,236472962550853
0,237305931455316
0,24168400028007
0,240077277844933
0,247854418074363
0,239717337157888
0,247256274221315
0,247327967844398
0,24986545541604
0,250981468711759
0,250932675587556
0,250073967770658
0,253767690968032
0,253083898568921
0,255795331543352
0,2564302582841
0,258783297894839
0,256445647029218
0,256716339406562
0,257974064148617
0,258598209224013
0,259442204861476
0,257907071899337
0,260309033459151
0,260030461514201
0,259886736495313
0,260242099127337
0,258371213964186
0,257464010810895
0,257363030007806
0,257622756668658
0,251995720027143
0,25589486069084
0,252175439007665
0,256100322287689
0,253563147947752
0,254727108432862
0,250133065010943
0,251312578623441
0,25042794813208
0,254140794190628
0,248518315981832
0,25034799134795
0,246804055369391
0,24691342232477
0,243218883992958
0,24477500702769
0,24306173120566
0,248351519182456
0,24289453306946
0,24332458938797
0,24104921482006
0,242382802457542
0,238434453146432
0,241891804236618
0,239673246503901
0,23897867276075
0,240579446743255
0,238650562274311
0,239486768060323
0,236976127838281
0,234976992947173
0,234078222062365
0,232767462222263
0,233412466611408
0,230901440450668
0,231430232993047
0,226659290365693
0,226784501367309
0,222782517793588
0,227881847565719
0,221569665834913
0,219233982845408
0,218894624876508
0,216572060167455
0,213214960705384
0,213823561802962
0,210143848688504
0,211906589539193
0,209565559306457
0,210635123091618
0,212886957751719
0,211834866826265
0,209091082721231
0,209994781623278
0,209231352213582
0,209001962513089
0,207978476546744
0,207920204424139
0,203986405513731
0,205077544796834
0,201478948217819
0,200342279669214
0,200098385238471
0,195956275374584
0,191356965066324
0,190636324691545
0,19190797120344
0,191964734522841
0,189865427772323
0,195765540781603
0,195906915646363
0,197803948560499
0,202064723467925
0,207970553024602
0,213623653676002
0,222040291227361
0,22820291790996
0,238739313955976
0,241698390699415
0,258226028790324
0,265934789424799
0,277777972126288
0,287076585169407
0,299111802232535
0,307693117315489
0,319040913391857
0,325115434422598
0,340451603347821
0,347980886865043
0,359899028025746
0,364349213044554
0,374048096349939
0,382352610722883
0,389461412698906
0,393303166364134
0,400956096687888
0,404103018615668
0,411729472289689
0,417971797599042
0,423830401672485
0,422303248303831
0,431192422326057
0,430733113616492
0,435753545196906
0,435125825475775
0,441340207673518
0,439939312850164
0,445465188199784
0,445933827788806
0,44461237950996
0,447273498725328
0,443699390306539
0,444562966263129
0,449822999384954
0,451956497444555
0,45816609595482
0,452651850797329
0,459414692114281
0,462124530153854
0,467095679794239
0,466597771593162
0,477731063760585
0,478998546267079
0,486846968777515
0,485328227212804
0,494592084568642
0,491966529812995
0,502759242626276
0,504338955316155
0,516424068767238
0,517997582570944
0,528455532449558
0,536089339722959
0,540430168552188
0,547721445682016
0,560459892647924
0,563898889802664
0,572576269001608
0,582211374376085
0,588151518612482
0,59186957195037
0,592786756210008
0,599262057319233
0,602411017105086
0,598229411992686
0,606183022127689
0,600189824295239
0,599997376727005
0,596819174076009
0,594168342915905
0,586212296401677
0,58746318910695
0,583353670223187
0,591226819990765
0,589176437943848
0,598289443572529
0,603513052961206
0,610581436473969
0,628608060727111
0,633198823397038
0,640747445698742
0,653800555485165
0,671749827643834
0,677781320043007
0,687351589625316
0,711193480304012
0,715083332664261
0,722758810001355
0,741101341483248
0,752961126970977
0,761512678818418
0,783225700086266
0,781591348665506
0,790874552738282
0,811189695614392
0,830276329658421
0,840340060025379
0,851481134694205
0,864538914290103
0,881386047658206
0,880951649385405
0,910082810460965
0,924241591265886
0,927982766151047
0,955164250076989
0,969018300146703
0,980955753325842
0,971359754798518
0,995906477864514
0,998191922007321
1,01419007743618
1,02660047458651
1,02385971464147
1,02505509294456
1,01771209685465
1,04601898370515
1,0174953853178
1,01046005076859
0,996865652117266
1,00830734724605
1,00364138616729
1,00347629803536
0,994436756674606
0,973841109996875
0,970619126550354
0,973070111025148
0,982460967396807
0,964005332860447
0,979505141102295
0,967259954610405
0,980634518677772
0,969991621904192
0,986074611635868
0,991884692636277
0,995572200308702
1,01457160000205
1,01862417636392
1,00954296347229
1,01732528899041
1,04152369540474
1,03693557319112
1,03956652282572
1,03406068948956
1,03517761040669
1,04541230010632
1,04838291045103
1,03725785983092
1,01576083325533
1,0380263045679
1,03597677449216
1,03119043989009
1,018252722433
1,04365162985875
1,03036201118238
1,02084166418948
0,996954064836531
0,981425484321195
0,976762440808994
0,969511879863731
0,978181166225874
0,943857992160986
0,967706808787671
0,947996688676744
0,92580473717323
0,914364766485752
0,903316162293923
0,893373766336369
0,891891883796199
0,869993454263882
0,864627446351504
0,839026455197573
0,808211699052897
0,790566714955737
0,761451675132426
0,738582190618161
0,71295992447035
0,670960980219538
0,646790459885556
0,62024238089966
0,597209551763486
0,560119705370409
0,539058193437233
0,515820794738676
0,507405853929643
0,484728490999792
0,477352213477623
0,465347392372836
0,464736202635864
0,454038828170793
0,450583031034381
0,448756438663427
0,446965082667987
0,4330990990956
0,430646716004091
0,42800263963304
0,432801807597845
0,420515552601183
0,411723633944171
0,405248053486073
0,407416035766416
0,401645564583562
0,393597762450148
0,380785936168379
0,374149946399219
0,364897108854293
0,357761470484435
0,344480891966928
0,337910445286596
0,326099050886658
0,316015688100846
0,302929063351953
0,287061168185174
0,278556870774397
0,265669960661645
0,259496747993153
0,247028318238297
0,234535098249272
0,223495447925729
0,21313247064348
0,20308901174684
0,196522815975695
0,187047669697243
0,184163756727339
0,173916464990978
0,165770763307993
0,166930687305653
0,161984930523966
0,16035594303833
0,154893731390193
0,151457266398228
0,14872674659737
0,151306402428477
0,146816973158759
0,147290809361703
0,146892212283702
0,146931536167396
0,148476374480499
0,14714870661946
0,147409407274914
0,148277360456976
0,151721107390953
0,14959831188913
0,149572434262837
0,152722719071729
0,153239896023305
0,15124679597976
0,152753598151467
0,153458111964997
0,149582419331827
0,149678642384831
0,146149237496213
0,141839743369984
0,141999240048475
0,13881295510813
0,142874578568856
0,137984174747739
0,135504049906473
0,134844693497371
0,132494821440711
0,136656002693327
0,134481450020043
0,135838510319206
0,140068669586239
0,137966493753872
0,139318768807709
0,142477101835938
0,14535900178559
0,14141711214682
0,148277157452829
0,147002061088003
0,150028523244136
0,152196406778033
0,154633729818933
0,155244446932822
0,157418682463039
0,161502256956907
0,162472119060659
0,164167154606586
0,165432757318208
0,162283079398071
0,163888632821812
0,166455378246723
0,165632100023559
0,167077855104425
0,168244409281275
0,170181287582755
0,170361180314613
0,175259461385453
0,178207584712325
0,177418646448956
0,180700622076655
0,187385163977118
0,188672709908623
0,195596613653988
0,204543704917683
0,208555882175703
0,217093500164033
0,220856386748039
0,235987747097323
0,2307079070921
0,238969548219587
0,237028111399305
0,240311211476715
0,242553032761451
0,241802030590181
0,234996876219336
0,236108405779879
0,228800122017748
0,221403992108699
0,216004412055369
0,217523154348457
0,206789805330846
0,209094121153763
0,207243375253795
0,214475412886781
0,208558493638833
0,213219056252787
0,206513851239134
0,212473110597102
0,213111418409176
0,204080642447265
0,208972301793885
0,206397425350536
0,208459250457137
0,207245795489326
0,201327261998106
0,203132816722353
0,198330139261562
0,190420136274665
0,190902131150732
0,189045485699505
0,185123213840889
0,187880221891384
0,179482525196934
0,180413908066773
0,172137586276524
0,181005480883648
0,175384360928263
0,168384957077488
0,168246381740342
0,173244462969053
0,167549423822083
0,169366323797
0,16325731226225
0,173369377045419
0,159373731184575
0,154965416320371
0,152577174251717
0,161308808164972
0,151471334413744
0,153993930840193
0,155709286528503
0,160967415004178
0,150117441778866
0,153127444597024
0,149152259134822
0,144456882870174
0,153630587918119
0,157053851408442
0,140195394085843
0,148540111898802
0,144240684355975
0,142116165821843
0,136632949628473
0,151084345763252
0,143523170497937
0,143943610864454
0,147296475127768
0,14512609809659
0,14533608406771
0,144466196632358
0,145613068451301
0,144314092851457
0,138087416026807
0,141641060177475
0,148025505854767
0,153579681930418
0,141544182828287
0,144530164478357
0,153048793931108
0,154619444378329
0,148445469284417
0,165447797746248
0,15058891424303
0,160358510400477
0,156908940917705
0,165940569303469
0,163401624471142
0,164773539169872
0,157086443180749
0,163427150616082
0,158740912417013
0,173581836826242
0,175429774183953
0,181717907371021
0,169729795103417
0,18943790640372
0,171097376097075
0,174381848147498
0,179619007946781
0,197313668237052
0,183957798586996
0,199144192537055
0,196375171097701
0,207605972956537
0,215974989600394
0,223938963924294
0,215718250043287
0,240028291881249
0,230205209346353
0,246007947028279
0,249084215343143
0,27874290157711
0,261103592268212
0,271592327532543
0,287732960593367
0,295292916405136
0,300806257083875
0,292142087111934
0,304662962140292
0,309489499225554
0,291228148075482
0,299400097738701
0,280044716064784
0,284687556375935
0,274934235272684
0,292779465984112
0,276439249775175
0,279914722015541
0,285735153743738
0,283460343947435
0,263844064056462
0,267664910803543
0,265728168522307
0,277934339222619
0,265183343084593
0,268166396189669
0,269956749225327
0,250304827202556
0,255376723860508
0,264626023164487
0,232749923589664
0,263199170991377
0,249389527213956
0,264154241103102
0,23024653459104
0,249666199955796
0,222863630167378
0,246548561981928
0,213109042755662
0,225738613066223
0,225021683951695
0,247265756437672
0,231344335038595
0,233413520302062
0,240639747836175
0,232356548815285
0,238216341594298
0,242668870320465
0,248603620086091
0,265488160335353
0,24433543843907
0,226806507610937
0,237148342773617
0,264028387178114
0,222403763085201
0,24957516390358
0,241127938801933
0,254868048295667
0,275130845062236
0,249672137841631
0,256495924585758
0,267942556167923
0,2458094680894
0,245635952986575
0,25728844597187
0,257690797482465
0,287329676165588
0,258072968523016
0,244149128173261
0,24288085904755
0,262123276044492
0,241551393596482
0,219153564175241
0,267097005240965
0,233897315518708
0,290016700284721
0,269044407773467
0,273620600063955
0,280282623331399
0,296566908399147
0,294673604788907
0,309608973151556
0,283011579919483
0,344769749964773
0,309866636968987
0,321037062597148
0,320988770825249
0,316460899055545
0,330756730721154
0,350955532808059
0,297323165638788
0,403877761906673
0,329286016511842
0,356648699874861
0,3543011010619
0,322076059997505
0,345075866447582
0,42175574553844
0,342277954426102
0,350817142266928
0,324048278073713
0,337615162920684
0,323399053399039
0,333277248200967
0,341311571109908
0,304381100401569
0,379912776619734
0,356250597939828
0,316246824019611
0,342341238221086
0,31319332124971
0,30900054766336
0,25243305671462
0,320242731092939
0,343803349254193
0,302252921577849
0,307355062152137
0,368366986878807
0,383051505269861
0,341128939482625
0,257021204966684
0,272015400314531
0,273825000990006
0,340266481244857
0,327502787005125
0,350021656775697
0,280710823058484
0,309317003854932
0,312534887602362
0,288094153606909
0,373990387602296
0,447999515734691
0,434176319947795
0,172763546759443
0,273734280237736
0,340186086173673
0,336480067249393
0,347774159340719
0,319800689476475
0,409972757521234
0,218890362238382
0,404442229613098
0,351950006025561
0,404271958613895
0,393106895086242
0,426500892136487
0,472572368778682
0,163787347423475
0,208964314862343
0,478701954290504
0,723553664449786
0,148623724734977
0,337972109909128
