3596
4000.36533379555
650.420452594757
1
2
2
0.0387113201131768
0.0279628779085029
0.0444318458683386
0.0322466693355855
0.0456197047825425
0.0282526990593862
0.0438422495436319
0.0316538206410415
0.0383119699584788
0.0329015295772463
0.0452157371098082
0.031778616927111
0.0483918880067794
0.0312085738393297
0.0439031550603094
0.0273276221401304
0.0409272651413195
0.0278068893766016
0.0442128637144181
0.0299569333486155
0.0365946447217284
0.0305697542493098
0.0390148175777333
0.0262251812958003
0.0331288508635899
0.0294608147096519
0.043857488709808
0.0291595860900606
0.0491160015504731
0.0420553375161433
0.0379690862098923
0.0326239752177004
0.0401608236458391
0.0344793841422115
0.0391808009981873
0.0306116738695686
0.0412165352925826
0.0232623172569271
0.0358191389250622
0.0306218923081385
0.0479385893965432
0.0330059189193269
0.0458296125597916
0.0304945926843057
0.0446694634406518
0.0300600207219942
0.0408056389991639
0.0359560954131284
0.0414271356399646
0.0311119660427691
0.0523294658187201
0.0290134469904689
0.042984538702669
0.0284098102597534
0.0411976706773835
0.0342271014593947
0.0475936479911073
0.0316965274026864
0.0424453695039524
0.02211653214935
0.0484026509744459
0.0404147314536373
0.04010464634382
0.0285003605094926
0.0384409306548769
0.0270312856183914
0.041398918448966
0.0303613127009881
0.0437097169008519
0.0350428490246201
0.0357880272831136
0.0351061333160135
0.0558857111335171
0.0341056497437078
0.0420460233459961
0.0282187066162326
0.0379225619012474
0.0269003814599701
0.0444722151819442
0.0234043328593757
0.0457802268885923
0.0301959732453645
0.0432637379734462
0.0232737759102501
0.0375314534398949
0.0379889796215622
0.0330892389518988
0.0214484326678664
0.0469598144300457
0.0348410469207181
0.0389842091799193
0.0275735756274784
0.0442604868826799
0.0237478153287681
0.040728350773835
0.0207069893647351
0.0409233229792638
0.0297348713281685
0.0331460206722438
0.0268026803447582
0.0379470604415003
0.0208762362895501
0.0598880078830527
0.0273130347277163
0.0704831725912954
0.0368275835459391
0.0296590934037627
0.042125536449264
0.0537773480392082
0.0311802155649881
0.0368217332354583
0.0228303432423913
0.0393438376339428
0.0287870082499935
0.0267316993665337
0.0301187587660905
0.0546508130202017
0.0332183855465822
0.0373846766447708
0.0292925370147441
0.0255740549642686
0.031373545884723
0.0604933043705941
0.0305648708997142
0.0500188371218405
0.0267673305034376
0.0298369895869655
0.0336522327076708
0.0558790175128507
0.0293766053581876
0.0446691378801809
0.0250220441558614
0.039413761275108
0.0123502504301631
0.0574203925329127
0.0374534218245479
0.0394726436042798
0.00281612106838264
0.0404299775013394
0.0606526642317614
0.0457514488335373
0.0285385666029748
0.0270802539399451
0.0146448371465875
0.0610859534717451
0.0320405160642285
0.0304972012734968
0.0321140455999947
0.0420103297881742
0.0272521639769452
0.0340645334393317
0.0211283144002376
0.0529770725267491
0.0329534314404348
0.0122532795739759
0.0449229597024985
0.0688333114344435
0.0126616219965747
0.0748595713749347
0.0311222334269024
0.0431496429321814
0.028770867471063
0.0394221346288755
0.0203673716193887
0.0458737792700113
0.0170233654318111
0.0374930485030269
0.0452726902743916
0.0386718435002978
0.0240439450744284
0.0587232306802046
0.0285902642092765
0.0137202060675391
0.0569482046576296
0.0501826477820975
0.014112399196186
0.0598017837664572
0.0418480401748507
0.0314975743064177
0.0197512887118554
0.0609224494686404
0.0199717083511959
0.0409636504161189
0.0163415328384142
0.0364201788144783
0.034518469835572
0.0422045289313603
0.0183995654140221
0.0347817859242773
0.00805886068868888
0.0421398650360634
0.041040541291773
0.0585557405050611
0.0277040159481921
0.0476853491543579
-0.00314258431278172
0.0591450635009936
0.0500783302405486
0.0408487914416883
0.0263287525409277
0.0406557986565723
0.0283714525193481
0.034637427572952
0.028549059257813
0.0338614759625952
0.00153628389988549
0.0610389805466999
0.0332844663284325
0.0344126570355357
0.0197222011320228
0.0351868637833448
0.00366523786751201
0.0700436390057001
0.0503471565189721
0.0437827991761846
0.0325764776740335
0.0166375403986601
0.0368360537214526
0.0468163319958173
0.0238360391059903
0.0341350047865944
0.0283112325256152
0.0394749969757894
0.0304320090104261
0.0397717218208915
0.0304560902221778
0.0355664479623973
0.0241081706129676
0.0402142077591952
0.0298510601919519
0.0394055123395616
0.0314138990463356
0.0390393817938108
0.0298625563145117
0.0281732537024431
0.0232718950424722
0.0480532919941749
0.0315729586683723
0.0423817354113866
0.0280068629577621
0.0363807090405212
0.0262729737461401
0.0362479959805008
0.0267040785806625
0.0354439654943606
0.013026752569869
0.0565503085093961
0.0324530074810424
0.0452669520580787
0.0170135233163515
0.0500855691537633
0.0380177213340798
0.0441342598159072
0.0241311421319444
0.0343596583109233
0.0216274077322669
0.0292969480561297
0.0328294897705433
0.0454529001999532
0.0246456631327262
0.0490453958279546
0.0305958373315397
0.0364077609186141
0.019515795946735
0.0115150571974474
0.0604872938154346
0.041753391591471
0.00614688689642502
0.0813004133183385
0.0420332463119358
0.0542740485049479
0.0227395432410442
-0.00490996672500496
0.0540628834006285
0.065846038963582
0.0271862119331049
0.0454697224579072
0.0418054016047312
0.0345587401248864
0.0229000547135377
0.0365509373492305
0.0191875678509711
0.046839512469812
0.0492315405465203
0.0719276113893719
0.00744437819400468
0.0625927445268469
0.0501731206654118
0.049502182492744
0.0311337401691255
0.0458448072197412
0.027514998880854
0.0534211072686562
0.035367208373512
0.0523304768856806
0.0288046994830397
0.0386015414113267
0.0463294323235415
0.0426225605141924
0.0302493942569581
0.0425685722264801
0.0324544653113623
0.0375748958175945
0.0346217214182932
0.0357574009307082
0.0393527623455523
0.0396795915676003
0.00934911442036617
0.0786552780373196
0.0355184410749849
0.0331288419908493
0.0449591021932417
0.0541631846452038
0.0376547238645352
0.036233036486362
0.0291174200886537
0.0414195909228462
0.0306918965356462
0.0349472403849438
0.0463258732863574
0.0495149330158595
0.0309685607785264
0.0367334909677195
0.0316210155245857
0.042426270578633
0.0357538303280438
0.0379625405266412
0.0304071170632119
0.0489210312455832
0.0261575665836719
0.0581887384323343
0.0471978519296536
0.0187801477905516
0.0513119908707199
0.0596214929021786
0.0405083053683996
0.0476626754909555
0.0382056295180557
0.05252175338949
0.0378272127850926
0.048878449772095
0.0354206541761047
0.0416308903909226
0.0505162833217108
0.0572395758315346
0.0246376648407618
0.0464222602838797
0.0640045747576788
0.0831195931619792
0.0501476361742331
0.0578800254267452
0.0162291169927571
0.0654197238102366
0.0521878738712562
0.0582116999321118
0.0561670454925567
0.0626439751962198
0.052584959529748
0.0544357589858412
0.0555274078729411
0.0551966650023843
0.0510780262987561
0.0599323241291572
0.0526464188814374
0.0603661538507276
0.053441471898728
0.0603675863712105
0.0469052515124603
0.0858089413329775
0.0649025446854575
0.0663141179940128
0.0607899405923517
0.0591656643375712
0.0587036911223182
0.0668803608554435
0.0887555933569644
0.0759001832091008
0.0679920414024362
0.0980089074700947
0.0769687674892148
0.084557543724498
0.0705619372142708
0.0754455534287546
0.0689776242969024
0.0839342808268131
0.0718925839078748
0.0820000022927622
0.0760703571387592
0.0919875249821817
0.0773327772677409
0.0917173265516169
0.0712928095417826
0.107848538922947
0.0848971395438387
0.0890192543377902
0.0716480166624146
0.0952949312714712
0.0857259652238869
0.136968340825085
0.096543959394368
0.101591819243805
0.0927201632659271
0.102723382123858
0.0985446860503947
0.110172065217912
0.0950923744004564
0.107688699025212
0.110573284249513
0.134312396861266
0.104513370014154
0.12851122412139
0.099953923400577
0.131351074307548
0.113698085199443
0.124502400746529
0.127550303508779
0.134982447240338
0.0974577822278531
0.147500099231484
0.128244863040543
0.139407894093064
0.127456754635926
0.133131487367575
0.125601751714094
0.142383448291404
0.133186293555619
0.144637442344821
0.144643268638086
0.14634538445398
0.133762455125216
0.163981561227375
0.140734753365632
0.148584687100227
0.148172897861626
0.166862760473878
0.156916093558349
0.168352357302607
0.142391239954336
0.173713597338576
0.150860259726158
0.178287908600432
0.16526801360208
0.184996995685536
0.175674416428609
0.18431422344108
0.160593135354014
0.181068644618816
0.171592901790893
0.182749246242806
0.177038001609422
0.19994259823123
0.180554138384055
0.190102045000609
0.182983922639695
0.208328086353364
0.178458280948781
0.211597290309209
0.18982660877218
0.213114917393441
0.191096403276193
0.219501618021278
0.191962871619789
0.23509419800095
0.201765583723428
0.237360522492916
0.222045288754027
0.233409242546918
0.207903438984103
0.23089390235932
0.228961233589484
0.243286576289164
0.232093782965882
0.248173110807732
0.226698523325788
0.25568138348646
0.244427957784095
0.253068019612846
0.239978125339824
0.25637874598195
0.245308584455078
0.260557216839527
0.262986524633335
0.26319932177769
0.252950520946612
0.272489609524486
0.265369396520233
0.278529583235723
0.264311738484562
0.288713241924445
0.26258519125073
0.308890237167858
0.272745296199763
0.284920390020856
0.282802069998514
0.296453318630868
0.286217438280314
0.30617295325831
0.287968043071662
0.312063128189725
0.299256503574723
0.328516626310552
0.302494368617316
0.325347887008259
0.299245286931742
0.341865382956879
0.317227896801504
0.336884283993133
0.326235143001732
0.355351287888486
0.312182246144822
0.367447255605641
0.325042113995476
0.360904137784609
0.325069006127903
0.356987535699916
0.338419592770274
0.356468508056894
0.342300750850751
0.367239035231714
0.360813182003735
0.388757819975688
0.358035163135289
0.371632817188803
0.367441258460699
0.384932858270492
0.370075068974648
0.403020555853693
0.367717760103185
0.394645363930526
0.376575061067654
0.422013219328791
0.368183561328617
0.407462990180446
0.385051479024482
0.410692985895264
0.403173586952207
0.415319282637032
0.380231386445228
0.435590370121917
0.40884935972504
0.446934859033202
0.414666660012611
0.463106878622096
0.401418888721047
0.434296284526626
0.43655928042995
0.456693145742023
0.418569002536778
0.460957392514958
0.433317691252783
0.454305517583163
0.442884836017205
0.472149351108105
0.447083041190041
0.478111169357794
0.468879185000929
0.478880925601204
0.457969173690909
0.475247587732195
0.452015434175698
0.499548104143487
0.465501657424967
0.496449514696938
0.474549703382891
0.482610220950951
0.478824031392953
0.510961496775251
0.47677852666764
0.502793748097381
0.487116484838481
0.515682253866402
0.489731682691251
0.518264758823414
0.513546341731569
0.550488935307764
0.498474993415816
0.535290613002582
0.510951600538058
0.551020126302145
0.528056356986474
0.55417760655896
0.521479227469298
0.556247760157251
0.517955257307966
0.574791113916252
0.543292699188912
0.545526021611814
0.530502348807024
0.579321654540367
0.537735015438062
0.567020842335469
0.55387181680665
0.591742989159446
0.570877702842226
0.580691536194207
0.55163424638195
0.599108401059949
0.567535738259579
0.61464486765763
0.567031301240712
0.592133058756866
0.554582292855696
0.602030184952076
0.587079432525259
0.604546037196585
0.56515900617199
0.604106520408739
0.583171561602226
0.599348130837409
0.600546099729506
0.629804364222639
0.610320900819628
0.658873410124195
0.608916278399031
0.642751475063648
0.61569024016137
0.652021063715592
0.615235036522187
0.641213874255962
0.567062471430151
0.628046055992707
0.614406649241053
0.628813520851496
0.629640651182756
0.654888641971634
0.630147984682382
0.680681228009998
0.648854420744823
0.648414274544858
0.632882782376394
0.645055999778573
0.622358764745971
0.680747230067313
0.62637584476374
0.681307433019423
0.649792898929014
0.683464201741842
0.648754758122139
0.66853486279838
0.646673786320273
0.688298769053765
0.640756561526993
0.670179089150835
0.650892763644096
0.702524364122725
0.670489437472357
0.7091881490036
0.643808104292556
0.688391016405496
0.669946941070603
0.67503093525348
0.637601615378224
0.712145999936649
0.667460601254327
0.730179946965912
0.678205373760265
0.723292907928023
0.675801427610763
0.7135034988422
0.662044045459572
0.720040375040337
0.671132684484805
0.723479060898261
0.688681383984462
0.706458621386085
0.688754944031126
0.71459074469315
0.689139875359972
0.756796204706108
0.682853035249831
0.725540390593778
0.703585922758706
0.709979822832543
0.705526919548061
0.730320253958965
0.693099517800162
0.740931515732365
0.706663767504682
0.726377687410589
0.673447828852164
0.748499255539975
0.719300732295127
0.756422299120428
0.708292954381262
0.73460464874558
0.706116997163766
0.769435687749229
0.717135999346988
0.736875328579806
0.721405669338684
0.727632781291621
0.713713516039184
0.751380823807692
0.703085594895618
0.749530248333807
0.709353470465648
0.741349189082803
0.699231599193709
0.749050197937476
0.692906888620632
0.771007539113038
0.727200018459029
0.741802174333018
0.68944686897917
0.761182324989244
0.723633484711315
0.740900219997685
0.711603016299606
0.721809049094914
0.708843469863135
0.752522971943524
0.715971689933842
0.77677632685516
0.747468593139244
0.724716272505284
0.71895976069269
0.759754672354583
0.707980310216716
0.766569572192688
0.727588112711286
0.743864060761802
0.723433324617297
0.762261441927518
0.731248827585254
0.733310847237251
0.715404339821093
0.745986803897151
0.719312319899458
0.749072325317885
0.703435956564361
0.768116054140565
0.718561873086984
0.763317982751139
0.701530678398874
0.740366633817965
0.734950120520136
0.737526573316133
0.721831301938293
0.769677276330944
0.727244060934005
0.732242973197062
0.703546999820819
0.734774805292962
0.718455145844747
0.738413445248303
0.713692392275097
0.720598508335953
0.701447058101977
0.751020482143413
0.715914263838817
0.756600121181735
0.730882412478417
0.737979982876124
0.699424945307628
0.742736546257491
0.705779656036599
0.727236055468702
0.706021196459952
0.717218000567828
0.698708420712046
0.744467296096369
0.725969569010408
0.735703551133091
0.710784219563613
0.739308239548537
0.715369030213412
0.726713113210604
0.690980045897487
0.725169999506937
0.703102184193778
0.744126330274015
0.705892604276621
0.744063507594877
0.688866998399966
0.717725997028661
0.699076250257399
0.710817904927102
0.693710512829583
0.731796983854797
0.687743884570693
0.718802126866676
0.693611083477025
0.70850113575925
0.68795284853149
0.696603439977471
0.681411419660684
0.726342792868709
0.68692326850421
0.714670761702419
0.679873837977
0.715149576034171
0.669387743755501
0.694356904895145
0.675352271977689
0.704314866961561
0.66206016800355
0.713285246578878
0.675580302536582
0.708705196550373
0.682325993258408
0.696401234605397
0.66841426680108
0.7051968491926
0.645794148413054
0.675386841427073
0.655900131258202
0.682916169494822
0.650460971148437
0.680968426599788
0.6587348629439
0.686931396301352
0.647064685536107
0.671556670328409
0.66016706839343
0.651718281073514
0.632528109689787
0.673218571367889
0.629326413219776
0.677018374491953
0.626602884121214
0.662266160399376
0.636072587602386
0.663258813918182
0.641734142481325
0.636410300271909
0.614049332932433
0.654003930782596
0.625338063300249
0.636447467756651
0.616484644460738
0.630167505688539
0.626122824358069
0.630715955934164
0.610219548302765
0.636539211452021
0.611929450737043
0.640487729319071
0.612118739244111
0.632434101951642
0.594891892882329
0.615337043108406
0.601816628343633
0.611942867755844
0.597444997079093
0.613132353807802
0.596719194678376
0.603524384559747
0.588714725366092
0.598988138105832
0.576982570436862
0.597052646958656
0.592673155775526
0.590429255935723
0.568651154794062
0.575744041999881
0.575874025199611
0.581774833157486
0.561280836367448
0.582062876537678
0.554128789595044
0.591754819260986
0.558471887986083
0.57022519272968
0.552671786455924
0.561607721061962
0.537484741260249
0.552325322331006
0.553121156023929
0.556018092699342
0.540983707463342
0.556360280647655
0.530169852323392
0.545839601592389
0.518841690019647
0.539982095868783
0.522467482467429
0.540978237576356
0.526733588727588
0.532665458469055
0.510179528249064
0.526436471399533
0.513021244970603
0.52403439268061
0.509606536940381
0.530811876722783
0.497079290574612
0.514890505878339
0.504044523401103
0.522296822339537
0.498149973681418
0.511908113971556
0.482670587328297
0.497648294087328
0.487834181934069
0.493783512297823
0.479803353230222
0.493599791418535
0.480449538564192
0.490239707353472
0.469106281768852
0.486825032749212
0.464304345083024
0.485462412443747
0.4708855072732
0.466016173668013
0.459460048138312
0.461474872443548
0.451087136361353
0.46113408533051
0.448312888000462
0.459203681146548
0.449784145300416
0.456019445437475
0.443631432704349
0.455078599352322
0.44097640259062
0.445757861896612
0.437733634599336
0.437854800295064
0.427104151729526
0.429464764330545
0.417518775462194
0.441402936262621
0.419312397832789
0.424184509616023
0.412796047968146
0.42308951577467
0.421066726095652
0.423117141725711
0.412369192512582
0.414502048831823
0.40281297733253
0.411242137853767
0.390615239576197
0.408091030003209
0.398240224336493
0.409590564154643
0.388387569780204
0.405263320032306
0.386394523656403
0.397590647322927
0.388823982305694
0.390094405237952
0.374176881511942
0.391462238088793
0.376648586239124
0.379873637696239
0.373414179461242
0.379408452148696
0.371934059175372
0.385679974644207
0.364597501612503
0.369139325853556
0.359543877898801
0.368840570273121
0.355023129543469
0.36357257400737
0.351469721556587
0.368981346763412
0.344425825927154
0.36283407506456
0.347751476362291
0.352656245605459
0.34571332364555
0.356378094195463
0.340003142485078
0.347182908599668
0.332728507065022
0.346856372816976
0.3401972012848
0.349438913500193
0.331189387807659
0.340002438045509
0.326648868560623
0.339323600535878
0.324807464401613
0.336339675491887
0.326764327466097
0.33320733908134
0.318318776480284
0.324060238514333
0.314491661704094
0.325986524604421
0.317453071349295
0.321699293088129
0.3120667423711
0.318772587683687
0.307995569255437
0.308895336064265
0.303265277524287
0.314331324705217
0.302989149130855
0.3099966236934
0.300407915375856
0.305880577110216
0.301121789509532
0.300175320677994
0.294041639808586
0.297521052084029
0.28721709332232
0.30259311385858
0.288604578878493
0.298537012451611
0.287196266849291
0.292116424630338
0.284550343913433
0.285413577775771
0.279757967221091
0.289916738176614
0.280549797901159
0.283826023700447
0.271474785088188
0.280344172609646
0.270736776640271
0.273489784126438
0.272971924280046
0.273848949597813
0.2638368887685
0.266786172498782
0.262966532681215
0.270198900261975
0.262393640165913
0.266083077134622
0.256046705256417
0.264586225336242
0.257222051730815
0.259078559403765
0.24825898255226
0.259697638378024
0.246193828674984
0.253607018988167
0.247466170628465
0.25322609547528
0.238595200559869
0.248314185362112
0.241111533678709
0.247070097193768
0.237888870571632
0.247589337865217
0.238123678032706
0.240258170111306
0.235567524419267
0.241129189584345
0.230727229475644
0.237621490043393
0.224737934585687
0.237650177383092
0.230074612008993
0.229598251423743
0.222805598517875
0.233089863977686
0.214997832903651
0.229007361091601
0.218469255930409
0.223587724567741
0.217834683596091
0.223172231567077
0.213734610006086
0.217738759609866
0.21508471841204
0.216781816847025
0.208201830429095
0.217918934288759
0.207762906615183
0.213640047827006
0.208645831229171
0.214166086235088
0.207146166876471
0.218402774004694
0.209008469973537
0.21371583523877
0.202147842993517
0.212613184107221
0.201713516270826
0.209990887399757
0.203910073024162
0.210273585340995
0.204616139777674
0.212286565888921
0.201148958147303
0.206092680363874
0.20383653835165
0.211235973475181
0.20607469918309
0.214295770880002
0.205527320313661
0.206730138950789
0.206373062635305
0.208478237654025
0.203985593548705
0.217032186951505
0.207145520802896
0.217173812051993
0.209767350668937
0.216839995286377
0.213670432955776
0.219471892442509
0.214814625970267
0.220039600062331
0.211093625742031
0.224575137079887
0.211570543605586
0.222876504098735
0.217855583991659
0.230176747648673
0.218224139054975
0.228458789824948
0.22292588805714
0.234603875580371
0.222170898561138
0.231386799889784
0.223285941875817
0.234273217059961
0.229174887566748
0.235660616842309
0.231066397806095
0.239413284456206
0.234293736510518
0.240101921827159
0.235502658082088
0.240547004071082
0.23430987079923
0.243434498788188
0.236442164874528
0.246916919431991
0.237310831195618
0.249158577716916
0.241273488090384
0.256086842823986
0.246097334195345
0.25867536473904
0.247690219511733
0.255281860346017
0.25288339590792
0.261201673168459
0.258629462527194
0.263962522761715
0.256526987955853
0.266725854593364
0.261460322646775
0.272513779306858
0.270310444519772
0.271568597235256
0.268857614834079
0.276623789650111
0.268898612762177
0.28115190642994
0.27242061212387
0.279812276308192
0.263360837169663
0.278232087456976
0.271562516092369
0.276537232985056
0.26847994693438
0.27846108544334
0.262685855965295
0.275896780921631
0.276061051041311
0.281553276935692
0.266170916624982
0.276887646372925
0.265469728788831
0.272047734168291
0.262807103667038
0.27031995517474
0.261150853321308
0.265707155268827
0.264827761718872
0.267228790541892
0.258807578425804
0.267819968259478
0.265963816972919
0.266261497934718
0.262980648346724
0.268057885103362
0.258707410124729
0.270060742383155
0.266009741668071
0.268702363693221
0.259407972856744
0.266338564193506
0.258639265519174
0.262788016939969
0.261079253481572
0.270047181939443
0.257031461644983
0.265514869542473
0.258642082233047
0.26194730934086
0.26195736756052
0.260526066026267
0.262438604033022
0.266909600721934
0.260130591238469
0.262455746526985
0.261457404393056
0.26856878907601
0.255599476943495
0.26606444736358
0.256742767831216
0.266827715374436
0.255903530084102
0.262412978865272
0.255368374387099
0.263109753463386
0.257187677542116
0.261188045895313
0.25255998258647
0.260689778222324
0.249700077020277
0.253233768443242
0.247828279019568
0.251752236571919
0.242560324804563
0.252172610927447
0.23851337512515
0.242976032668349
0.236347907631633
0.241934364330439
0.235990771824432
0.23583757893358
0.22689952197857
0.231372571707501
0.228281176455815
0.228326653522963
0.222748326732868
0.230194005235152
0.21754945326502
0.221531935646241
0.214614738254373
0.217076235517412
0.213360566841569
0.214609807283981
0.207023848935827
0.214908713089114
0.20517916294339
0.212389969069635
0.198903308832037
0.211388351308987
0.205543093624704
0.201969371728487
0.197811483024709
0.20131116340897
0.19197911245866
0.197768937297601
0.190312457576025
0.192021324090036
0.188277142035664
0.194703478381338
0.188048714947284
0.190411825514848
0.183430249047436
0.192677409304383
0.185923967298876
0.183049184310205
0.177391377831568
0.181686075384779
0.179438693040211
0.185360406124083
0.177532283572534
0.180133261161244
0.170659031657033
0.179089596591616
0.175641075207373
0.173460780078289
0.168627765434929
0.171261650342283
0.166801010843734
0.171399143308862
0.169424762867045
0.172332940326697
0.165721502676782
0.171300221877021
0.165349691263126
0.167613714925354
0.161424319668886
0.165466887378547
0.162248433273612
0.166675935995441
0.161256330828277
0.16210446268619
0.156038244281188
0.16349759630011
0.158792888444089
0.164050448657379
0.160102183730936
0.161624319001261
0.153332737085679
0.158141422266545
0.152325581870784
0.156648561897669
0.151680093561704
0.155082012550318
0.149955151769525
0.154407912067561
0.150484579172014
0.155247694196601
0.147950702149196
0.147732925022719
0.149876086096043
0.150310742030415
0.146264524437035
0.151923834092761
0.145913422374384
0.148512345682499
0.143661141693551
0.148323955970802
0.142436958396117
0.145792050563665
0.140590907696861
0.150990155679857
0.139424721287471
0.148397099054098
0.139825840290578
0.146711727564821
0.145642432906707
0.145590807861229
0.136874144651968
0.143853478347183
0.136152444272225
0.141694179871312
0.137985156908038
0.14201641415225
0.135968533397636
0.141387832796762
0.135830657228903
0.137118771529222
0.13605297522785
0.142681341632332
0.134531367557998
0.138793413840246
0.137882212269
0.139717867384815
0.135045589685129
0.134847975144801
0.12955048977388
0.138736537668603
0.130889399831781
0.137921074735556
0.130841874359516
0.135941113764629
0.129166117223297
0.135617244170206
0.132379514035737
0.132858008958465
0.130360197023226
0.13564928646091
0.130531000341395
0.132562062015348
0.12893108635567
0.130763380181303
0.127329256287814
0.128914132863908
0.127729946823291
0.129443541148257
0.122190669101491
0.128136709140743
0.127457231032376
0.130952430346208
0.123189014588615
0.129602055311956
0.124848846888529
0.12999043180685
0.125462220697403
0.127226045595734
0.126839720465259
0.127119547373531
0.125404144895198
0.129274873206015
0.123806835005938
0.12677303920181
0.121098750497681
0.124165192268375
0.121375834417516
0.127120826904708
0.12337853865305
0.129767969715726
0.121571505710606
0.12615916901834
0.124387254468023
0.124519292295576
0.116063515107242
0.124032464107545
0.119364583255168
0.122161057916714
0.116414670016927
0.123654314933313
0.121850740013644
0.122623248218858
0.12023132533785
0.123831474008155
0.118804951102886
0.120748734388215
0.118525967315579
0.122178496939897
0.113863213316875
0.119770911199381
0.11407115380341
0.119307534475621
0.115448586780241
0.118253503179983
0.11023307884028
0.115352869885978
0.117451156848392
0.117930735518633
0.113076063160963
0.113488998397709
0.107332503287511
0.111649171988011
0.110903609761491
0.116051715081333
0.108875364115474
0.112247467332069
0.107887255561243
0.111663816268561
0.106750692969267
0.110670062739528
0.10616308653736
0.109163207651681
0.107187897299685
0.113310636543451
0.109136131358945
0.110322739810262
0.104152728376505
0.11334482318028
0.105730484064392
0.11051204543109
0.102743890126294
0.104758918929768
0.101322738691958
0.105277038436034
0.101756210553935
0.106936532361763
0.10495134794694
0.107803281312553
0.102649009179662
0.106505883286782
0.101834721541165
0.101693891204835
0.0979456108263793
0.102340056807056
0.0979156694793272
0.101800659486194
0.100796992220954
0.102538825935054
0.0943039514880948
0.101049672051109
0.0989255037802659
0.0990651777183325
0.10018870817308
0.0993912640874155
0.0957056864591762
0.0998762605572654
0.0949531918347456
0.0969134121649176
0.0947820732861435
0.0970878033950904
0.091664017544548
0.0948345530557111
0.0925451270824311
0.0939599138540767
0.0900200098467712
0.0935670117332452
0.0888219886323406
0.0941441769196303
0.0897137668578032
0.0914617816630776
0.0913868167811455
0.0910442992294838
0.0877744377248948
0.0891495604717289
0.087085711516546
0.0879398250796789
0.0862169748588956
0.0919175118082322
0.0843592962034066
0.0891830353968446
0.084203967794188
0.0853974850143092
0.0859318679472946
0.0847021259370788
0.0821201618115788
0.0853510610831361
0.085449899212694
0.0859761246922316
0.0835260577673445
0.0854085900558199
0.0804171111937043
0.083722710130366
0.0821118945627348
0.0843814899544047
0.0800845761159154
0.0819180471143665
0.0783238113709748
0.0841701688866958
0.0796821124641934
0.0863808577218141
0.0813010491342482
0.0822984615619753
0.0811739836914995
0.0814728539266809
0.0765963465894721
0.0807677171852371
0.0781150162926448
0.0820533418826523
0.0776424898700109
0.0784656431000857
0.0754357225768185
0.0800517535404421
0.079444537961566
0.0786218005747646
0.0760778380540141
0.0775725320522952
0.0764101470367807
0.0767474912260606
0.0732280640166664
0.0789556239082064
0.0750287649472742
0.0770461738340504
0.0733788207311077
0.0781010605290619
0.0749402122062657
0.0757119303641845
0.0743384920489486
0.0729651955291497
0.0731330825221876
0.0741844516700753
0.0721007576905928
0.0756481277189448
0.0726971701353546
0.0750486987387837
0.0712456506892145
0.0734934161991571
0.0717150754924043
0.0728200560563613
0.0704647409643191
0.072501522808962
0.070995228430509
0.0737542838653185
0.0679689350532336
0.0713481305509617
0.0716995464768784
0.0743868941479104
0.0711681291786027
0.0703834062228378
0.0679044121128806
0.0733003321378605
0.0682257098358274
0.0720449561289159
0.0678832757068858
0.0709957846661036
0.0683132347223286
0.0697764986364736
0.0691643199216859
0.0696036042070482
0.0679663738977309
0.0714833023155232
0.0685826515221187
0.0703613320989148
0.0715442831060514
0.0726320293043281
0.0663874897284299
0.0709845771510767
0.0698034887857655
0.0709198501101104
0.0665079544781645
0.0674756503377878
0.0658042757533745
0.0672615300821116
0.066376031310503
0.0691738632679344
0.0665861020577043
0.0693643798516606
0.0638883801914394
0.0686526757040041
0.0655796718150629
0.0687381064606914
0.0659541786090391
0.0668685229997069
0.0649177675059764
0.0669159126473258
0.0638323406200473
0.0660391351262228
0.0663953188419767
0.0666944402930844
0.0631698492472083
0.0662818837246482
0.0619364492260719
0.0663104650199792
0.0624739865960818
0.0633560159266538
0.0652780023455932
0.064456641032271
0.0622741119952505
0.0638374424450546
0.0601372247618131
0.0631957040921787
0.0624857679813129
0.0612965008860742
0.0600101687577855
0.0628460848629228
0.0609654325921369
0.0631070422468067
0.0607986918424983
0.0652673825650686
0.0595665741310555
0.064761230041454
0.0602193773315183
0.0638504287288539
0.0629292620816685
0.0630881335078999
0.0580653513533796
0.0617081146029098
0.0598993693969955
0.060950826199382
0.0570381599622224
0.0617598176377253
0.0609339255976921
0.0614672740667635
0.0585806825893861
0.0634975023428174
0.0585093844002609
0.0615306898893415
0.0605987269190068
0.0601559750440855
0.0574978838249563
0.0610672738600155
0.0570417145258549
0.0609895905079273
0.0576289298243507
0.0577661440942064
0.0577986466106476
0.0598133269859638
0.0573517158056189
0.0579699150448899
0.0552173208509778
0.0563915066961648
0.0532675421655937
0.0568402536243028
0.054426710185293
0.0573816968815443
0.0549434711668231
0.0555396842143162
0.0526301457998636
0.0548812243034522
0.0551107201904379
0.0549726194976074
0.0538266527902649
0.0544234782436739
0.0535259766596229
0.0536320611780684
0.0522060942118581
0.0533008583216856
0.0529345613610924
0.0533369654870295
0.0530447143815686
0.0518353873445581
0.0499542057322824
0.0539447861180536
0.0499659914044408
0.0514792966222117
0.0504639311787259
0.0523482148600701
0.0488126464273929
0.0532523483688373
0.0509063676446199
0.0516016493849027
0.0499694893968329
0.0489494367787673
0.0497424225386994
0.051104492685189
0.0498608375480757
0.0508697331361317
0.0478483866376534
0.0494823855219984
0.047324439040125
0.0486696654795368
0.0497467367380798
0.0485123485492591
0.0472025589775684
0.0492680639937272
0.0498102531907006
0.0494403754079621
0.0481111729051954
0.0492290927565407
0.0473774832374572
0.0500597804072495
0.0490007950109246
0.0472643182040374
0.0466374112214608
0.0476589378995301
0.0486776832299675
0.0488164602509144
0.0471392341402131
0.0471820600153252
0.0456725365303549
0.0489298542831489
0.0467134048215679
0.0456938835217985
0.0440120539851212
0.0446766379132934
0.0438706019304728
0.0452337026824963
0.0449850664555968
0.0471092859810172
0.0445089995520307
0.0432650177043134
0.043318011588886
0.0443535372599395
0.0435590922205883
0.0455642008595745
0.0435043510269037
0.0460543314240963
0.0421080096789144
0.0436972813159554
0.0425654006579037
0.0447215846281266
0.0414219065904869
0.0445153421785384
0.0417263429049033
0.0423117011139452
0.0402626342517431
0.0445616897667448
0.0412112312489746
0.0419664925619384
0.0434053669637874
0.0422844245318504
0.0431176436196738
0.0423588855440211
0.0404404952846562
0.0417864215221215
0.0438518624142731
0.0414719392657966
0.0414930119207448
0.0448250429327908
0.0399834476372045
0.0410437851877222
0.040378326844977
0.0426272487459549
0.0428461645637696
0.0393172254609316
0.0386426328862633
0.0377383721779008
0.0391872396275941
0.0403002088689427
0.0375981700813567
0.0411755158417245
0.033689242490271
0.0371478854302242
0.036975187109724
0.0394571145183028
0.042277498092751
0.0381748082995791
0.0354227570154346
0.0323452208870482
0.0359943599449657
0.0395934979823609
0.0369184772329728
0.0329457019542352
0.0372133599588029
0.0382364595751479
0.0373361275419775
0.0329985040879788
0.0377926341730984
0.0392166928703159
0.0395819867088978
0.0348475120343762
0.0341141046921972
0.0415873422962908
0.0394041728279008
0.0405606474853838
0.0398369827603222
0.0395282253232239
0.0381859904052302
0.0336373948959603
0.0397201606014049
0.0338736571775031
0.043090586438458
0.0322549025381202
0.0399551777306814
0.0302569513090826
0.039193658698485
0.0301788487811927
0.0421429984402867
0.0256148560009766
0.0427550077045317
0.0210609084096618
0.0505419305099212
0.0266847480513278
0.0544067606627276
0.0226854867203047
0.0536984684565794
0.0147829607394339
0.0539482014936047
0.020236138329327
0.0683262367291709
0.0105905767960808
0.0560158353431238
0.0139488501908326
0.0729573130841746
0.0139629042430751
0.0598085394838169
0.0158152174658569
0.0644248595786625
0.0229118781758016
0.050134868490193
0.0323904520965621
0.0430088178433321
0.0385345460993931
0.0348111092543562
0.0492887323001774
0.0287794444830775
0.0481804344054225
0.0279423411873866
0.045043671766843
0.0302023518122025
0.0456401408327436
0.0310881018874887
0.0388133602094072
0.0394074436927795
0.0388002404117534
0.0387538423649269
0.0391514615092566
0.0386824732887532
0.0386666654662507
0.034015005217437
0.0390756043556568
0.0345210647771937
0.0375654718428401
0.0347561831644459
0.0393480575454108
0.0348664470366457
0.0368483569778019
0.0368277682576935
0.0382597927284594
0.0364811177217761
0.0382923810068346
0.0335433607781444
0.0383605199994141
0.0360560574904885
0.0380536274632965
0.0354542853913739
0.0372614546485138
0.0338903782113552
0.0367047382408337
0.0379657075687998
0.0390477296945288
0.034217157878872
0.0386618759167634
0.0347832999548834
0.0380482659306444
0.0362167305827616
0.0360251717981163
0.0373812966323391
0.0386002060069157
0.03554960202825
0.0373514381296168
0.0357273980215004
0.0388839770830448
0.0369494432377472
0.0390171346787969
0.0380238208667302
0.0390134050144829
0.0378821617838201
0.0384936951160977
0.0375065442525802
0.039551283744476
0.0372883246277756
0.0394063408257613
0.0347536686594754
0.0395397747736149
0.0363699990131266
0.0377399113376144
0.0369965598244757
0.0366786666530056
0.034827252448528
0.0390788151054598
0.0364011466735005
0.0392073771117549
0.0358905566020926
0.0382782943372592
0.0348530695238289
0.0388670568040168
0.0360683473055378
0.0387012402224141
0.0342719721913087
0.0404218235538814
0.0367510809480818
0.0364158757232398
0.0334740053764178
0.0410339634455477
0.0364449214382184
0.0381278547641554
0.0375515903278615
0.0387632501183346
0.0360049339882705
0.0382409561870944
0.0354802545223455
0.0396203074758119
0.0382651229922462
0.0394846961766546
0.035636966602416
0.0399417396605487
0.0385135892332531
0.0390966688419602
0.035185998497142
0.0374104536228468
0.0376990655010212
0.0406589240290855
0.0382344574500625
0.0389055037397634
0.0372038168791225
0.0394274691581022
0.0393975988329139
0.0395963383558773
0.0379580135815511
0.0398750392336999
0.0375781014358025
0.0382405802333177
0.0368735270511401
0.0396443595306804
0.0371545611323491
0.0419472867490878
0.0380389021909711
0.0394526347741197
0.0365589712046615
0.0380215686156116
0.0377182402463905
0.0419090353821243
0.0385832380592725
0.0421390225384965
0.0379377555067769
0.0412626856434915
0.0399986423849462
0.0406386779915013
0.0368362102381245
0.0403026404615831
0.0381960438978421
0.0414198289233353
0.0377575201595236
0.0403859391370319
0.0387132010418469
0.0405169077239174
0.0379707783489959
0.0419381521399421
0.0396262207178828
0.039689097648682
0.038324890912313
0.0416762594655334
0.0376237842618029
0.0397950871237352
0.0389593597901397
0.0411832432605047
0.0399748713075609
0.0422172766635591
0.0399104789678871
0.0420115693576021
0.0374789225866435
0.0403686797611598
0.0385647277738305
0.0430654466602712
0.0384997836050521
0.0398607880126957
0.0395211793752695
0.0412961332642775
0.0385144177831987
0.0416487182842364
0.0398362100432345
0.0419858165202752
0.0421051654447365
0.0424639059042656
0.0403941147574293
0.0402473599605799
0.0405442223167902
0.0436267058176529
0.0401445585877691
0.0422541389470912
0.041339373153704
0.0440286733746516
0.0419006749342386
0.0432477191923272
0.0428250340469322
0.0401577950208338
0.0397822300662202
0.0409503678441323
0.0402669153878604
0.0427649449463131
0.0408651070166306
0.0423691175525176
0.0432107119572656
0.044156824389856
0.038816966171166
0.0421051674684042
0.0401601214763057
0.0424246288865048
0.0381856998553882
0.0420714660681849
0.0414486789104207
0.0430356096467939
0.0404891163667414
0.0423998597643801
0.0387372955520166
0.041539098534792
0.0397350269277355
0.0426335136592254
0.039909776689483
0.0427850283715053
0.0397015837253157
0.039385420309272
0.0357513223268187
0.0423144147548683
0.0395138994359766
0.0408929291597985
0.0394828943363268
0.0408329383145864
0.0365354624247078
0.0409317386913028
0.0388301228885031
0.0409795534737056
0.0400004803133789
0.0403751020835801
0.0387044281509449
0.0408106520890966
0.0381955119070006
0.0415563504598691
0.038892390756705
0.0403733708291342
0.038513437700717
0.039122657039007
0.0376497888295269
0.0394639865859131
0.0395108044324194
0.0410443645332827
0.0377620260763498
0.0413122640860052
0.0395109020660738
0.0379442169408192
0.03827369793976
0.0393878554903155
0.0390961151356299
0.0412054330372873
0.0400291332209652
0.0418063235440835
0.0363005955519834
0.0381506587313886
0.0374623919925837
0.0397178921142288
0.0409238140455635
0.039102930147883
0.0381383614386669
0.0389342589664432
0.0366697368922186
0.0401383103568478
0.0382768963921614
0.0383872584396763
0.0377028860845298
0.039529726360419
0.0348811210005334
0.038718398131318
0.0369630575869885
0.0384462811321142
0.0379667340510245
0.0387425513447302
0.0387416651216623
0.0381000673417151
0.0377542544813013
0.0390961162884792
0.0381713867210182
0.0383957859983977
0.0349671703124925
0.0374843210936197
0.0361288887819229
0.036935331775746
0.0361547076116236
0.0365374152645428
0.0363690806531779
0.0414790529233333
0.0384716792343063
0.0372260014718564
0.0362622908770195
0.0387106506268314
0.0367638105800412
0.0391834618739623
0.0380526133100405
0.0365999589181979
0.0364794110154313
0.038758706428462
0.0358876727121346
0.0362517257025509
0.0360555814889841
0.0359061494136332
0.0356597886412206
0.037577403722833
0.0361548443978092
0.0385083150955407
0.0349220492499222
0.0362218257767956
0.03541238338581
0.0354226664588311
0.0370934349013805
0.0353742108566256
0.0338609877906498
0.0389762254643534
0.035379947269586
0.0334101145344241
0.0345430880394543
0.0366498465541437
0.0360409940702626
0.0385444653742299
0.0347183878997231
0.0355938294878917
0.0362421941856627
0.0351639260987605
0.0332292024062093
0.0377326173593649
0.0335126600206089
0.0348215302257729
0.0326057816437096
0.0342837092027991
0.0350742214721525
0.0338360119948729
0.0346999063805089
0.0351538210126946
0.0357310714555567
0.0361691667776907
0.0320090614781529
0.0353186637843746
0.0301192346780452
0.035563284623285
0.0329882244453488
0.0358940877655374
0.0325107579354194
0.0341370174398387
0.0328045798435057
0.0362325646990686
0.0324610978174548
0.0338187987377165
0.0312150478618965
0.0333648303787657
0.0302614731792965
0.0323569980649689
0.0307733106564579
0.0343218726177205
0.032302079686519
0.0332802745652019
0.031997969519675
0.0318435868534433
0.02944510528005
0.033063645110485
0.0290662316354988
0.033670955967105
0.0323287608753953
0.0330652756589821
0.0265839972638319
0.0363082656527404
0.0348844542182669
0.0326272129799842
0.0312472581724676
0.0322898231400916
0.0310782671411751
0.0300863822870074
0.0322390491645012
0.0294994651954677
0.0301509373355366
0.0330069657470043
0.0317176676832555
0.0315220446386898
0.0318637510520992
0.0290662410577861
0.0315712394532748
0.0309530796177713
0.0303799926779207
0.0333518539703322
0.0311144276319434
0.0311408510621217
0.0307009702621544
0.0332463316746918
0.030688858662411
0.0331252250357936
0.0275143313029136
0.0280318856151244
0.0305568550990967
0.0319694052408345
0.0304754041830524
0.0294383198073871
0.0312957700617139
0.031202046685555
0.0279444931951018
0.0288449927271606
0.0306144738865374
0.0300034273690839
0.0297160286580343
0.0319326630686869
0.0297638407297228
0.0306101070447293
0.0307266145081716
0.028709547152606
0.0273319880430259
0.0298884210047396
0.0293198766850303
0.0290369385755899
0.0306691669449507
0.0268532927223726
0.0291409575055341
0.0266527035208594
0.0333433613591293
0.0254686055706189
0.0284227397392767
0.0351250370800398
0.0278440267244692
0.0321183010770149
0.027674690302689
0.0305359731823282
0.0263314271976226
0.0302040748418581
0.0273524388069575
0.029361800201231
0.0274696002891297
0.0304042699332983
0.0289833402890587
0.0304257126335649
0.0279434652977934
0.0322347343825993
0.0281452299005515
0.0303442630813913
0.0273476205725479
0.0308356817573656
0.0262319966996445
0.0300655996182507
0.0332909123469219
0.0311227843965099
0.0312640166644038
0.0313004200073632
0.0214406493902669
0.0426617594168832
0.0244197211767195
0.0347392914448533
0.0263663196624234
0.0323510192277068
0.0225432699531141
0.0321441698833049
0.0252926619665262
0.0304720160499477
0.0272060816894388
0.0303766224311632
0.0283189763818788
0.0277591223018077
0.027743950785701
0.0278868443011019
0.028753972168662
0.0289913199902107
0.0262700338269512
0.0294612512439304
0.0279715024767305
0.0289044266120815
0.0233907505413499
0.0316756913295392
0.0247514177436635
0.0323140081065926
0.028491069956399
0.0283598133862281
0.0258068381779655
0.0318091807309279
0.023367838257294
0.029660227234906
0.0317957811106295
0.0298436436859514
0.0290686457235214
0.0264119442314709
0.0299578985342127
0.0295886539831368
0.0287309041702288
0.0269058620071298
0.0283646998057085
0.0282038634604184
0.0286702525804533
0.0286294526566308
0.0290216309393875
0.0284022285588872
0.0285527028216943
0.0262984566117794
0.0273646112623069
0.0300139088782423
0.0278064514053075
0.0317993288526778
0.0201929926303146
0.0399265961226843
0.0291601499836815
0.0374411413686792
0.0280716931205335
0.0324620980231836
0.0285400131760409
0.0313715926601132
0.025776826832948
0.0297042166964882
0.0267662802486796
0.0282810131584147
0.0271392853123315
0.0281560266896939
0.0274420055447812
0.0291205789894328
0.0289379709682348
0.0279668569717294
0.0261411551304529
0.0274637264906261
0.0279177299457009
0.0273167565750334
0.030679917425521
0.0266827968977487
0.0322667302286811
0.0274798279827136
0.0372463074936486
0.0150256814177581
0.0486125503568129
0.0318671836893547
0.0395919923770638
0.0306063817877603
0.0298954008158103
0.0297966733130412
0.0268602021676577
0.0290387876934942
0.0300666928515254
0.0285420935007492
0.029227765215921
0.0283135219168184
0.0285858990871644
0.0320694833795887
0.0226041514902604
0.0337260458541746
0.0423761813396104
0.0328888744634072
0.0369785136234035
0.0192839672776231
0.0339983340458165
0.0399342392502247
0.0279944627261055
0.033600968126367
0.0277846675404921
0.0328315866033004
0.0278442537051808
0.0325263152995499
0.0283629634631053
0.0347863876861524
0.0280705957368005
0.0347813876866349
0.0285794019414287
0.0316836860703513
0.0321450282366761
0.0279824873032644
0.0309385114543878
0.0375878298587839
0.0277356343500966
0.0359013827023058
0.0294537481241673
0.0325507833723733
0.0280153246103064
0.0329622493903923
0.0242738375746572
0.0336484095991393
0.0312799288300568
0.0305880589392797
0.0343117963484727
0.0388995372482749
0.0305279895295134
0.0344875075020907
0.0280810464730194
0.0462764696396473
0.0162927143084337
0.0447055405513273
0.029522042477086
0.0431862770012333
0.0403804030483676
0.0341649492700652
0.0353948343139766
0.0320925271524688
0.0346734938537834
0.0270266410046621
0.0476174198770112
0.0261372812261856
0.0431639963011611
0.0228978056824197
0.0424707609714269
0.03210842206642
0.0391442129536922
0.0326776512531324
0.0370413717329528
0.0251994519577727
0.0497654551146094
0.027948364362122
0.0310730896475219
0.0463118087409008
0.0330695720445494
0.0548444607793673
0.0310338469081028
0.032187928913167
0.0448246259175928
0.0345813522297842
0.0447427078338858
0.0308771089479983
0.0448981829711545
0.0263469233294489
0.0404120201797073
0.0536717777019074
0.0358038297089897
0.0432755520456362
0.0353274501718929
0.03725558735682
0.0495192190312507
0.0393024865202202
0.0409524902672775
0.0365045332043351
0.0443199565905343
0.0207465076053871
0.0729362618810948
0.0313348272824269
0.0587027249406761
0.0424819542514899
0.0530019877341959
0.045331152766985
0.0499572007824491
0.0363355379019654
0.0499924993524952
0.0473926333699686
0.0492181396008414
0.0301253106869013
0.0553014775175217
0.0534040893738238
0.0470035502921486
0.0530446927319519
0.0424990078779331
0.039961718228889
0.0566706685286319
0.0636374108136562
0.0625318845025174
0.0504758327230378
0.0526325364528719
0.0620209673292273
0.0520320891747224
0.0543075106964873
0.0480834099384366
0.0507461435219093
0.0519043895765461
0.0511641183305305
0.0621879342947271
0.0516871817162607
0.0647859892694771
0.0513315818748534
0.059956067369691
0.0535154190208497
0.0783025508411806
0.0718949294296815
0.0591795999958218
0.0731385099205509
0.057675218485206
0.0727136507204792
0.0608708978503877
0.0691380198193532
0.0629134309863135
0.0685705959106444
0.0705146446763894
0.0601512718451436
0.0848861407340695
0.0686766171242306
0.0918937888665132
0.0798411036281649
0.0839806146041175
0.0709005891285983
0.0612459635190539
0.16776174654309
0.0840204691202208
0.116903659371985
0.0666768353446515
0.115684183697243
0.102476085658899
0.117902861048925
0.107829599811647
0.116103679698735
0.109401776603709
0.125326762640448
0.122149586274459
0.133321184327024
0.135366886153004
0.142721319607998
0.122433172509666
0.15323196988574
0.143745412189725
0.194225576836275
0.162041642863554
0.170242396370934
0.165178459070158
0.18312723460186
0.166419297611218
0.195298222325369
0.165968718367712
0.206770085594733
0.205836401854396
0.212915482626682
0.202488310975958
0.21284374425846
0.224097591115237
0.204191640452076
0.25606452554357
0.225049270557013
0.253011483110636
0.230368138590243
0.254160935008799
0.241978416767458
0.248393497920925
0.266531286626767
0.264099907751172
0.26907031258057
0.267514159602392
0.275390156641391
0.270955834043111
0.286308377188167
0.276906412962552
0.280725282628473
0.274033170299065
0.277830513992852
0.375888231048265
0.287500367264697
0.310628194653507
0.284899471174743
0.293149994623267
0.301491503330323
0.282201584809188
0.326024880745328
0.296531065260426
0.303319116450223
0.28627879286443
0.291514097659066
0.286085253914296
0.291219650333293
0.293873729059347
0.280940073205438
0.301871168986153
0.265149063569004
0.327116924411809
0.297743095382945
0.300767485987454
0.283304358361556
0.287477273021245
0.270836544914055
0.283494671002551
0.267592029547942
0.280022455746437
0.279541066091592
0.268677763907839
0.265241288107014
0.250348284362285
0.269246753229982
0.256000059618483
0.255396209267629
0.246434112981985
0.243237055113234
0.247079989304693
0.220396740899713
0.243436850058496
0.246718910464116
0.232718339569902
0.231273399637132
0.219208700467182
0.219570716505125
0.21297475375217
0.206697517271712
0.209578081493833
0.209406867731131
0.20493170292227
0.206790536680975
0.19946626588573
0.204722577484049
0.196955642915968
0.201721582449863
0.19247916878641
0.200364847493754
0.189948779611803
0.19743737754692
0.189849342044362
0.189946362556267
0.191302296804674
0.192353091826797
0.19365002346101
0.19058073178595
0.186661431780658
0.194403722849536
0.185749106054777
0.191831336550516
0.189200401730786
0.191867914531482
0.182562135397362
0.190233135751275
0.183101168956283
0.189649876785548
0.183359977320895
0.188068432651433
0.182583333897177
0.190375572704325
0.181172259860037
0.192938350655556
0.184272608184446
0.168397906526199
0.219141776649545
0.184823908679686
0.202812731053612
0.18016596996642
0.193893579968191
0.178540802395245
0.175107547908702
0.201847767589685
0.191065535044059
0.195039396680298
0.183834122698824
0.177876458115785
0.194683779250474
0.188954645201561
0.184428649205865
0.19021690700223
0.162092167026996
0.225942694300184
0.16501791222849
0.246997360719662
0.20181670178848
0.210805779762081
0.169290829613875
0.207344063710109
0.191772657941535
0.192456037553025
0.188999887335186
0.176903838839753
0.203193211232188
0.184984817439924
0.195466067679307
0.188586721989162
0.179057593635152
0.194591861053932
0.202853288832903
0.185971407529178
0.19985884122507
0.189577468450803
0.176565510864969
0.179921024112944
0.212046815050957
0.199974350512159
0.173814237461191
0.184094024452646
0.16274931003616
0.17652419137168
0.181865661686614
0.173495501355412
0.178935165235049
0.159896055886205
0.167515032002064
0.158129501535611
0.175394973863204
0.151363749615544
0.165970525128298
0.17054175737303
0.150124923649175
0.164413638446727
0.136556503816283
0.184005337839294
0.164724994551311
0.16738624401402
0.13304160401614
0.170607508085451
0.144850759002177
0.154880688994469
0.149098429362725
0.136982663465394
0.142002642541082
0.147718573461699
0.128886234714361
0.142337059750849
0.12913568098448
0.138563487017029
0.132434933312391
0.154437514842042
0.155547119069991
0.132880265026013
0.127173766891135
0.121495656022421
0.121140762311296
0.126845462904015
0.100948613651725
0.149416298644961
0.105161489716763
0.125844123984158
0.122330400715076
0.125030276264162
0.122437386818763
0.124678081638833
0.118147748987209
0.1263314635402
0.122220588575191
0.147744175926013
0.115970620683458
0.135579157306222
0.125149521444508
0.137970975311891
0.123108317264684
0.131590332089887
0.126442960630453
0.138693093166182
0.134528032203796
0.140783712505737
0.137069562208733
0.149976375606711
0.133136974228446
0.170145795636384
0.149425130062356
0.156235040466196
0.164022350718759
0.155119549618013
0.187957300544771
0.167243769213025
0.180697207075182
0.170741548038682
0.173905680524034
0.186290092468491
0.17099883597221
0.193421426448038
0.192828198135713
0.192585643648935
0.187844469459099
0.194079750373538
0.193802348609504
0.18963743662676
0.213759819899627
0.184992997302396
0.249949050778252
0.20683812041654
0.229455048297333
0.202375335431968
0.206466651330589
0.209834903909177
0.204609583716906
0.213391881662508
0.200687014626274
0.212318268833725
0.219409098445462
0.212885947161753
0.213721819473758
0.215411028479441
0.216589902830847
0.21828461230301
0.214963580635642
0.220764376571646
0.212565342178013
0.227826878661089
0.211517143250586
0.219110610927871
0.250839060888861
0.228685133902124
0.239132445551614
0.224830856296896
0.239656220946154
0.222698939077292
0.229480710029389
0.237323339274609
0.236236018206143
0.238695351514264
0.233991028330824
0.242136884816331
0.231209064601214
0.241444566964392
0.246676240734714
0.236310215973271
0.259330272486132
0.222777000030513
0.27896785700481
0.242252486328982
0.265881886346966
0.245898001483568
0.259753227988243
0.247878889066722
0.254242746440046
0.249638730207862
0.255385231085893
0.249464826917831
0.250637501120145
0.25362491486385
0.250944852470637
0.256562756448723
0.247607163362093
0.254834728456531
0.258832283774944
0.252195271341473
0.25185713817508
0.250825208470528
0.251326811635993
0.243805425145563
0.262644276450481
0.248384934979566
0.257313943876759
0.242043368669449
0.250995363815643
0.256396425155853
0.253556810621973
0.247565418997253
0.250366720468117
0.246439373354708
0.255970939888838
0.237984863179963
0.258495253677748
0.252840852259214
0.256449837426049
0.251229495373057
0.257229229115822
0.250156036098232
0.255150330540559
0.254807621266015
0.258670126470978
0.254103780944294
0.259102832841141
0.261226574396174
0.256331680190639
0.257545148951339
0.2575294678831
0.261657753630122
0.266701457161753
0.254916300616672
0.255790741624216
0.252814066329559
0.253866269220813
0.250176991142672
0.254901307840685
0.241063522303244
0.251001302842897
0.237718760982965
0.242935508419014
0.246560721210382
0.238889786974073
0.249432474201537
0.233213629377335
0.238137136446308
0.226185803707767
0.234806396291878
0.226975374529229
0.229724280548988
0.224253408919307
0.226934605985108
0.224570949626382
0.223794158204546
0.220215778739308
0.221420238424319
0.220949748193713
0.219048527922821
0.219079745663788
0.217572836025489
0.218664927428313
0.220409208486353
0.219677860913144
0.217271785318022
0.216571358057932
0.224989910468764
0.218134699298314
0.226218239102579
0.21488538887488
0.223961675317139
0.216937237506185
0.22032214877014
0.2157999481805
0.220867469962317
0.214102775350062
0.217038700870106
0.215413170732657
0.215158439779402
0.212732653714454
0.220845014406606
0.217345175172561
0.215755204372671
0.215093963783807
0.212358022964228
0.21571350747037
0.213630684754012
0.215747796635369
0.213173738824531
0.215796838560188
0.211614473204523
0.21743691674784
0.212882740747564
0.212840846035989
0.215239782919636
0.214362698966213
0.215290338899959
0.21098081706697
0.21409670715652
0.21368265082619
0.215646381289754
0.212499490089017
0.210821729367124
0.213572319776982
0.208808639378528
0.207807049555438
0.210937844528934
0.206743944376828
0.204419748991959
0.203536927558652
0.202973872005039
0.202868250566027
0.199145872385411
0.198665974252456
0.196553992170685
0.195087409373458
0.195194530769817
0.192888319655579
0.191431125813711
0.191122348891625
0.19005589768802
0.186418268819251
0.187298916665696
0.18674749309851
0.1864741199627
0.184804593685661
0.184824769515188
0.185615141956027
0.184131746290224
0.184397042953121
0.183347873828764
0.184664444790843
0.186392187004726
0.187146170458365
0.18536224987834
0.185533095595003
0.184232337109396
0.18920146842427
0.186397042973957
0.186869249462787
0.188147782091263
0.190624622573698
0.191275613584312
0.19157313522787
0.189946015518578
0.192902773758916
0.193258493307981
0.195311393595337
0.196445924751098
0.193765742431519
0.195473335523668
0.19651405579667
0.196059448589556
0.194735262154367
0.198604350532086
0.196337656938504
0.197177098313421
0.197508017270788
0.199970187974013
0.197506569240394
0.197122280073247
0.195299935689038
0.19513667827643
0.196610625767595
0.196894887767991
0.19426408420225
0.192683073476954
0.195371007418444
0.192326331102286
0.19006391298232
0.191355361249985
0.190404880207217
0.190367060774808
0.189956694293973
0.190125554143557
0.188289225489784
0.188088085590354
0.1872089466685
0.186240185832193
0.185277890558638
0.185098780028264
0.184960868134952
0.184051538231366
0.182121517261965
0.18119740796498
0.181110831552485
0.179280064986756
0.178684475751757
0.178356003248006
0.178219724794186
0.177418358691817
0.1766678350616
0.174322255664105
0.175769169789204
0.174468710948793
0.171603138127135
0.172430530852717
0.172259878051855
0.169797050078538
0.167147155369262
0.165841253127666
0.16588825173086
0.166966545489607
0.163355180261351
0.160810402318896
0.161396739098976
0.160936924109025
0.161522328405525
0.157358671109422
0.157345227045131
0.158093544497284
0.157147343530826
0.157626211996292
0.155476967458909
0.155471381548201
0.157571765487411
0.155759266891369
0.155677342305316
0.153839528407635
0.154359996425915
0.152263552241389
0.151446461652855
0.149836901475109
0.148390215833142
0.146876823802555
0.1436917943458
0.145037289807806
0.14037201309788
0.14146597659973
0.138589232168377
0.137516752652499
0.137071601172726
0.138726930162857
0.13952967958108
0.142909739550027
0.14172748107576
0.145726140750693
0.149523377285288
0.153239020720075
0.158896561211603
0.163404106197136
0.168748235897748
0.174408833851323
0.182739054648556
0.189196452918824
0.197519074798115
0.20471458475673
0.211138858631666
0.218580347710272
0.226934781536457
0.235950615820278
0.241688676273063
0.252861265575054
0.258373932890226
0.264418364621407
0.273169763076194
0.281862757404978
0.286143744385162
0.295170949950945
0.302230712582145
0.305467852322514
0.310754729574893
0.316226981377863
0.324182792177361
0.326141450993054
0.328828334031617
0.331874913081644
0.335248178192708
0.335622887686287
0.337156551191344
0.339014946431121
0.339373117157479
0.341235758934086
0.340082880843895
0.341612565376665
0.339445009965165
0.340657548293415
0.339775419129406
0.338744963428319
0.339658056123281
0.339101404119173
0.341518903087478
0.342203700381202
0.34254166897953
0.343840656629921
0.3449740955176
0.349354519406785
0.350344686796306
0.350366546722928
0.35499587838778
0.357506187045044
0.361742336363336
0.367471541877388
0.370969230003035
0.373192773664003
0.378558199887153
0.3884567604337
0.390678245086284
0.396119599766919
0.404085036519139
0.405615589645725
0.411824987407808
0.418307267962945
0.422146155064399
0.425012436957821
0.42556361434499
0.428893119459643
0.428353103151626
0.429752891293826
0.428732572086832
0.428115151233642
0.430165741749142
0.419348759023294
0.423684131871216
0.4213933182861
0.417650481438254
0.419935797836036
0.421752730209937
0.427030472286225
0.430148394346982
0.43432014991721
0.439432827739396
0.445397180521389
0.453309232103546
0.459098757029267
0.462505433430419
0.469157206014293
0.482400368481507
0.48760515676693
0.49946178183558
0.502332299108676
0.508976280614111
0.509569258078622
0.525373134693937
0.530780464381991
0.540734803111734
0.544209735708559
0.558768695390833
0.562334809015219
0.570601306892395
0.587544529963983
0.594356204635582
0.607683777906914
0.613353319186211
0.625010796229024
0.636836785766763
0.643384338720566
0.649823465585044
0.663308690125319
0.665218529015478
0.67720962665376
0.684026689921887
0.686169948752478
0.692714632283243
0.688814630920996
0.698246430376728
0.697475537642959
0.68866594137657
0.695680010209612
0.689825676672831
0.691902528030192
0.682995361111718
0.675916940600849
0.67169011354721
0.669980429870363
0.661615256370522
0.65831957827821
0.662653128922761
0.657823925940911
0.661706579283017
0.653541562313577
0.664661450612149
0.662411839030084
0.66440077096618
0.674692598294434
0.675700704394184
0.683628295028667
0.679135878362338
0.692540675580237
0.704493860707671
0.703331709199704
0.709992556140738
0.716570291701257
0.723282054674819
0.725491545565761
0.724147939169628
0.728577243593556
0.740654788862936
0.73498822333875
0.724649283919078
0.731766969778659
0.735895731318961
0.743650382287889
0.74533104130484
0.745919886354686
0.739074506040332
0.737772921906314
0.73989009828749
0.731689610678559
0.742182278595745
0.740635944985324
0.741174050636169
0.727378229187894
0.722534449188809
0.722378538765507
0.719943580509315
0.714649573915464
0.715117351766309
0.710771163457215
0.697210715625433
0.698329473357253
0.694791076103537
0.683241400874613
0.665864620459131
0.658758377518797
0.643606358517853
0.625847731505861
0.612873737147337
0.592563665683335
0.574581695900432
0.556281390693538
0.531268896247988
0.514254254655407
0.493563652003531
0.484646762344673
0.46031389554061
0.453230624695558
0.440878421408042
0.43157855476627
0.426642393914905
0.420350666485406
0.417033938648909
0.413701768860065
0.41305021881608
0.404299442412159
0.403134632269487
0.39945957558095
0.396420332228839
0.390976087060679
0.385798750537116
0.378905266171763
0.378286882069411
0.369261675825196
0.362575683898452
0.350917446896129
0.34836794340651
0.339321223547208
0.328269176904149
0.321967167780067
0.308587378174226
0.299246084961142
0.289298444250185
0.279863043651558
0.270057393803937
0.259370226742361
0.249377980270099
0.236945704467283
0.228049561402671
0.219247653235107
0.208159191751341
0.199906555793936
0.192129367330001
0.185056547748289
0.177543016183875
0.16932515835452
0.168506099231952
0.163297041493274
0.156726318544698
0.153325522623341
0.148744695110411
0.145047592420397
0.143736949419766
0.142177392172444
0.139978693825157
0.135049926670569
0.137679616174534
0.134609104939917
0.134596404725475
0.134241040958785
0.140593445631657
0.136476227093978
0.13365407817002
0.133909803702049
0.136432005908566
0.136310931043026
0.135638756199185
0.140371322343959
0.141505533250064
0.140849002031147
0.141529318496699
0.13824154323356
0.142192322370192
0.141587757871807
0.138967004300734
0.13924143638304
0.137823599440584
0.138795116738151
0.135498656596389
0.136078529195547
0.137600263003772
0.132756227469738
0.137027329472279
0.136619003593877
0.13450115102523
0.13867151175122
0.135828035112399
0.138441626578927
0.136179040634163
0.140128727553118
0.136891452614178
0.141311394277338
0.137698148674073
0.146375856174778
0.142200252832349
0.14176668904796
0.146435722148634
0.146156511074912
0.149043526328373
0.148497902326611
0.14771956468999
0.151830205014918
0.147665474141611
0.150347914957454
0.151104597460431
0.147551768727696
0.15157177449558
0.147818626469266
0.146105167192931
0.154140209757869
0.150193145491301
0.152837420361601
0.155040171909609
0.155392917174432
0.155817696757918
0.156632944728598
0.164372528909858
0.167187263479174
0.166848105669096
0.16937030408755
0.176811317898395
0.179245888784555
0.190442863590538
0.195867789135005
0.198809839070437
0.195662653074939
0.197338073316022
0.198967961942625
0.199392161135727
0.200430452480557
0.200884665934515
0.195539042170479
0.19064091797901
0.191752130983671
0.186059387852137
0.182848759905672
0.180982449570877
0.178849448908667
0.180929141125451
0.179704806702066
0.179489135486213
0.181061800853309
0.183301012440889
0.178416851044306
0.177257815134422
0.176061119542894
0.184809572447703
0.183614682382798
0.179802930327108
0.175979312626269
0.175650858908114
0.173585245542911
0.17260298182882
0.170583710646236
0.169710136049196
0.164196858882134
0.172946363014954
0.171596445730948
0.165446908976115
0.165261147474772
0.162507578403867
0.165557768258359
0.168805639619794
0.169463999624853
0.164295188066503
0.166839476510091
0.16528640269762
0.167484894571533
0.158972343215053
0.161069064078126
0.157013407473786
0.158719146267062
0.166198053225781
0.159237844940307
0.158340121598929
0.157137433061425
0.16360550244578
0.160906420744304
0.168511638247783
0.16230159071868
0.156799551858264
0.153332110619379
0.159078021402557
0.163304990780318
0.158059048150346
0.150402280853206
0.162113269978621
0.154147931718467
0.154921873738193
0.14891366928562
0.160185731324327
0.155308104084389
0.162079832858561
0.15413249182335
0.150524487418984
0.149695498568443
0.153876296782726
0.153682107255731
0.156105672686137
0.152216229931651
0.159186875133965
0.154525137447201
0.160143763439311
0.16068523426787
0.163034833895597
0.155615492997051
0.16435201994307
0.155457003650817
0.157935097486254
0.176465821156384
0.161948243192272
0.165065123902106
0.168186080219334
0.159368415865972
0.163227748546529
0.163570650804187
0.172844162828887
0.172929707764902
0.172617124220221
0.175970508482631
0.183087816390071
0.176393490237262
0.178643841848119
0.175449932140483
0.183781034136155
0.190241117250522
0.195445591798486
0.197922202218462
0.201355232173438
0.203428648680748
0.217755059520087
0.211682654262082
0.222457750466524
0.218531180776499
0.204112269023801
0.234095193764792
0.231274263848
0.243814238926341
0.246429069012395
0.257127810815404
0.258196520801884
0.246413253245776
0.254066372509591
0.255504531954649
0.261152724038642
0.25905502132871
0.261424800515922
0.258936259150593
0.260756205021398
0.255090742321129
0.250301791362683
0.256467154245352
0.252311915843497
0.262009577581371
0.263619152489761
0.250648131297699
0.255333337100987
0.248540801426899
0.267012421725528
0.25217092141093
0.263190096824503
0.248054948511599
0.263760248227636
0.253493518349303
0.247085973319554
0.250696182405364
0.245548600966063
0.247868163402761
0.252618109802328
0.234892148693464
0.253884158314372
0.233558917425388
0.24235808887981
0.234474332339667
0.236053618588237
0.230721325104835
0.255527143907227
0.225181088929587
0.226528621783285
0.237104125066854
0.219450144262712
0.245480964433553
0.230804643223199
0.238387527521999
0.242589260544879
0.245055431224178
0.252103739812117
0.240403144152017
0.239638487148621
0.260760234313632
0.236289202665239
0.254722310347436
0.265363291017194
0.238280838917761
0.276219843175772
0.25520625861646
0.254927539530233
0.246782309136697
0.224956931286437
0.239598292586819
0.254238538061038
0.249974740537265
0.231344996858433
0.246273782273358
0.264661154335152
0.245559163287926
0.277360153435373
0.250735904078549
0.271720091480783
0.25885232216574
0.276181983165487
0.228345732517437
0.294584298507679
0.274799255443631
0.272731575973817
0.272854780148197
0.281873483405236
0.282158583895234
0.323617157868991
0.320302358349484
0.282514476073238
0.320484931263772
0.313347660476047
0.267280401019605
0.333807067467342
0.289103322579773
0.322145153454929
0.331235851517722
0.346014843314892
0.352433790644598
0.33072676568728
0.314322199854731
0.396347164654066
0.345971306175451
0.333567775930587
0.296724432061264
0.285805766599294
0.33403453937405
0.327047073090057
0.250526820181188
0.283318912459391
0.292840259656681
0.308391245514685
0.317939013317463
0.295287248833333
0.280130264005349
0.32757283903951
0.281122710211189
0.302692571702544
0.292621556484072
0.251491756967419
0.305106611009807
0.369797831079005
0.236855354603912
0.276044072807467
0.247283549097861
0.362732424180545
0.354252440689311
0.376361116438183
0.375680510963237
0.343590267883449
0.251750762069993
0.281124792332876
0.41496215434075
0.452374104367319
0.278639540427195
0.287522621721725
0.354112836361765
0.393226829690485
0.128711881620683
0.431230323801851
0.212444500621403
0.427238886529498
0.22692740972563
0.30543985949239
0.272669059284325
0.40550043201933
0.362681697534874
0.271780507337687
0.263114849276017
0.419898837186342
0.265057324320397
0.323273683148681
0.242640072961847
0.195156752445689
0.268087116397522
0.349745500002706
0.348836098305188
0.258893781378407
