3596
4000.36533379555
650.420452594757
1
2
2
0.05445755973981
0.0471006801151052
0.0602048931814516
0.0532921016214606
0.0577072006785765
0.0499277554606769
0.0567202686775617
0.0500896790457876
0.0586449481941733
0.0490574455897027
0.064541418465627
0.0447987508144851
0.0584519259638788
0.0479308002023177
0.0556508651498729
0.0466184424543706
0.0566158407888983
0.0479951202518802
0.0609675159441396
0.0511783226822772
0.054823426402284
0.040745203632663
0.053977195361159
0.0460411011340067
0.0466991695089103
0.0491080374921902
0.0588732187059483
0.0498785509375669
0.060807161561743
0.0512106254805291
0.0569073237990095
0.0489105024697264
0.0611416980106651
0.0502047648197654
0.0540040899996429
0.0468469222783712
0.0616071599940301
0.0404850513701653
0.0527627650746106
0.0472658192427545
0.0603035860081646
0.0498527393913135
0.0560073771927791
0.0440496090649431
0.0532959583342931
0.0468535495318887
0.0573548241555816
0.0486536862417809
0.0560895611192723
0.0468384629409133
0.0636764557258541
0.0505308833941593
0.0617533644601212
0.0480328455458991
0.0570320779118666
0.0556256280192282
0.063115802739544
0.0473958420988543
0.0568762726207237
0.0436864392719785
0.0620268866475237
0.0555709342905353
0.0542440259890365
0.049079931141304
0.0597283548971237
0.0487176445262483
0.0582664064461358
0.0467408668075816
0.0583891985221923
0.0493732156813939
0.0474575144119892
0.0498761828115745
0.0663363640080456
0.045680123543523
0.0544370540970404
0.0431544565660354
0.0548334071834679
0.0403522842924491
0.0554837801731677
0.0469849980613017
0.0639569508454629
0.0481832384036364
0.0569449516014777
0.0371033398127354
0.0522052289859298
0.0506585824424459
0.0481809506144252
0.0322493190244884
0.0630143583303537
0.0571985863090991
0.051579561600866
0.049090366791731
0.057216430503776
0.0381213304001438
0.0533677491301357
0.0376726294634575
0.0487332641630254
0.0447896704486444
0.0491517276177158
0.036593834549972
0.052762726378471
0.0278084195086985
0.0701111532887283
0.0489525434569669
0.0742088729352398
0.0559359911401773
0.036605859197703
0.0583605208578466
0.0674691864239228
0.046273697594827
0.0500809025571512
0.0393358425420633
0.0593611487299201
0.044988987556968
0.0433244641031374
0.0385692428547343
0.0813184340705852
0.0482888373843063
0.0518222508562495
0.0446601143353961
0.0403789562729291
0.0402046267973604
0.0806729285942893
0.0440934478528439
0.0601346515021703
0.0419736336069038
0.0383010793630006
0.0459299654377888
0.0757016592014324
0.0460335990042066
0.051806813379532
0.0401130783447012
0.0541894566364746
0.0284918699931296
0.0731442313395068
0.0556215043407843
0.0524441120791403
0.020968403018355
0.052230891011198
0.0746889646141257
0.0641929097834504
0.041682993877694
0.0392326814460866
0.0246938035360674
0.073130747368933
0.0463458365194987
0.0411976486861755
0.0469832044314778
0.0598595482567977
0.0367408302890142
0.0483911360040678
0.0354732101304119
0.0602981875984566
0.0389526416615048
0.0205815787204331
0.0431535756225286
0.0978701551830056
0.0171757496894546
0.0944250013676585
0.0484498710827747
0.0470835731255847
0.0494810750759378
0.0506701023011351
0.0356743502607023
0.0478104247577052
0.0330741280007725
0.047717755908015
0.0626012627053675
0.0492310734223655
0.0358354868951491
0.0747003262804733
0.0485350289296277
0.030884327815109
0.0675370321427058
0.0695228489310183
0.0252220076272472
0.076780044157183
0.0504401262829563
0.0383056473979383
0.0312320560634762
0.0733328844843664
0.0387757389039297
0.0553300607549579
0.0401930836945096
0.0470500339712258
0.0509783378451703
0.059336821338462
0.0344438607167256
0.0499221722857117
0.0308178763370356
0.0541866677072681
0.0598412470027983
0.0706230108647382
0.0471625385263099
0.057245557944102
0.0105326918901174
0.0624031805124344
0.0742531331418511
0.0548371296303962
0.0432377507667335
0.0464046608561774
0.0339962528023654
0.0509589212421614
0.0378243339270884
0.0442760439129326
0.0130924587696555
0.0698708584825057
0.0542926168710178
0.0474295054385177
0.0375045918047822
0.0456990812686134
0.0154799752396735
0.0715190042195323
0.0728421828234376
0.0498692289608591
0.0510053232497412
0.0346827686362959
0.0439087058301897
0.0687935819094631
0.0431306098285938
0.0490579824469343
0.0457695941536267
0.0492554760481731
0.0430512775733695
0.0502696357665259
0.0488494762597335
0.05345205727055
0.0433385150379882
0.0503215193095796
0.042337921528541
0.0585689407425096
0.0484306907029517
0.0504239884183433
0.0439254967366186
0.0424921091208584
0.0373889681337609
0.069880794281188
0.048227041557586
0.0564441154435895
0.0452786424114988
0.0495992071329474
0.0453856561643429
0.0498477394123677
0.041026065970167
0.0457718330127
0.0252790488028804
0.0721300167724113
0.0561158300910576
0.0547044801309202
0.0418533102251397
0.0616946506361777
0.0583868871686985
0.0515513497362674
0.0437454913903111
0.0498894683924611
0.0360490514326698
0.0446363989969756
0.057527365178754
0.0572869438238919
0.0395822024302943
0.0705803363821057
0.0514240989911647
0.0473795519610558
0.0388782184471462
0.0205764144153718
0.0784355941941546
0.0641684949750929
0.0227315794309386
0.102491301694344
0.0593146929822566
0.0586445049724047
0.0454219007893046
0.0103273421451882
0.0744718541840181
0.0907239302146705
0.0457431252298389
0.0638342982300005
0.0578518979409706
0.0592261466803316
0.0395572125801078
0.0471184948336434
0.0324272398324178
0.0674904321782367
0.0699494795838721
0.0932174308581589
0.0329639256879992
0.0667919246359634
0.0749821274936156
0.0575756501546057
0.0515921008624349
0.0611952668724346
0.0472346307398532
0.0664137512793641
0.0591749853433931
0.0659467507689003
0.0553105371890571
0.0528248337974287
0.067701248311543
0.0682343418421704
0.0516015449445719
0.0611043230575017
0.0514543536940897
0.0603664433360531
0.0558571062197425
0.0590882814962119
0.0580905064531936
0.057509467101806
0.029158559188383
0.0881394020085391
0.0717525474535671
0.0528462587219832
0.0697114100728122
0.0770654337151318
0.0573660003674761
0.0625195408131891
0.060186355224754
0.0664290090976292
0.0523466798131977
0.0555708891175856
0.070712762053246
0.0797068476965657
0.0571005283946564
0.0637180270088108
0.0542767691348364
0.068267441427049
0.062363558647637
0.0644957854165883
0.0609460237868965
0.0714720485170675
0.0517403773515324
0.0804804053948787
0.0783393568656828
0.0534948052609538
0.0812804453625532
0.105007503584118
0.0690311452784347
0.0788099285918746
0.0699133326373975
0.0804656552450659
0.0706793569872479
0.0825268822737823
0.0705414482279553
0.0728045670049621
0.0873451680684499
0.093944272325728
0.0641182841015373
0.079859210216693
0.0963633546095591
0.126331934914897
0.0970386574899352
0.096892531605443
0.064025425056895
0.105062068874394
0.108242659943563
0.0970217174614438
0.102954698335874
0.107880945298807
0.0948132652567023
0.103029335821243
0.103876807084335
0.101619837514932
0.102653371850634
0.111623585295439
0.10811839177095
0.116982531453715
0.110059228420745
0.118829882605491
0.106756165156175
0.146784520506469
0.121653324330562
0.123949671059624
0.116670105444786
0.122170685633505
0.119845237184998
0.149116264612459
0.149308506237072
0.151222589926383
0.135804142071128
0.16528600062471
0.144134935271326
0.151343072025268
0.138021158599377
0.149097612311768
0.144278506220936
0.157333615513131
0.144069216026199
0.158475139470972
0.156017057981502
0.173032160586547
0.16136973689703
0.168083193052636
0.155435808074337
0.190776600547839
0.171752072155807
0.18070967491017
0.160827904395561
0.180596285651552
0.198912601360285
0.226726644501213
0.1968612950815
0.194564319863016
0.193056944248249
0.201444015437075
0.201276440026974
0.207807358768021
0.199959175202153
0.20740048879055
0.215723737594511
0.245330921462883
0.218892661729375
0.245542302777778
0.221865408560305
0.240908762629621
0.229786177883759
0.244701251633593
0.240984037469486
0.259014278524218
0.229107508395579
0.258362060195032
0.249849989754667
0.265699023858179
0.263399020352264
0.261409290353948
0.253899478680137
0.277764603051888
0.265539990146753
0.276803571381065
0.27745806143075
0.281628112115321
0.271587842300221
0.305270628220484
0.290802144275013
0.296848578253898
0.296816379234452
0.312863959831632
0.299164735860031
0.318345085270965
0.296017547356437
0.319857441486259
0.29986992723388
0.327673949861358
0.347169474535358
0.34632702511191
0.33996503398354
0.35034594377308
0.333429016286111
0.358397845571676
0.341376327893296
0.356051243637929
0.34449594129837
0.374666415420663
0.360132467511219
0.379040781005973
0.364330572776923
0.37814498297278
0.367915096686876
0.386416939033173
0.372835865058884
0.395974044915122
0.3687949161638
0.394248516906927
0.400823496173379
0.432720059083421
0.400850944747671
0.440302205491854
0.44406201071056
0.440111476512483
0.419501859955603
0.435713249751968
0.441382782266244
0.451644485058693
0.440697430287658
0.478992192447069
0.448782046793421
0.46599814121497
0.460911388522205
0.484487350564968
0.453370510407616
0.473483786262396
0.474386891901233
0.503107218232644
0.486123257220577
0.513287813804162
0.488968371677686
0.497681031269271
0.499078142192085
0.521200566167861
0.503844046381955
0.541942023770161
0.520725795091889
0.55021445251105
0.54226050392746
0.540344888042904
0.539201167095386
0.593587366957461
0.563203219765002
0.560654017731018
0.567819482402016
0.59504446533772
0.560665679830818
0.581449685242002
0.570305611857905
0.58175588819892
0.573880801754496
0.600118684887178
0.572950892530018
0.614780223168228
0.623197763439636
0.60197319513908
0.581781235866565
0.640768422893746
0.58975607648663
0.62775248949091
0.635423977373638
0.677967179540906
0.630731921492822
0.669393652960765
0.640679604594377
0.681952076081088
0.649420941675896
0.672531393883771
0.668918986584874
0.662870875386678
0.644662683004787
0.733157584766215
0.673490098247061
0.699675848649827
0.685977000354977
0.709894234869067
0.693822679883428
0.768223218004953
0.683221934857902
0.708083220113017
0.715724477743277
0.771580133099999
0.725929179704322
0.734579321378084
0.716729054254161
0.744294654942599
0.716890183713988
0.781666102718429
0.73939809189076
0.777485839660826
0.754748166351313
0.791530205619084
0.747738814110048
0.84547820776684
0.792440851440072
0.830321458748846
0.768480237563899
0.81291839161073
0.792438299887507
0.836979618766666
0.78754253579399
0.870407043269829
0.815625003133125
0.852931437208624
0.835860144852949
0.860428486936189
0.797207256342942
0.880950583265528
0.812928964346345
0.874557626511746
0.863507054600081
0.91456755588324
0.848017749023427
0.943942282103154
0.833330454468868
0.872500897307951
0.868431853998846
0.927078804455037
0.909174268841403
0.922700416142433
0.826426925389832
0.968324299699945
0.861159648084325
0.960140105127696
0.934397353412972
0.977175116306982
0.904368764960218
0.98557428168117
0.933988510070378
1.02154801402121
0.917121052637875
1.01799400106466
0.924434684265896
0.963801570227702
0.958635860951839
1.07271010864851
0.995002592441231
0.985281384144219
0.999247818613815
1.05214914536141
0.955416049103953
1.01439366265976
0.983545324130724
1.05199706980978
0.95152052844374
1.05993992926212
1.01997772116764
1.05820996220636
0.964633946126149
1.03807880972636
0.997993556870609
1.06378925740055
0.991811864694087
1.08579577699174
1.04856055563844
1.10217246015208
1.01759094562268
1.09966596755204
1.02479045475218
1.13208822385604
1.0540712459467
1.13848773945456
1.10552469854942
1.15403347153403
1.12400703085614
1.12735133813206
1.07957518867484
1.19541733657764
1.0667948387514
1.22143120398482
1.14211292066925
1.17392124817652
1.12347310737935
1.17503742468081
1.13512079584038
1.12793521375854
1.10734927822467
1.17955268630398
1.14933577993363
1.14883497272058
1.10094380789798
1.23313340471113
1.1648412122656
1.28891929929095
1.1352390895259
1.22781259270191
1.15010470074841
1.141816146956
1.06310964647916
1.18013020366175
1.10123762132056
1.23212044873785
1.18130166314963
1.31098402623988
1.24036441323928
1.18318219256569
1.12011514373292
1.25704478031234
1.13854931999412
1.21433493410331
1.25735467113172
1.33498213188782
1.10616296623984
1.3253554595953
1.22181822377807
1.23444594474869
1.25607161003578
1.34466359981972
1.3215478156697
1.29938542874468
1.19647287184341
1.30433052042943
1.24547606880525
1.38417092202416
1.20284832553312
1.24772877732351
1.22115362851523
1.26440033091254
1.2697217240261
1.28903374350432
1.21146999669746
1.25463725173077
1.20305217628612
1.33961819901639
1.28202684024116
1.30963695759915
1.24569623975704
1.47120296082483
1.25489884156934
1.31228195273169
1.22484344110779
1.39408764645732
1.33008254710704
1.37217247750415
1.33554451764868
1.39442069698483
1.32827362867616
1.35143362610118
1.22077469015113
1.34869953919269
1.3973261263285
1.33776414981014
1.27709798903194
1.41822325844508
1.3418994096105
1.30642423762121
1.25837961250332
1.37576438344748
1.30839977245858
1.40283668836354
1.25711019944815
1.37550843443363
1.344446150403
1.45121581568962
1.28721730524163
1.36391726938225
1.34700346080094
1.43045495973648
1.37794251157584
1.50935174013206
1.27045031758522
1.42239843992033
1.325623220023
1.4158778099382
1.42807972055779
1.36161529317903
1.31254691576171
1.40130301981491
1.34198170202488
1.41289348051993
1.31718137060143
1.43498451241276
1.42585157427506
1.44055340902073
1.34962281529663
1.46067974260015
1.2929966529419
1.47428917952103
1.41653408833772
1.38557801473474
1.29665742256389
1.38099044742365
1.31804841236768
1.47949171238989
1.3314968197446
1.35572769639165
1.28436067262449
1.48468716911641
1.33062381258667
1.35664151213979
1.33031252379371
1.45577372587796
1.41806035477745
1.44287884387816
1.42070706403148
1.45592433927015
1.41567541275804
1.43053529171321
1.26787844936738
1.58366954380179
1.30438569563638
1.41146673901745
1.388034200395
1.38505766137982
1.38836322256812
1.42426439400637
1.37078781851298
1.54740901457431
1.37357081248314
1.38486303972513
1.39815375949907
1.49720483135604
1.34345021756798
1.46163249003044
1.3140518632897
1.39390123620309
1.37620129244466
1.38746233595036
1.3797557777775
1.49522983011555
1.3602686562358
1.42260902994886
1.41216746486058
1.49923749185269
1.33838842533515
1.46610380493572
1.34945745006671
1.46206968399439
1.38164845448825
1.45956063018857
1.31755713628754
1.33259730522696
1.39735226359571
1.47708567029097
1.50470586934354
1.60100363088487
1.30444432386787
1.4302693806374
1.33977552599503
1.4256982120062
1.39618006867513
1.39690017388814
1.39945152441711
1.487726465033
1.30645806126548
1.33113701528195
1.29383939984947
1.43369906969677
1.31461042669731
1.37640404141528
1.36444378678168
1.35186344981805
1.33751219694386
1.41157958504614
1.38464975971965
1.36782424991553
1.31156904985496
1.45119440236871
1.37648244070253
1.34984587428422
1.24015560078307
1.40006247707881
1.314292116591
1.28646938669483
1.31806297131339
1.45035843292575
1.33001373064556
1.44082287452997
1.39143823813002
1.32936499908456
1.31642386024873
1.38876444560576
1.34907114802843
1.38582601908412
1.39323988779849
1.38285264082205
1.27716809450465
1.29556886149807
1.25920443399699
1.34174376020531
1.24134553066455
1.31079925917123
1.32636296821709
1.2843654068719
1.27390033440244
1.33292847038947
1.25094575623229
1.27138748336045
1.24397169676846
1.32041703074355
1.24120727632886
1.26005932909055
1.23222186769233
1.26829150135906
1.24443913250677
1.32084330628711
1.26282342590889
1.31606507866488
1.24408106675573
1.28807294624699
1.2641161458408
1.24996061835998
1.1647920581823
1.25599492429933
1.17205543407704
1.22406043785989
1.24066731523285
1.22368762252421
1.20624959193388
1.27872044570141
1.1343001433928
1.21281461693946
1.14308802145657
1.16954641731048
1.14936990653132
1.25776730725615
1.17994721520726
1.22664041042971
1.16707831504378
1.23337910299838
1.16677850142043
1.15187463435633
1.1459851732616
1.1895510425979
1.15706665732842
1.21622415662967
1.14033614588582
1.14277016853619
1.0972827816686
1.16397909301828
1.14049243845525
1.11778670198174
1.17313990130611
1.16567345049364
1.07108829764034
1.11622978919542
1.09632618610076
1.09559765028443
1.09918860186309
1.12855317431733
1.03948193405928
1.09782830492939
1.06970056981501
1.07281275615617
1.0707525309019
1.09272802419088
1.01572690623321
1.06050157828763
1.03075194441301
1.07066853449681
1.05395201843458
1.03044046072968
1.02918564874036
1.03736386126966
1.00999596609612
1.02902842211849
0.991152305451725
1.04280800448936
0.9750312796315
1.03385983961792
0.960936984630824
0.997649696550064
0.980727406845389
0.968155959336348
0.987120450831192
0.997891702728818
0.965462294878689
0.953712479094895
0.954710575067049
0.973605066530622
0.94104189949989
0.978068670783332
0.951049014430968
0.950763262275129
0.924407645913684
0.934484423600555
0.916978501116641
0.926376778130959
0.897924638346675
0.898130981688177
0.869806195723973
0.918886676763227
0.882634371830463
0.897114954430537
0.888035415623515
0.900329253733917
0.868451097175307
0.886130030620012
0.855132646249946
0.897477086114569
0.870385034575131
0.871719654176763
0.845613056145707
0.861927664098269
0.831171121855594
0.839590338196246
0.826672867852115
0.863336936798056
0.821821846733231
0.840865475527141
0.805687557166308
0.829310353963019
0.8102892009494
0.809772402568511
0.800948222763372
0.817937491584981
0.796018940657651
0.821544876270612
0.809360148925414
0.813999445477672
0.779975644519126
0.777388739492655
0.75218321334431
0.78452068990331
0.768212336870512
0.777957292030812
0.764459298098612
0.781853539472314
0.763771071332866
0.783149243862157
0.750685094309745
0.77257859823354
0.740217444514671
0.75894889763893
0.735074225466122
0.742376679455981
0.713263198062199
0.751957158366098
0.722088383525019
0.729255732565473
0.702156621295954
0.728891072868895
0.710818001319281
0.731425964018515
0.708387742403381
0.708338250752264
0.702109865908895
0.707374489858747
0.690281427287299
0.698879377861796
0.684306383178427
0.695923039137973
0.693281431180641
0.692338504581238
0.661833111288624
0.68772305441887
0.663883385355397
0.672169623571306
0.658224247938825
0.662358140204297
0.651435763583622
0.652656946936131
0.649344491906267
0.642671714865287
0.629349867569293
0.63585157886314
0.629181910032501
0.634904174602905
0.618974687733364
0.623225790876827
0.621850102741432
0.624215626193514
0.617067703586935
0.625463685821826
0.603296016448997
0.61813239139366
0.593440009427824
0.61062484819466
0.59654576304423
0.598100330713123
0.575032302667885
0.588709350979172
0.581507325785628
0.585951775375612
0.581598787172652
0.600114929843375
0.566730810863594
0.594381892660118
0.564119367062362
0.571148967207828
0.552688471944053
0.573355669313029
0.553850225473876
0.56610732117011
0.550233565788469
0.561264110153801
0.544220577736218
0.540584928055506
0.537028742845551
0.549085020361844
0.532794136006048
0.548455830041385
0.53123626257198
0.542497178898352
0.52305375374033
0.523813781258609
0.508473348592471
0.527498276737053
0.508760597735393
0.522218145744106
0.506470356493978
0.520828282741455
0.501617228320877
0.505281782311912
0.498391533838949
0.50825436386546
0.494906691895624
0.50304837698713
0.480636080599509
0.490022300250365
0.474818005535434
0.497492465905133
0.480026272956038
0.48799211932419
0.479483690075783
0.486604353329745
0.477690984873682
0.485517181141882
0.478696152067303
0.475393535148226
0.470001194727515
0.482746554179476
0.469567272835898
0.481026359312854
0.476309950180416
0.478532164730719
0.468219832088946
0.475461443456974
0.464078902274323
0.478847933364076
0.46470485461595
0.474226854710245
0.474096734153719
0.471158136828404
0.461485331949903
0.47894253590763
0.477876752334387
0.47668401989816
0.462536255945034
0.482252079312722
0.472675115297217
0.482419839192504
0.47748181821113
0.485253421534962
0.478045770622531
0.49291189462514
0.481338298469948
0.492872967709052
0.483077786357182
0.489662978330176
0.492916381813292
0.498857494529628
0.495170256698774
0.502860937604847
0.492500366753744
0.500941294459843
0.490998952448444
0.507386419450577
0.496879598262848
0.512167659392545
0.511427612678051
0.517362710709562
0.508772566512891
0.531664217616965
0.508718686565772
0.519306332990102
0.511536210044404
0.516549260253643
0.520219753629981
0.523186616410257
0.522838849118218
0.545633691781698
0.523501301951137
0.540733224592844
0.531888529438797
0.541737158101885
0.537959280386504
0.548509224854682
0.539122905187273
0.55368858109679
0.548513166006124
0.563894027703209
0.552836465217768
0.559637227284536
0.570876128037272
0.581940525986265
0.567867350429566
0.572103692949484
0.582560715706423
0.58968385639096
0.572703312944324
0.594931848244591
0.578680358941927
0.597533299739826
0.590871940243166
0.593254196617067
0.58014591281479
0.592765715413899
0.59382275910989
0.592277337852249
0.586669834324698
0.596479332978804
0.584925426547285
0.598598689691795
0.593009438454565
0.596094620074517
0.576792864007858
0.589916131606014
0.591723038760834
0.590205043678048
0.577242931180741
0.592225037720785
0.577809846245085
0.577278784768825
0.574907355987969
0.59538079246643
0.577839783786976
0.585450185671492
0.569868645085514
0.583850456699832
0.565025815812389
0.584917773772731
0.570756227463795
0.584073222488844
0.578336312593745
0.579802631389571
0.583264867627314
0.585274700845827
0.570766066462552
0.584531666745297
0.574254566117726
0.582851991167169
0.57687265498055
0.590337663415784
0.568507808584712
0.580295967211687
0.568559474182045
0.578971929341073
0.572620643709029
0.590089495879602
0.572727186171283
0.584825822524154
0.575033960328298
0.573563612796179
0.568189196121727
0.58154051928943
0.577481275424831
0.585585326127525
0.569586641370605
0.572675774963906
0.560735231485752
0.57914801961216
0.567606992941976
0.574081377984779
0.562445278519568
0.562654278682991
0.562124685364044
0.570298840524606
0.553064585185605
0.56691998429573
0.55694438698044
0.558130554273994
0.544710980120517
0.549881619306177
0.538424506348824
0.541571430893231
0.533548535897139
0.537202223122417
0.519111241566
0.522333639219833
0.514900294438938
0.519715321196148
0.508035320955358
0.510385321918057
0.49447184469956
0.502905627768039
0.499549976978357
0.504416700350189
0.485869172138098
0.490859487712628
0.474366874221546
0.485166005824238
0.480352933489795
0.481478248749199
0.467743058283755
0.473993216736917
0.456622304229148
0.458892788661441
0.45535730248442
0.467510830012731
0.448117358789476
0.454773589284429
0.448255923985517
0.441347462966681
0.430904640213141
0.44547229065621
0.431185238246793
0.443001208238559
0.438413708507667
0.432976974331109
0.425336555389233
0.427908388151507
0.42552236803343
0.424133361877643
0.420322790421197
0.425756526117082
0.414792990776711
0.428237164618885
0.411314218223835
0.412436908041818
0.405842060351934
0.415711795734481
0.40249915623126
0.407826819777613
0.395420785445062
0.399544618931343
0.395679056410911
0.403255443604838
0.393856580060874
0.395583725215606
0.391777123648921
0.389282844715675
0.387312431474352
0.393998504995919
0.379092715346259
0.391129348436751
0.38551832466515
0.381050096891353
0.38000972855728
0.379339715796388
0.370297397756809
0.376863255347271
0.369259870829782
0.380728214611647
0.374452029647888
0.372259938544113
0.368706097828773
0.371144600636624
0.360569429532333
0.373296914377455
0.358209888674695
0.364307158111586
0.362259727562738
0.3652867778945
0.355729827692104
0.361243429136279
0.353701289566681
0.356913222707689
0.346870807241204
0.355879581576975
0.350426171862238
0.352283830596941
0.346916867992891
0.348193817845226
0.350967664349938
0.350908866854028
0.337369961446775
0.34823058210406
0.34071553717906
0.350072118778615
0.345587259121711
0.347495344932326
0.33966166778899
0.343898684481956
0.336334621417146
0.335801858282129
0.331318146528172
0.335197144720587
0.32760345452058
0.33786159321281
0.327140355031226
0.333659916056741
0.328168760640246
0.332345825884822
0.323895441214292
0.330608096255477
0.327692893549465
0.330054801065222
0.324661240172148
0.324241554184019
0.322498559009579
0.320930560652558
0.317690760170846
0.323012284222742
0.318764599785356
0.328713772272146
0.316831221880618
0.322786219479417
0.311320598182652
0.317930091019923
0.312911844819769
0.317479394825997
0.310421227768736
0.318963465205187
0.310595507359254
0.316139912037413
0.311341088830622
0.31380183878485
0.30883788350678
0.314361510013029
0.306503221054366
0.310314912134361
0.305741568387784
0.307900069320236
0.304779987482221
0.311020289494414
0.304173185656566
0.311394461433594
0.30410736008451
0.305162683228985
0.304355230045376
0.307543740838816
0.300316099659356
0.300630494870428
0.301495594026513
0.309945433321383
0.300160818169631
0.304421947432505
0.296636997203305
0.304918839868505
0.298554472818673
0.303003723314295
0.296914119002209
0.303535082378824
0.294598663944335
0.299753039264896
0.296243717094827
0.299315179164681
0.289524312537604
0.295604979080598
0.292368122985757
0.294406040581678
0.29201431471118
0.29406476088083
0.294373869144764
0.292573743323451
0.28756396058094
0.293323275928885
0.285169019640725
0.290321965644032
0.2863371414626
0.287737608653181
0.283798440513073
0.287184928187235
0.280010330122408
0.284933527502374
0.276798376058818
0.284365164129497
0.276914144367096
0.28067148876203
0.27868841757927
0.280257001903797
0.279220275980528
0.278190907524626
0.268866219082498
0.275207975645574
0.270508654847513
0.274563260578063
0.272289895541977
0.272551344310002
0.27243835690113
0.272858875801051
0.26885075239289
0.274574362362839
0.264870282550129
0.269202656318384
0.263937633624109
0.266554868613907
0.264129774877197
0.26950806143884
0.25675945789316
0.264303581444446
0.258768044016091
0.261581636305906
0.257100710158241
0.258967912392158
0.254453240782591
0.258054105439279
0.256264485544313
0.255379309704693
0.249806310009909
0.258439387652074
0.250906744866476
0.256194566589581
0.251146191749423
0.249050009448849
0.245952695395557
0.248509986549129
0.244604165938775
0.24601539601101
0.242069402591894
0.245809631164942
0.240564183967705
0.243294933788575
0.235775672849167
0.241319196619332
0.24128148534335
0.238178955760286
0.230799680934283
0.234704157202454
0.236017961445654
0.238231640086267
0.232917628586344
0.233378867129739
0.2276444541552
0.230383402391175
0.224746138204583
0.228457819466241
0.226647347567856
0.231489507195172
0.220872147381016
0.224679792562091
0.222054145679261
0.221545758577376
0.221611208138903
0.222464145196303
0.215281520571254
0.220312270137954
0.215099056495197
0.215905066489588
0.212049053189812
0.218966214735223
0.213514538238317
0.214124312142811
0.206947197340953
0.21030110970384
0.208730548090208
0.20994232969591
0.206787032150042
0.208159418616036
0.204115850563978
0.206966002633804
0.204128957668474
0.20784402265518
0.203686428225935
0.206361709219734
0.204309552500849
0.205855578799187
0.202257289487614
0.201747366841723
0.19901620485837
0.203505900073441
0.193586098675577
0.200231879102568
0.199958408447428
0.199932350189146
0.197187168894691
0.200173123352162
0.191904163270834
0.195461296733106
0.192973023984059
0.193294368728897
0.192050906404126
0.192933630478264
0.185563215811314
0.190859191910312
0.188116040221928
0.194388729733339
0.188609469378921
0.192047182417467
0.190602676939123
0.189397049212507
0.183399369042799
0.186942422992798
0.187702329570458
0.185754966896054
0.182986014936431
0.186125256898995
0.181892910610963
0.18425340821123
0.180151274179588
0.182138993259589
0.178484327313683
0.182834986846132
0.177993953276919
0.181140087697627
0.180723705797098
0.181082601624538
0.17683843158779
0.179740548609397
0.176460456300557
0.176501525124307
0.176610379810665
0.180701060448386
0.175352794546801
0.182003844787133
0.17525662214186
0.17503651657944
0.172937291011368
0.179649640289676
0.172385130161018
0.176015004738686
0.171688262351774
0.172281465263952
0.170639451763447
0.173605583920395
0.169298140311366
0.171773235041459
0.170274007139752
0.174930492002391
0.17054636264801
0.172749092833363
0.17075714832168
0.171727274703495
0.166323218577874
0.169598530754341
0.168810237592667
0.171253120788731
0.165237760362049
0.171086870602901
0.167086550859764
0.165711318026057
0.163614134428149
0.167866907004395
0.163582139556813
0.166453639617392
0.164915909341922
0.16670741075208
0.165903801385339
0.166961961110987
0.163131036892899
0.164222658150453
0.161452124773072
0.164040259463283
0.162512546546371
0.162300335704008
0.157749619626963
0.16116642977635
0.158976392270831
0.161988054439589
0.158969525165433
0.157140755407038
0.156003875699154
0.1583907432254
0.155186037453022
0.15953320025923
0.156513064795395
0.156906225980938
0.155079802118563
0.155793803575361
0.152159086999505
0.155836625853606
0.152214275186947
0.160105674208803
0.154506754458328
0.151975130142648
0.151821755931826
0.156480507448097
0.150962053573736
0.154393440842002
0.151670372266086
0.153491912591361
0.151806572465825
0.151771793243083
0.147946031376285
0.149849793843549
0.148142470627916
0.153575456433373
0.147924256874934
0.152348423864754
0.149466621432097
0.151244565001007
0.14753633121095
0.147882509328926
0.148440528862783
0.15010543584526
0.147701277005921
0.147826552252069
0.145301702102662
0.147713119529999
0.145131341412219
0.145794611317897
0.142722952711831
0.143835411857326
0.141231994363521
0.144821444519512
0.140623390529129
0.141262465895507
0.139475088275127
0.141027108082768
0.139546394100678
0.140995569112275
0.137417651221628
0.136869454532994
0.136372884691482
0.137674777178885
0.1380323884267
0.137837416921261
0.134556078844081
0.137055063361144
0.134510035739326
0.136017622027135
0.129865205013105
0.134992266328565
0.131194122777975
0.135130023883522
0.13180840716691
0.133329906919197
0.127963490871578
0.12984836437517
0.127520840929927
0.131071601127184
0.129225083557895
0.127586717326202
0.124369286872793
0.129562361719596
0.127715051268063
0.126785704670664
0.126483301345303
0.126290582075805
0.124748551193744
0.124896295746807
0.124302101560235
0.123109002700865
0.12354182592103
0.124112828834472
0.121138544862423
0.1252010706553
0.119708626075304
0.124044168381722
0.11990322082119
0.120438166799281
0.118778365119817
0.120327849379213
0.118086470373231
0.120395064053697
0.117330037396875
0.121226817392007
0.12041368440545
0.121091397139248
0.11801386518642
0.119662292799922
0.11581564302154
0.118322654224189
0.11533973233485
0.114455269613327
0.113575038012767
0.115204993555618
0.112989810680277
0.116862031690179
0.115397710237146
0.11457316280644
0.112657746618763
0.113865054342762
0.110257074121133
0.110539781605676
0.107885844259016
0.110032249219786
0.108816361965411
0.112426188662732
0.110119263104992
0.112063441795009
0.107302784045319
0.110893454898723
0.107324690990025
0.108625221120864
0.106063691314792
0.107299036649429
0.105678790001424
0.109583639262607
0.104452383333279
0.105759863524115
0.10500217117922
0.106170429981292
0.105337139312817
0.105338066096864
0.105394216647815
0.105673146011836
0.103554921467324
0.106219714017244
0.101398395608303
0.104902622196351
0.104970083975231
0.105487070147854
0.103631776445542
0.104488532020547
0.100151241195962
0.10558004691257
0.102548662523127
0.103847104280879
0.102160718032004
0.103474037524564
0.0996754307369916
0.103841520101872
0.101283567734486
0.102887378267808
0.102608081545157
0.103971216073718
0.0967261375457445
0.0960671643156291
0.0978059949072366
0.0996823012895712
0.094648208065033
0.0975582545382373
0.0939729424276944
0.0965993689747084
0.0911499435614343
0.0968460039165874
0.0992259492332586
0.102557957682181
0.0925985197814057
0.0905065383592427
0.0971131100881016
0.0999330725521511
0.0924426633693848
0.0924880106373454
0.0973191907439988
0.101588303527133
0.0950586087008424
0.095583364996682
0.0945145132592762
0.100539758825862
0.0964046110483399
0.0964617389713835
0.0911056650712124
0.0975244663665956
0.0964059329857412
0.101508752940556
0.0961501679362626
0.0954500673171702
0.0902984911950156
0.0928380588395199
0.094585183228262
0.0946418280731273
0.0971508704329834
0.0925598260060038
0.0949782972168884
0.0911239088632348
0.0956634775786838
0.0912877403824632
0.0960533661216511
0.0840006976443484
0.094615725468246
0.0854423326858922
0.0973006948120396
0.0876938776173183
0.110973988491049
0.0846798310782749
0.10548466208396
0.0768010459525237
0.103044966976327
0.0791570914312957
0.118400937490454
0.0721400341509018
0.109805242571873
0.0731050221056237
0.122251464060912
0.074131614209878
0.113054256075396
0.0731616182423252
0.121163736672393
0.0784319322369976
0.107508783569109
0.0851609354412651
0.105815036176813
0.0906329623522268
0.0938354341181743
0.0994696595459361
0.0891969434047808
0.101227737571172
0.087309678471811
0.0971518419197991
0.0870817293049381
0.0999072537616672
0.0920357681498661
0.0939431010420712
0.0961531351542696
0.0946235149654624
0.0926715369603206
0.0916507884762827
0.0948450661434921
0.0930990475355477
0.0923372384825633
0.0954967039823366
0.0920348804312712
0.0932788189888392
0.0922575114495938
0.094012335133913
0.0926238352349426
0.0905037201786446
0.0913347758053721
0.0936646194897526
0.0940114842452788
0.0959381288161925
0.0900051155499549
0.0929926870163103
0.093014049986118
0.092774092927294
0.0927561885943883
0.0952187777970041
0.090911367183494
0.0921946982149349
0.0930066430917628
0.0937917168448593
0.0923064533279772
0.0938027847258456
0.0909157042127359
0.0944824276063879
0.0940002134991216
0.0954433480120719
0.094035051031116
0.0938998978787986
0.094552016021236
0.0944508978440019
0.0948626545048339
0.0956587020504459
0.0939877445517641
0.0962866987591504
0.0956883953000942
0.0962381795058932
0.0957007514789467
0.0970604249574008
0.0950582528148167
0.0986486489423614
0.0928213186462526
0.0970741807815906
0.0935887164779228
0.0972235870189208
0.0964069129243455
0.096989103409928
0.0949563160585132
0.0966743595666931
0.0948194495932057
0.0968225084081591
0.0957543863786381
0.0961717866718136
0.0943495945033329
0.096569224138945
0.0948700424791197
0.0961794823549048
0.0949776679805339
0.0964383227595993
0.0948835909431089
0.0989434872830267
0.098223015541791
0.0973378457340197
0.0926820837565732
0.0986635763377011
0.0962989438716646
0.095467162790349
0.0978477634362558
0.0999540527226867
0.0964930200742167
0.0979469670802446
0.0959628441955976
0.0979601269493285
0.0983980285885374
0.0994964395916569
0.0949272849109974
0.0995397300792577
0.0989870025951464
0.0986264290757001
0.0955232555682617
0.0993878397643464
0.0984507369946538
0.100148088813422
0.100410186888821
0.100872478819409
0.0980455755423412
0.100341011878435
0.0988307167783898
0.101327832078914
0.100351277438294
0.101793018141641
0.0996638038057837
0.100808431692357
0.0993976581106432
0.0996613096391227
0.100205611408633
0.102552221380528
0.100630870242908
0.101808649158742
0.0998099838999997
0.102261727675726
0.10096134207967
0.103291800200252
0.101665215199484
0.104493114964753
0.102446845960943
0.10440336635137
0.10347739126678
0.106594654728714
0.102106777534583
0.103258136980652
0.102338907328195
0.103807221496222
0.100057319601634
0.102673972194782
0.10274890059951
0.106938964302942
0.104792941023649
0.103747384639998
0.105010053285566
0.102846260903093
0.102262083419871
0.104803102448058
0.103889969798407
0.105338367222506
0.104335162307938
0.105588959194165
0.105225879179594
0.106122910909956
0.104050169315429
0.106142494658701
0.106684918083617
0.106518233625222
0.103115524375061
0.109614045470785
0.104289909943871
0.106109103295885
0.105814010523379
0.107910273620442
0.104962006169506
0.106310164788119
0.106486006399167
0.109041838383942
0.109276236518718
0.108879298727187
0.105411309936652
0.10786634717846
0.107769324408603
0.110836184746127
0.105869286891683
0.108871886261229
0.108247813319722
0.110125303873979
0.109169694519079
0.11220476425288
0.110970106373366
0.11004551117509
0.108008527768737
0.107487370705189
0.108951782953675
0.110740503441905
0.107299218426556
0.110713256311582
0.109108958304139
0.111690799338076
0.108740940638616
0.10972648652295
0.108646168627196
0.109689088618841
0.106978188241938
0.108859058324281
0.105830123078414
0.110926310995268
0.107825436134713
0.108962495075951
0.105376236422435
0.108368439472036
0.107101173424713
0.108335539116248
0.104563738532107
0.105450305456803
0.105735043746675
0.10510949962615
0.10207752345967
0.107209300797146
0.10390030555084
0.106230942410044
0.104503293746796
0.10370143323762
0.102909907578898
0.104335903614113
0.103768373522559
0.102696054295678
0.102085256932682
0.105676715554166
0.103235560985706
0.106248122143185
0.102494797908889
0.105134962488582
0.104018932011936
0.103372033569579
0.103737509043605
0.105364782361739
0.103792826018009
0.103212169649961
0.101332618916935
0.106463742010623
0.101985841189899
0.102818308339201
0.104226761241522
0.102812807073765
0.102615017204726
0.104047734853779
0.102463385767495
0.103973937606466
0.102499829983883
0.101664949362354
0.0990259071070583
0.100226920621209
0.100555663340049
0.103521316026509
0.105348425687124
0.103551202727634
0.103012435320051
0.101674965897554
0.101799047607903
0.101024276048184
0.100920166753265
0.100749821434497
0.101384262256519
0.10074464911278
0.0977271240112034
0.102134472343621
0.0976403164319557
0.102150516007877
0.0984182272074714
0.101742758722668
0.100765526285696
0.101283045715137
0.097934543167666
0.100903796081341
0.100210805854891
0.0992364873903072
0.0975496119748269
0.0996583491468209
0.097513169827821
0.0995400882914908
0.0980920311638049
0.0994426114069296
0.0971750675635163
0.100727433666943
0.0999258164184095
0.0998148064491872
0.0967362910040187
0.0995131370193134
0.100009640580936
0.0994491971362138
0.0974833540844368
0.0962829112923505
0.0969427314337527
0.0989078117314478
0.0970192700374417
0.0960931219840207
0.0956514896353363
0.0996045283979785
0.0955574293675169
0.0971864348499811
0.0952042945134658
0.0989934258896665
0.0952475341517934
0.0965077028537646
0.0931698577595984
0.0958650911756845
0.0948264738986085
0.0929472094599256
0.0962047533221649
0.098489515350982
0.0942349986271394
0.0930765536993171
0.0931362510727747
0.0947702737262621
0.0934600972987351
0.0952718719946622
0.0920154041211861
0.0952146633679143
0.0908474518147599
0.0916365799082944
0.0918979370680155
0.0935548937571924
0.0900048697128663
0.0909791072057862
0.091663130321006
0.0931799352964321
0.0894929437050116
0.0906643687316687
0.0895299512774577
0.0911671334975305
0.0903187709988598
0.0876216651969464
0.0885172884688154
0.090053040045736
0.0853476543622773
0.0902575081436426
0.0857149173451306
0.0886900457466313
0.0846118387830397
0.0870506759610584
0.0873683980136819
0.0869260682315394
0.0874255434334464
0.0891162125988662
0.0850225541951236
0.0873392769644482
0.0831754536754017
0.0852698653528567
0.0812258405565235
0.0857521497990173
0.0818900723240977
0.0850927921266562
0.0832317262881347
0.0839276746971171
0.0798318509148076
0.0822207302674052
0.0797674535394905
0.0858856154040087
0.0816142759546264
0.0844704872407201
0.0768128894064548
0.0852432582420967
0.0846878866986268
0.0837123935288408
0.0793108251012571
0.0825396098800695
0.0818099579823417
0.083058825601977
0.0814232382121019
0.0801569886957633
0.0800051640934644
0.0834574948748954
0.0818629208724988
0.0825969819307237
0.0813153460918971
0.0791496879732834
0.0800817622844766
0.0811909675010767
0.078346534783473
0.0810202647804248
0.0803637759277124
0.0807721824257707
0.0800042171956924
0.0801488182220055
0.076840062020549
0.0832756148916243
0.0761928080239948
0.0770864422106947
0.0789975949973504
0.079690487441054
0.0793075107763231
0.0758411423843686
0.0790125769553054
0.0772992885929624
0.0781094585740268
0.0782112979014857
0.0775596293323738
0.0773121650378672
0.0752297878805922
0.0780395157739268
0.0764999449551726
0.0768304487763613
0.0757724399515547
0.0750773223078069
0.0728294632419331
0.075670735809814
0.0749191718509546
0.0752086577274247
0.0753427404262717
0.0728568852896311
0.0749515109404489
0.0714333732731761
0.077457435562619
0.0704608394501917
0.0761953779439333
0.0797599308615572
0.0760595845169731
0.0766832806210447
0.0723775711120466
0.0755813553467834
0.0711420724052078
0.0743754657671775
0.0737833774465671
0.0762208809990465
0.0722224132951697
0.0753103539676507
0.0721637115247012
0.0738434682986292
0.0738184514391965
0.0747171103325448
0.0719922919622547
0.0745731668741434
0.0700584937143733
0.0739684662974706
0.0692729373444147
0.0725782221468456
0.0779800449807806
0.0749792968870948
0.075543206129338
0.0733453772546361
0.0660471046090473
0.085860420420684
0.0717054277337028
0.0799072841336665
0.0705670085678937
0.0768204508638694
0.0681435581416142
0.0764470195096415
0.0690210013637464
0.0757981596910819
0.0701895417036696
0.0742858685360437
0.0712845875105253
0.072034352207917
0.0704007163061738
0.0732292584038958
0.0728196888893135
0.0720262624304287
0.068214093115897
0.0732626106836743
0.0724043805826376
0.0738262796925356
0.0702800933318263
0.0730736947645191
0.0675228105691214
0.0757036930831083
0.0719185060663334
0.0720850695406412
0.0678004554758983
0.0748671688613776
0.0650190682589308
0.074008268671561
0.0747120610906838
0.0730679373932083
0.071362125197198
0.0703185524734428
0.0742934749337355
0.0724114571385067
0.0706757658165201
0.0709168995484235
0.0710839233450605
0.0709407394104144
0.0722223482348391
0.0708080970654842
0.071300790922613
0.0700471350072399
0.070650444741137
0.0703294173028313
0.0700522396629626
0.0716903455728271
0.0713405265333168
0.0728910926796355
0.0661468201151693
0.0842134482946296
0.0726543296660925
0.081242138528807
0.0705830648066892
0.0755410866936495
0.0698540540500603
0.0755300431905963
0.0682020815676541
0.070742281297048
0.0689580780537586
0.0716470376147857
0.0704092415029478
0.0739862654325031
0.0685774478142074
0.0710620479661787
0.0698683149115667
0.0725812986543615
0.0693069289451893
0.0720902790101145
0.0710449039259047
0.071375512046095
0.072906294588405
0.0718471131786135
0.075548252608504
0.0733256001580893
0.0762004090205654
0.0579721132110583
0.0920217166502671
0.0727369323446931
0.0791331809943656
0.0686278314027081
0.0744925730990778
0.0704746168061932
0.0712331290549636
0.0728716635599613
0.0739266670424293
0.0730084367387159
0.0711177018664536
0.0718085856526258
0.0760420138527188
0.0729718790913471
0.0657943096557286
0.0780143465007391
0.0869153185827504
0.0762750078357919
0.0805466263416892
0.0652457921520306
0.0812896319786107
0.0871213566268216
0.073078954707807
0.0771299507356247
0.0737999345299752
0.0780913838457719
0.0731560036655974
0.0778411134769199
0.0731181928386
0.080935016510332
0.0729886465568839
0.0785912050789108
0.0695369913846611
0.0763498158653537
0.0791077255080145
0.073044934463032
0.0771828897854661
0.0809226512819987
0.0724495293485447
0.0811597747853458
0.0767036448715834
0.0801134939844085
0.0740943912861769
0.078680625256916
0.0702872218914257
0.0838086779863855
0.0821691380324164
0.0809597783869352
0.0833268546613096
0.0859677254827491
0.0783003292422859
0.0817408696359657
0.076292394898328
0.0927836509104128
0.0639344153037997
0.0911047057799586
0.0798908072344129
0.0956833810079718
0.0853517415641827
0.0858980526383438
0.0833057112837003
0.0834009771457275
0.0828897302305063
0.0783914351844118
0.0965472207207959
0.0789041676357291
0.0922374912226133
0.0721114238172602
0.0931733025092712
0.0843237613223111
0.0898750411412875
0.0822554517975693
0.0895341850758923
0.07662971498457
0.0983026676628901
0.0792800170636933
0.0865633958786085
0.0986900932650626
0.092199321316961
0.110758229468092
0.0832293788221107
0.0884713203319723
0.101363444007373
0.0894145291944233
0.0981744727643367
0.0856741644742433
0.0975266057073844
0.0807021824281132
0.0979148778470226
0.112921927148999
0.0957909825847418
0.10097382821771
0.0909633132686964
0.0937904864892089
0.107989748932842
0.0997105936966173
0.0997320246617264
0.0960692226462753
0.101110881165868
0.085730226555036
0.136055730378555
0.0955429904719428
0.122633517162057
0.101644964326155
0.115990543745014
0.104861928750396
0.113894623478554
0.100520297544658
0.114463642142775
0.115041296338263
0.116545149956112
0.097434493696978
0.127628595571902
0.123416791340996
0.119666974390053
0.121891756335987
0.114729959951557
0.109015001793091
0.132362807841221
0.14408213364331
0.141875032666268
0.125586285352071
0.129950422465982
0.141617915606551
0.135578090256592
0.136042296468262
0.132354673354559
0.135423994575855
0.134865479041965
0.136048314249626
0.147516277600409
0.137082549727134
0.151496329758883
0.137781159879667
0.150850606830786
0.143714710924791
0.178325015368321
0.166624904332674
0.157667603388725
0.166417544650771
0.160119007069395
0.171271666329442
0.159336132269703
0.164297372528551
0.163971807878185
0.174351555086563
0.174230184546687
0.166062758913131
0.195308012326301
0.178853576831044
0.20870138336883
0.196698758991506
0.203014524265526
0.182660720107007
0.192897223015814
0.299990294884129
0.221026269461134
0.242907008494851
0.203571951186965
0.252193824853602
0.255770321408868
0.268304450132729
0.256542141681671
0.267412713909893
0.263356469931804
0.291931995228294
0.28983071628426
0.303736320664726
0.310632779291477
0.322571737283417
0.305563469823474
0.349595918169432
0.357377424873436
0.40500605478716
0.370091769944148
0.377314945011279
0.381376604355524
0.409602361691848
0.392318636664264
0.425038077480732
0.40283407223948
0.445591515455486
0.462134918642385
0.468190106164777
0.451969596554715
0.47048277107227
0.493997467101933
0.477381815446066
0.540239349836843
0.51870016635538
0.539374876007551
0.525977503901514
0.54817209813679
0.54885595680717
0.552927443956105
0.587943762419111
0.588677759773438
0.595444621098376
0.599046821849719
0.610888367713994
0.611346308257714
0.629717049640983
0.626091897470668
0.640285257188169
0.649231481739939
0.651883414934698
0.823926748681206
0.664862450345265
0.674554509977793
0.647844890186295
0.66124042784282
0.692339079261326
0.662835435998181
0.720944494690891
0.685096665012661
0.679431869114434
0.666769184323669
0.673690121392927
0.663371637619095
0.679888821072955
0.684531152968959
0.667267974804637
0.688005186142144
0.646158613305644
0.721414772920294
0.728931396085067
0.683735328124518
0.66230840002187
0.683670322284587
0.669882507038786
0.667484507510001
0.658764223113989
0.667515278276609
0.666155660071345
0.654208478462774
0.644916336127479
0.628533905135329
0.655131924634016
0.635823287189578
0.623219444902465
0.602558323397098
0.593529907206676
0.600919286008977
0.563616634901767
0.585520625855022
0.609303755892732
0.576201060901551
0.561943873096262
0.547673715279634
0.555040444687023
0.542595125603884
0.533385651441212
0.530265094686295
0.533053672752553
0.516471811845454
0.521928364759754
0.50989532089829
0.511733043109107
0.499179649217374
0.509095891224697
0.494037847930517
0.500025431358108
0.486628859039695
0.495235156590823
0.485534456962407
0.491310976866552
0.484197509432618
0.482811567045848
0.483351232776583
0.482223570100814
0.479521687997951
0.479879350495579
0.469034591988962
0.480387646202613
0.473783777599959
0.47779541541857
0.472249245032176
0.473512062672353
0.471777293050195
0.476166686983491
0.466451279191016
0.480756699318172
0.466643920881151
0.478431298887013
0.462294163750336
0.476719631681275
0.459477552732447
0.454998665033472
0.533374248153031
0.481057937483466
0.482608335096051
0.466986438808334
0.473281324077637
0.457341975990124
0.45282861204799
0.492341145687076
0.475680501768879
0.469602834067149
0.464300233828016
0.453398197122381
0.468468656169042
0.465607961618638
0.460965595055854
0.469241525856583
0.427965566477852
0.495814628483606
0.446867810038955
0.552875223248752
0.503846025602797
0.484289705521441
0.433790886575643
0.483965494864992
0.475645832307957
0.464932000016117
0.457266514818727
0.453751021695477
0.46701872896695
0.461597056479592
0.458950489927558
0.455840012780221
0.439308462455012
0.463307321925802
0.465758620536019
0.447508563147449
0.464170094889323
0.459042426382627
0.434479570361225
0.440948255341497
0.488371478849685
0.453171529396631
0.420418564528187
0.437711362758231
0.408222292819386
0.430733765575592
0.432334393834991
0.420405268052022
0.419976027121236
0.39534947333179
0.401255927960003
0.39067735690244
0.419380204846955
0.381069929449559
0.394310665655075
0.400331030479013
0.374918761997051
0.388146811456273
0.365271444747604
0.40168457087721
0.392268666754543
0.386286842101804
0.348086996863788
0.388863402157835
0.367937456752967
0.369107167615621
0.363380695059394
0.347176898384212
0.352204967175821
0.357406061060159
0.330633029492309
0.343080907690854
0.331670747349375
0.335273629038188
0.331377131060326
0.363854315476592
0.352936708916348
0.323075950345502
0.312722012305776
0.30939801619156
0.311725295637442
0.30953159396867
0.288388187942595
0.339519023211785
0.296712966513286
0.314287359031856
0.310338868718515
0.316286009430669
0.306636370504103
0.312563253430628
0.304178947124515
0.314782705089999
0.319378267425734
0.346897110742765
0.303883648709217
0.327451055900906
0.31967083123473
0.332100359055966
0.316702017584037
0.330140850873966
0.326618145390491
0.333510341990219
0.341059868097743
0.349570983573909
0.348891716052067
0.365442826431922
0.351026288423189
0.398034952195509
0.376077622155516
0.385821172691593
0.397489015205475
0.402781150749411
0.434727422937139
0.413392248552882
0.425053301641487
0.418375836757891
0.428804220680067
0.446035850174418
0.429896854530609
0.457383435654774
0.460380788219489
0.466305572459767
0.460647250201321
0.467876881982864
0.467580144680013
0.467463037593116
0.493541350099245
0.474136037784912
0.544205114270123
0.509902982161911
0.52621709088916
0.494134082226426
0.50203279194471
0.499885860290067
0.50107093518792
0.513463597204195
0.499274216747434
0.514849759686796
0.531834530884833
0.519128098089451
0.521647225784363
0.522565889960013
0.522256044250708
0.52547650054679
0.518715155799062
0.533901776163104
0.529311128427231
0.547233520615053
0.524614654683826
0.544048667131548
0.585302526607849
0.551294474502167
0.550084961986605
0.546650963917317
0.568585592910808
0.553623546320729
0.55774614424185
0.572953298600138
0.574855816104985
0.575346043193259
0.570955133565343
0.576718823590694
0.573699467940482
0.58940710901832
0.596167893253362
0.593142160275176
0.602615916091828
0.570013713155091
0.630466667653025
0.604626208901867
0.621319388565063
0.604431955356822
0.61850472297029
0.605453669031349
0.616364107619986
0.611731445743866
0.609820968613111
0.611992754190864
0.615756122540916
0.619253272646581
0.614114273083277
0.618378386840871
0.614532218565654
0.611404683321426
0.624438171295041
0.623374270313102
0.617172235236892
0.617215969196988
0.614418941715463
0.604424229171706
0.638562960197772
0.621704144214667
0.621713842754963
0.60470215583421
0.611143353935282
0.6337186880093
0.618653077294219
0.609447679722014
0.622963939675512
0.613741363451984
0.625968124931449
0.603367421754374
0.622975880041871
0.631143697117116
0.625225472965695
0.621114731099963
0.626463133422845
0.628442520365917
0.627905087408943
0.625806104322294
0.63800627173993
0.627974936599393
0.641014662011662
0.641523196350551
0.640924821763985
0.645931692434535
0.639753387693398
0.658024857980054
0.650532612879329
0.641752284253968
0.643205222516568
0.634949460494587
0.638609656042737
0.635118947992487
0.633254653555116
0.620488156114656
0.626173022323431
0.607015271331284
0.614675429743022
0.615024868737799
0.607224196261507
0.609057065688309
0.590401317702232
0.595227520094648
0.58648211701169
0.581433917214056
0.576046010943291
0.575352225484541
0.569761847197853
0.578017416769036
0.568553816727462
0.563167136195004
0.564561323290578
0.559221472331861
0.565900988397315
0.557528404995896
0.5639927365555
0.560615448840835
0.55443966558881
0.559977545272602
0.561181077234437
0.555142821180132
0.55331896087011
0.561154460381863
0.559318552033913
0.564163803339321
0.561870133812197
0.557838668284787
0.551979906900641
0.55264159219438
0.546929020231378
0.552264272771396
0.549697807722117
0.555621281062066
0.547236331013364
0.552413108237433
0.550225140927674
0.55483109191685
0.547945228595404
0.550153556611219
0.548860712463279
0.551415312587722
0.550729742794445
0.546368685346704
0.548469808574744
0.550078813419629
0.547647182991199
0.548552315108713
0.549629652938016
0.549391178698986
0.554072077662803
0.553205245078883
0.548366716634511
0.55062334227507
0.546270742607009
0.552490084133445
0.54541454934264
0.546515185257335
0.54706690391206
0.547972552028011
0.544429885449045
0.544812169725068
0.538756268885856
0.540508314340593
0.538837859996307
0.528448423968497
0.526516048017681
0.526021161619973
0.51801517110959
0.519738974688234
0.51804864216447
0.511487657099
0.507390468688196
0.505159153105428
0.502344873062756
0.492354944702293
0.492325628617718
0.489914479794167
0.486506111988981
0.488250546332753
0.487215112040438
0.483190817430587
0.483412821532565
0.482892360288846
0.481483423749112
0.481200973575051
0.48167114499337
0.482101655612491
0.482892924885326
0.482664956811457
0.48200801730594
0.478242509884045
0.483563601998609
0.48495163356037
0.485746199839686
0.486143686256643
0.49140329630044
0.490515150916156
0.49135354242177
0.496536614811001
0.493113109855674
0.495373471393778
0.496370886943024
0.500569996883749
0.502869539779866
0.50502690661236
0.499918684612111
0.501848174708089
0.506177991015203
0.510044732371014
0.50935595217973
0.510323704923932
0.51197894978191
0.5142151471357
0.510007260324241
0.510950465620516
0.512625136811632
0.510688195860985
0.511591590712827
0.50575801206726
0.502139487054349
0.505989769021512
0.50119576142111
0.500199177851979
0.497205671690589
0.498627587069072
0.49813470838902
0.494961206476159
0.4946241799925
0.492768660939645
0.48902736023168
0.488538942196312
0.487906210121184
0.486588229028795
0.48638465712546
0.481309168330152
0.478330478713931
0.482376318829658
0.474761956249164
0.474526391249849
0.472749637912663
0.471362219760085
0.469536313274173
0.469359776760457
0.467260594871825
0.467731505203975
0.466331647509826
0.465775755843497
0.459727831222991
0.45725592517956
0.455472096219526
0.455674290886044
0.450949408165874
0.449481533905019
0.447384590690858
0.444065008390269
0.442420053272297
0.435388873480298
0.434017015422077
0.433976803892602
0.429771459073828
0.423516095841614
0.419775120586096
0.419233144009382
0.417409872149079
0.414047132666879
0.409687308043397
0.410956365129013
0.412386336912782
0.406015407793124
0.405776584757824
0.40394159826891
0.406125331882052
0.404918729903933
0.400881608445619
0.398731009493346
0.40037685250113
0.393161053724389
0.394019751473242
0.389954863835934
0.382306464107995
0.3784705252143
0.376428895434605
0.371957781053493
0.366274228126215
0.36542758730552
0.358682912656112
0.356937334047949
0.35636195931297
0.355748481998479
0.356446440609365
0.361796521939544
0.361285014170564
0.368531134459736
0.376325981816733
0.381245442254607
0.394307954039544
0.403310856617817
0.416231793211886
0.431811884892059
0.44444158327979
0.46075352543708
0.479249136812163
0.495025521855286
0.509020350781775
0.528614388658878
0.547621351529337
0.563979875155583
0.577046256699243
0.59328531091293
0.609821427871214
0.626567825981516
0.639638786783748
0.661162522695162
0.673292958124162
0.683941850680513
0.697898211262293
0.713319665452908
0.724097983273892
0.733702623508008
0.737295782750581
0.753798488674473
0.764371251643207
0.764813481637017
0.775231641124881
0.776588372804321
0.782016400451359
0.783251325610647
0.789419648352523
0.785401730673799
0.78606317470219
0.792878756327086
0.788889221812785
0.7908176964809
0.788695602796567
0.783754480073628
0.794928026840509
0.789301801938944
0.800394254912593
0.79639432938212
0.794637862772945
0.802126157749326
0.801045951920275
0.807657139586916
0.808167487729401
0.829405417793816
0.829514453262752
0.840988318482001
0.843955391848011
0.855038873981343
0.860377429060516
0.862977729610602
0.882512830922444
0.890321132086992
0.907432359853058
0.915010767286721
0.932836663775619
0.943497205726422
0.952164271966887
0.961831907161923
0.971861282552262
0.988368934740843
0.996713286325523
0.992932623143585
1.00164309100092
1.00010681785044
1.00391255696443
0.993353782007948
1.00794235527932
0.989091366077013
0.995329337232156
0.998196503363709
0.973185901073883
0.966834572715068
0.975896914836876
0.979250355666009
0.98183547580876
0.978335302625761
1.00992447622844
1.01711374130918
1.03034547490984
1.04331211999361
1.05123803253767
1.05162173637647
1.08618315028585
1.09670625786617
1.12352095876262
1.13563337763231
1.14626910446713
1.14129260233286
1.18032726853937
1.17885738890805
1.20764460628746
1.22340455139133
1.24606025888382
1.24045831972711
1.29247118922392
1.31129095387521
1.3373274515431
1.32750614061425
1.37196308906271
1.38574685479617
1.40410516728289
1.45934202228754
1.40494970915488
1.51935752114617
1.51467375051851
1.50820874739125
1.53173719956782
1.52696945624309
1.55095075559204
1.58153346842971
1.6073503185047
1.59480841546888
1.60772603289388
1.63712588185021
1.6194570836887
1.55762882353109
1.64595404997122
1.61389655668705
1.6875481782887
1.54177304295367
1.6319158654563
1.64256667364865
1.57640161952494
1.55415984371586
1.62220010498571
1.57462699165819
1.65501757611854
1.56711607525103
1.62804795203962
1.65561693465503
1.62509015880064
1.60041901732659
1.68831642794113
1.65966400021021
1.76631128504127
1.71849859056537
1.71794601808317
1.69623477062134
1.74370321237485
1.73837441957002
1.80895647541926
1.84427658606498
1.8925616682373
1.8239537385329
1.86654203489823
1.78397051903089
1.90661210141969
1.82071128734602
1.921579441181
1.76400185699659
1.95845223658376
1.78831442796264
1.97823633369372
1.97682033885434
1.90256476404445
1.81668235672456
1.80117686831922
1.91992010248736
1.85307700912707
1.92677213814787
2.09953952448065
1.87884889449532
2.09258873544495
1.94963549377542
1.91481808839006
1.90563530364373
2.06318840475444
1.8912414843329
1.93623074115425
1.91429199957567
1.89154067532959
1.80690450475374
1.82899756677013
1.69675309165769
1.72459820001294
1.6402858935622
1.63264069115425
1.53280658636762
1.53051049579165
1.47145682536374
1.42745062406256
1.40009166954912
1.33170095411868
1.32073220535434
1.28565666303917
1.22032228177637
1.27183816325995
1.23304815044579
1.25409815048391
1.22930140304017
1.21665353094764
1.20524566939697
1.18873688824093
1.17872384494376
1.18401166204599
1.15485328590443
1.1228154970901
1.11838003252823
1.14243318742518
1.09571591036236
1.08290279960615
1.05369599510569
1.02569716252872
0.999150585733193
0.980394060850824
0.948293286837788
0.928726111627982
0.908824599385383
0.880341115779511
0.844727987703417
0.817708179663942
0.775565104411983
0.743894731775497
0.715978212449053
0.680640895872051
0.652776312455466
0.630043021959789
0.601772217381736
0.582847831135986
0.557347523901609
0.542752206763926
0.52550567340979
0.504007760226647
0.497529392396378
0.488438846082672
0.473447456797301
0.469391690087279
0.462012072870539
0.449450814504084
0.441190170833623
0.443678379454448
0.439829872684966
0.438205549341861
0.436107675582465
0.438594435711215
0.430914737778592
0.436160404102548
0.434934285916142
0.437649838619626
0.437527249426512
0.441787960448716
0.449741611665074
0.439979648457018
0.448222456692611
0.444980381305081
0.45370540914295
0.448696235686817
0.445290797030727
0.44064702955024
0.439569062379788
0.432729977387909
0.433884159748019
0.425415848466444
0.423629692310032
0.426648148886766
0.422643939528149
0.417292955718217
0.408508027744371
0.42261160772525
0.417036413590767
0.417498572114276
0.422914658866683
0.425641916936221
0.42640190769495
0.427956747986045
0.432599606557618
0.438109659895042
0.438103846028448
0.446720667245424
0.437660100248145
0.44293507194092
0.448691963707083
0.454385868961115
0.454516659507867
0.453723671511501
0.457084731515047
0.454824315241465
0.451349121864722
0.461977799230988
0.455297405172655
0.464289965896043
0.456033827479123
0.460296531127867
0.460851710870719
0.466277381688641
0.468297418871665
0.476245800319118
0.481542109498958
0.487216554646589
0.489573833824681
0.500770563701816
0.506823744331852
0.522106746533333
0.532361348212846
0.545387073075788
0.559234089209637
0.575031854853223
0.587907185773213
0.595434168824561
0.597921714189409
0.616539892999136
0.610162555916526
0.628054101242346
0.614408047276617
0.618510437320217
0.601896567942621
0.599666448959432
0.578029491884022
0.584608190112619
0.561980563595686
0.583788517633172
0.569948326829058
0.568564751306451
0.556659676982159
0.568902455217961
0.557164824146573
0.565981606908455
0.573701939446784
0.581274811927339
0.563900662862614
0.581899814236862
0.554952973043038
0.565061720343474
0.564885482832243
0.563700768606935
0.555535892446344
0.558410398896547
0.529754776175522
0.552525864437484
0.529135101002524
0.532493390343037
0.537822169834108
0.521745868874351
0.520462551264496
0.508524935944513
0.520152418236854
0.5217059678052
0.525068426663277
0.527655825242216
0.508388588164698
0.521477066593612
0.504754178940946
0.512862337694464
0.504707826406381
0.507122893787106
0.520654264880872
0.506611215198231
0.487990967982539
0.510945233148275
0.505194445148343
0.504258047621553
0.502245927397615
0.495102559887617
0.50200741753182
0.497675958427116
0.485218335462953
0.501823024214541
0.496748324074911
0.497538116734317
0.482457122872418
0.511146701889828
0.495161205808851
0.49564660711809
0.486095381252864
0.48748393590314
0.488150978702481
0.496495534870016
0.481200450877314
0.485780812147647
0.470401460818774
0.501717527082105
0.482909397962712
0.490533211322837
0.494741785378818
0.496514493761879
0.506584593800279
0.519449966962111
0.500918782016671
0.511477840654961
0.49894043267269
0.505502762903803
0.507732920640071
0.514938239736726
0.50516587057692
0.512476797817442
0.527297881721536
0.524068225597351
0.51530318017645
0.531479733948663
0.531753965619296
0.542583514603427
0.528372160721975
0.545961761813766
0.533318711404236
0.547963338461797
0.566653008790968
0.557943367685659
0.571240070101909
0.548445525846509
0.588156294597554
0.616499011953887
0.57192464325336
0.601311450398251
0.615070421591408
0.6472456496907
0.634775264587653
0.658334607342854
0.667514981984241
0.694675482721906
0.685213364432401
0.70079849498942
0.681125225725579
0.719302887811978
0.735639972274464
0.768938945244615
0.790618640868652
0.814230899245133
0.795735964544527
0.829974736027692
0.815340289193907
0.824380803163596
0.794713005989629
0.802941098707379
0.794887460417932
0.803346695195679
0.775142175203054
0.802437701362671
0.775066020977633
0.837642686684132
0.786499190714702
0.849483327872375
0.750360819041512
0.823894424750094
0.793259614028205
0.80490259783591
0.777800837963919
0.758694634121358
0.783069500961566
0.802573393243425
0.741792755196641
0.815283277263556
0.737196313540115
0.784272288539942
0.747481904092715
0.769379820505901
0.725405643927275
0.778099186446828
0.737828339653629
0.774227916052197
0.768478651089297
0.775759270236607
0.663606483678472
0.797688727224192
0.770112441586591
0.736606660228561
0.68503459032355
0.720441588947007
0.684429131004221
0.777748025311617
0.767247455843356
0.842531823224003
0.720819401284468
0.797843673967469
0.761923451607436
0.764014146551216
0.727317914297723
0.73876946471876
0.786219042627121
0.781627308043011
0.797905404401108
0.85706967879756
0.682864726102106
0.884552295850982
0.705551375209351
0.806523346667274
0.794909205513423
0.755137860933162
0.736191618047658
0.884852876195172
0.774161045625736
0.891756180030316
0.767627914116106
0.821457344570607
0.710597121576955
0.896013135175022
0.740618858221475
0.862900396567214
0.847319031941154
0.884469823440582
0.858527466944059
0.928767324360101
0.88875857051985
0.930683394116962
0.843843769777143
0.930623612969295
0.913201309883399
1.01360080371438
0.816703518027089
1.04184813440887
0.935867409771425
1.02808941991402
0.863813467427541
1.07058144636157
0.880080680217581
0.922418715260539
1.07978030252214
1.23003272332548
1.23710787416856
1.08502103272973
0.934848791700644
1.137911005252
0.984795120125975
0.966391305992704
0.892579177859754
0.951084775895708
1.02768925636707
1.11655494488618
0.876486497589266
0.955673036665308
0.89843209209654
0.924319065781384
0.71152131658075
5
0.791165508475848
0.974035204918414
0.892009301781307
1.22625924624846
0.965065805004878
0.969756748699612
0.930373140560799
5
0.869328445847992
1.19400413199035
0.726493451506353
0.833953997855766
1.15423035297246
0.848194615036613
1.02207968051068
1.15556027241884
0.782427886825968
5
0.87392664006972
2.27454064203872
0.519700945566446
5
0.682277110135414
1.19475288576995
0.797946989360126
0.936087811083377
0.924949838518502
2.08208644074534
1.20468072516705
5
0.766415883335463
5
0.675028487012551
5
1.02204640787289
1.25372842442186
0.747434454420937
1.35511689195969
1.18861098358951
1.2300823316796
