3596
4000.36533379555
650.420452594757
1
2
2
0.0338400768684024
0.0275584953635971
0.0390575530352853
0.0302831881839958
0.0389610344081523
0.0301562949527063
0.041412941858823
0.0329923116768648
0.0416894699029609
0.0331743918907964
0.0412632555835016
0.0246196459535791
0.0471378133196674
0.0313221415964541
0.0385046596659987
0.0279558239653496
0.040558856364174
0.0299979029142439
0.0423681242128862
0.0277015538461263
0.0350315683119789
0.0253910808383509
0.0305377773402235
0.0283930370815772
0.0302669344104969
0.0257993166778001
0.0433484746892897
0.0328535596092836
0.0415777774407235
0.035443209951013
0.038834739990908
0.0261021643490495
0.0416926890157323
0.0315943800425501
0.0369952956362271
0.0293938024802084
0.0396484762055109
0.0256556008987049
0.0346939116769627
0.022890733055066
0.0433334178834334
0.0267801062013968
0.0422487139225543
0.0272095877193241
0.0395742384729635
0.0302274446495975
0.0392269068113062
0.0275528315571223
0.0380090629308735
0.0277255979682757
0.04333542979176
0.0278393851987776
0.0377690123805881
0.0333060107038045
0.0396727267700764
0.0308642884255921
0.040257902883281
0.0287814869237189
0.0363679104577611
0.0228948030135706
0.0440663492531467
0.036584593840967
0.035919464459796
0.0309083202163049
0.0375509821530887
0.0284983949449208
0.0381955848012533
0.0312212877387736
0.0319422566679708
0.0310442293773118
0.0326157898197812
0.0363384601978775
0.0482886018447261
0.0260596867921318
0.0363236582776221
0.0220983610708192
0.0305663282949695
0.0269597547216772
0.0362153644304163
0.0239611177150928
0.0409983545947472
0.0280815749553327
0.0437705123458878
0.021485605161688
0.0318868160003864
0.0332282709138725
0.0313959166983901
0.013969047423248
0.0429107876789372
0.026104965685212
0.0352829876981599
0.0298746927392325
0.0417704839887299
0.0219903388680459
0.0352541371569579
0.0223065000566419
0.0335342242155482
0.0230364681168642
0.0280907471657521
0.0184266202023292
0.03890479004511
0.0127070156849611
0.0601163532515593
0.013382106264318
0.0551052524985777
0.0357843422883325
0.0149750556610605
0.0424605456045514
0.0343465213114944
0.0285174101907483
0.026097172643245
0.0211750358662258
0.0325875669869303
0.0355159332740546
0.0275633454388561
0.0255336869261445
0.0468198622395228
0.0238290101965235
0.0333534917624107
0.0269915342843504
0.0305503338446791
0.0222319577432311
0.0541002011395994
0.019118876511556
0.0448758107394048
0.0229921672756964
0.0301528950827521
0.0265399826507488
0.0495688429436499
0.0220217055470132
0.0408156937129098
0.0192413923254109
0.0382773454073562
0.00623548056294358
0.0560083178635411
0.0233286539669473
0.0368388944199981
0.00461349795523024
0.0302361425795764
0.0403020096767937
0.0373395725175361
0.0308110731025602
0.0278601209679752
0.016871898979408
0.0568757851930675
0.0271675739074073
0.0277721558271896
0.0286670621179081
0.0351335108335029
0.0139003244253431
0.034226965526943
0.0183278215759191
0.0355020862835201
0.0301176420416033
0.0166279015918891
0.0220595753957911
0.0781967524274045
-0.0233790038859041
0.0783317521562383
0.011308929552007
0.0394516577275965
0.0243079851124756
0.039331909303709
0.0163296646910084
0.0383873988705484
0.0132759685424562
0.0383763649443205
0.0419552029844757
0.0310672100861423
0.0238505869941908
0.0501883416542125
0.0321573959098101
0.00703281711942483
0.0384965867404076
0.041446105946932
0.00716450303136531
0.0533746860509169
0.0194639903397705
0.0295587390843348
0.0152256278877773
0.0553629599945483
0.0125958490079447
0.0401068663174649
0.0201854033750845
0.0366693091402376
0.0215632342949401
0.0439020653727037
0.0173876952271362
0.0377901221635842
0.00809368115183249
0.0434418513729738
0.0267964386893804
0.0564584681603103
0.0124514268486076
0.0487610888830523
-0.0084208063250579
0.0513175676277756
0.0406051650102446
0.0380213309106894
0.0260495369739851
0.0370118144263301
0.0175716345649658
0.0356021263392941
0.0203486403699625
0.0375453384545943
-0.0106492582837238
0.0584638802187281
0.0243266595790725
0.033284477397481
0.0175236841562502
0.0386394949625463
0.000523302093924203
0.0449348225604513
0.039768236358005
0.0284283672810349
0.0318002951937864
0.0207666916595074
0.0345095340086439
0.0445218364932349
0.0218738318258776
0.030567213360353
0.0247553141773445
0.0306251519512301
0.023519250949693
0.0372700464552195
0.0331104019080017
0.0371428095260646
0.0275051548061359
0.0372091466118843
0.0207470735023686
0.0336436864744344
0.0313688932558159
0.0358722360029436
0.027766391830088
0.0265313465847801
0.0197283040506176
0.0462480077441043
0.01859934690611
0.0419342170533128
0.0232879877209226
0.0364873250089874
0.0236767079356709
0.0378273013859264
0.0226463586354536
0.0386489876509885
0.00408885348958764
0.0580735585254992
0.0184611185497792
0.0420930566837583
0.020666543594582
0.0498107729386642
0.03127833979619
0.0343577534578462
0.0268631716884709
0.0299548092931236
0.0273217607805084
0.0272196287965789
0.035314061237708
0.0406136198401689
0.024979657784
0.0350539624412649
0.0275761543248667
0.0242332272922972
0.023565524762594
0.00833807084908609
0.0643128276705671
0.0381325520169255
0.00351770134473892
0.0773735710105707
0.0274550723658572
0.0386651190239001
0.0313202701172297
-0.0147284238735479
0.0547381023737353
0.0546109032135278
0.0299294033267232
0.03642040327706
0.0363433957591264
0.0351286798808689
0.0215557962076539
0.0345974165777831
0.011883466181126
0.0543166861064362
0.0273109296164734
0.0694017748422884
0.00593876694637928
0.0631001753205035
0.0342947101379975
0.0367381023982871
0.0281569805966215
0.038936404535607
0.0264837496504515
0.0352116693116161
0.0328203267610638
0.036219918633255
0.0374713657291224
0.0312978196994715
0.0408773513592064
0.0361265413430727
0.031543272765523
0.0386926647353305
0.0390849232251158
0.0335822173998729
0.0368476313757446
0.0332344488883696
0.0368361853784202
0.0408915606263562
0.0150179803203216
0.0671743870679919
0.0369090615273339
0.0257404666853313
0.0417203484057318
0.0447060047236955
0.0390132880827146
0.0355183033584455
0.0336672234784621
0.0386471400691856
0.0335251112068485
0.0337480934420691
0.0508559245887048
0.0406533283673036
0.0305114746248732
0.0399101815292405
0.0340744611454753
0.0447216017079017
0.0368891497448145
0.0385835117368021
0.0279766523077288
0.0496912056710004
0.0346076626724893
0.041627923904469
0.0482528282314554
0.0255255494205767
0.0512584832355374
0.061672041655866
0.0371306325030236
0.0508629582299048
0.0351168001478026
0.0542248900554377
0.0371063970686208
0.0521660396812709
0.0373141500523085
0.0463259004612969
0.0510756000271151
0.0552825312586177
0.0372317078617976
0.052365120680927
0.0455900636389744
0.0793784793839638
0.0436815036955757
0.0688955358659421
0.0242308410086508
0.0693841441282224
0.059839347134439
0.0527339374575252
0.0633193242811307
0.0524010854809207
0.0619002835202294
0.0579271604537606
0.065471206056931
0.0569637667743996
0.063907920794297
0.0685393539287859
0.0670460787598355
0.0641789146834533
0.0682595635748878
0.0700805391559628
0.0633750213284125
0.0906336208086237
0.0694876635982761
0.0735249146297756
0.0774821542225313
0.0672855091586977
0.0757962234778189
0.0863817075025645
0.0784146314424092
0.0940791275519555
0.0561604777861933
0.115975875444849
0.0768153039474175
0.0986374553135601
0.079080497306193
0.0952907485802328
0.0833798472006598
0.0989685584639464
0.0851906575313266
0.100379545002957
0.0902097005874485
0.112282914088035
0.093632624843212
0.114911368247338
0.087350747068889
0.125242924959504
0.102123059956304
0.115318281127799
0.0966216379402293
0.125468318733705
0.111221380735717
0.142183420221267
0.10673640135932
0.126178297051103
0.114874000222818
0.119706938961234
0.125162528029997
0.128727296427695
0.125288573498299
0.130097013642381
0.139489998225494
0.14500839538148
0.124553317277352
0.151847398635885
0.120377705302035
0.155755332739722
0.139813423998161
0.161151381739085
0.143751188453191
0.160364311822248
0.1381664770831
0.179848320025568
0.161465624347185
0.15926259397137
0.163788040911493
0.153666899887243
0.159930923809481
0.166630548168164
0.163924713945494
0.175034897314158
0.169435977068505
0.176027844973194
0.170026798121144
0.182702558133275
0.177221637365389
0.18717729766238
0.187606604338674
0.201169597862188
0.185407775494874
0.204841877822675
0.172981721464273
0.20614386082477
0.176500888716647
0.210359915307944
0.202767017555686
0.213328434639429
0.212888661922167
0.203985993150897
0.203135167424138
0.215791169096915
0.212504853696608
0.217711569365784
0.218282536828146
0.235942618366034
0.228856237916275
0.230375539433931
0.222917570876852
0.247215487467317
0.224002600574032
0.236957511590626
0.23824580191278
0.261325003289406
0.237730509768351
0.2620163860716
0.240953302202462
0.285857018623442
0.258943341837233
0.262994630832729
0.25460156078198
0.265482022991131
0.277399558606807
0.283446663855701
0.273873508214341
0.28366730203711
0.284093818344159
0.293939743095044
0.279714347482348
0.300766747705865
0.287275130467424
0.298672383011104
0.293713541860688
0.307636511173158
0.280952859075442
0.324970495019214
0.306554196634697
0.335702473975566
0.310762175290329
0.321449362599975
0.310803046944939
0.332767053292661
0.336476624738784
0.354875240869402
0.326723513110226
0.347815333639203
0.333416057949232
0.347952404656716
0.348396669698866
0.360404184808285
0.335157123279626
0.371309131912801
0.35228372178953
0.372506365567738
0.352629700349065
0.392172774743266
0.379301508284135
0.395709641942629
0.363405243857521
0.399068429504961
0.365378661395355
0.405393296963717
0.383630550563247
0.406431320553965
0.394439123281185
0.421971212085474
0.398426359542445
0.424929451446158
0.394092878102321
0.431384116626977
0.401335570768854
0.433646120085835
0.399974259205539
0.425640244404396
0.425132504597739
0.445843105157366
0.428411061941593
0.457574095229116
0.443028142650534
0.460281095200778
0.452281579802823
0.487052431880422
0.476432191220046
0.474659726657794
0.458428785604454
0.500839150374796
0.442525772944406
0.478233155571685
0.446711690122156
0.50475087201099
0.485273110130368
0.52646571999696
0.479050105738319
0.503189200490981
0.497733182478173
0.512195623506386
0.503377733421985
0.527403134986092
0.489123752264315
0.519829978503019
0.513213548766941
0.553345119079206
0.526577590632714
0.56221676403396
0.515502221728057
0.539634311116841
0.527597543955665
0.565053284718541
0.538016107708315
0.569140101260953
0.535687340756135
0.57760662024715
0.548936504198977
0.584599650757589
0.563389088986618
0.55837422835156
0.585670556601811
0.612083247585725
0.564186047262258
0.601073821515618
0.583248126941426
0.60256547307916
0.569976284272619
0.603535870317856
0.588531422494596
0.614966725387808
0.599105794775803
0.602194195316765
0.599467607319175
0.661808153160453
0.604344841103505
0.614395072538189
0.628296200243805
0.6299424747315
0.645624943094715
0.649595018618181
0.624263765785293
0.67506857651153
0.646651012996874
0.685707375919882
0.641108787757857
0.683199812858233
0.631956362451502
0.692533256852166
0.659390941190281
0.712435731566283
0.6496818874901
0.67336030764057
0.665220407168651
0.707453983500451
0.677490198109845
0.689710303939481
0.677356376314416
0.700094484073853
0.674937688934255
0.708618423113917
0.683792762304456
0.708170109590667
0.696004513141924
0.73106604087584
0.687980430454895
0.721014715538749
0.717224187007893
0.743820897404647
0.699427914114897
0.744286241730672
0.72913560372911
0.765640601080404
0.732351348949134
0.776179948354049
0.72143235337701
0.816724263868741
0.742962893001195
0.786621516218602
0.751409078885126
0.780080899943807
0.764373605995673
0.797144356622379
0.721207315176725
0.792818870456515
0.745687470386759
0.820680258293938
0.732995709857111
0.781912802222758
0.769448448956209
0.779004660312375
0.762264722952684
0.805500110505029
0.753915871872489
0.828225392515029
0.805883116533835
0.806689279764481
0.779721942010136
0.842719684852077
0.774301722713164
0.809857224089822
0.780106960896863
0.817077803351785
0.765382167166382
0.807504794172705
0.81492766628367
0.822730840556654
0.805502266841714
0.870004050302003
0.786138977514077
0.839371066593216
0.802734712630544
0.847170642473379
0.793913928797082
0.8954427806506
0.841432284696395
0.870775007640501
0.854347604610028
0.833636331556195
0.824328866001575
0.871944869951724
0.843585551066915
0.889139350483077
0.840582981058523
0.883315900056615
0.828969809932245
0.868998258382747
0.837531626334785
0.891404978309338
0.855157622886321
0.90474518324373
0.864586725609169
0.901439720262499
0.849563435288779
0.886991734657364
0.836745710263428
0.891954985407158
0.8602693880791
0.885342969373862
0.856057680360864
0.939520412810693
0.847448750822575
0.923518210132929
0.827915814814443
0.899547469600396
0.828445492285071
0.902647059878293
0.892867769989035
0.936811684495654
0.892027096470993
0.902283642101876
0.866526442800964
0.89712176289132
0.86590061839764
0.932820962117233
0.851387957184637
0.90814048822267
0.914956246172969
0.929609348257101
0.880378421254322
0.937957754019256
0.880402862808525
0.902451405229768
0.864626347734346
0.893207527115113
0.923400604425173
0.918755138588667
0.882777774899297
0.943572860120547
0.910527542080839
0.92835864868229
0.887112879572259
0.960029017747634
0.914141444535412
0.929021282465628
0.893030263381705
0.922964495279321
0.930139914971627
0.937743313059984
0.879977971859616
0.92156466507603
0.880446623503143
0.935815227904793
0.892467158484022
0.946276498695349
0.898142878498648
0.927968735872641
0.887093623115614
0.945361254520352
0.887894958426114
0.945719471220399
0.894240107964563
0.964921113665808
0.900679969214254
0.93501461726895
0.900308550723338
0.946498738245249
0.894709687749487
0.944836694168143
0.887218989251732
0.904650665029577
0.90198010106779
0.949739869607204
0.918208092646991
0.92400194900394
0.918638859583109
0.953680541936961
0.904435241814844
0.920086285715723
0.907492897608604
0.949284975100863
0.901662017772752
0.915819402769016
0.905294464289258
0.94742689703455
0.939603178228011
0.937941692173039
0.910409253194243
0.932360807013328
0.895244050371034
0.954137870350869
0.88847878581144
0.930251697198662
0.886824647329953
0.931515954224771
0.87763969427967
0.933526726690281
0.923504898323492
0.944136994338197
0.881758829074797
0.944228449256979
0.906350991353247
0.943954240616513
0.898389238006542
0.936323250415632
0.904523841600419
0.93784173740796
0.900898337605296
0.931135496126477
0.873859026149193
0.915816832776913
0.875366000867991
0.941251862246093
0.909700795889241
0.956984233230538
0.885660102283164
0.912200630109239
0.884717586952889
0.922633884766575
0.880075391271381
0.925540995345901
0.869104940387565
0.903435938533732
0.862892353373154
0.89920687450542
0.854503011756221
0.90254628525165
0.887480135442787
0.890267210652775
0.86017020599214
0.926691957504845
0.869125703612605
0.882084833137297
0.856387794111245
0.886388738944922
0.872279758927632
0.90487703715389
0.872579681888375
0.89472262186297
0.872230067220218
0.896427743669787
0.849241805965131
0.893409565094112
0.854150411181454
0.868695033415828
0.849494147656667
0.882120490806841
0.843211325084368
0.885790323025304
0.849465856093664
0.88934595946773
0.825504743995352
0.865801963141293
0.819673232810696
0.856432444163649
0.847077948417139
0.864615788104082
0.834014528592945
0.840232518102391
0.823764959391914
0.851503539094486
0.802616874366156
0.837982028520615
0.825232896088922
0.855752773446158
0.815398905851999
0.828964291511352
0.807346573491276
0.801309816251973
0.802586466785974
0.819246279487356
0.783792767132139
0.813794737194147
0.79527442496971
0.848530568028809
0.800494693909228
0.816321525472016
0.783961083157012
0.796884332265431
0.76586569672119
0.802292127341784
0.769814434697639
0.803356037592632
0.764514351245993
0.788022645321085
0.774835051091992
0.794943672414541
0.764633644312335
0.796126579355998
0.752068602838551
0.763808422284884
0.750495683942083
0.772667152713842
0.746330295291619
0.773691494856055
0.751918307458158
0.754674561343763
0.745820041592785
0.762029173580233
0.740481900532562
0.759028919593281
0.708126379842206
0.723898696373887
0.734059467446019
0.745354417920861
0.707707630336977
0.739188943849737
0.710615966748384
0.743724944118949
0.711473386469985
0.718537682318714
0.719373563678982
0.70935237246028
0.695780339292975
0.714573221485965
0.681643956870315
0.706680721556519
0.69080008492768
0.715467549127826
0.676418045813918
0.685096867906998
0.669410362756492
0.686625095773558
0.658925156998107
0.67643278045657
0.657532582958586
0.673945583649223
0.665330944240947
0.665887202374531
0.654377280658532
0.677979778913971
0.653108686620998
0.662547342653696
0.648298203041295
0.657804872518351
0.647725975543267
0.655375535640473
0.632335078178269
0.638608428104875
0.625012345671179
0.636021021488155
0.606855257411546
0.628121620437302
0.616458186416276
0.62484063524431
0.606969620233112
0.618080789997798
0.596879016352667
0.609029572473617
0.595369776585075
0.59920691101189
0.589279846159352
0.602027085086261
0.594769800045163
0.609273564571938
0.582007851299746
0.588558159015946
0.579280140005505
0.591062624375876
0.568346502101672
0.594650673250072
0.580360939244688
0.585370785445617
0.558248710006844
0.574337582875568
0.564155421868704
0.569792122281461
0.563208116153379
0.559286225403869
0.548740960860478
0.551213414099486
0.539334094316262
0.55984422385489
0.540272221012679
0.547869102442767
0.527329480039067
0.538111585343377
0.526239448371852
0.532797934428021
0.518327802597688
0.537647710018386
0.516452768781542
0.530703615543105
0.522775135915097
0.525936806438448
0.514305287764552
0.529904060941582
0.51358916661089
0.518554625760794
0.492815970121819
0.507418919357927
0.498826897807102
0.505076862569749
0.495301781840807
0.502659991843177
0.487043496201742
0.50084506684727
0.487277136585399
0.492269521799821
0.489034919085225
0.500871527652944
0.476998603376177
0.49160421007415
0.470460070563118
0.474310517960699
0.459982088068359
0.474645198794291
0.464157818452508
0.47296345636007
0.459911046696506
0.476868834999576
0.464340726464411
0.462644637497391
0.4584843773812
0.457719997900014
0.452847709778765
0.460581827504344
0.450870170885444
0.455519071369374
0.444435654506228
0.452318141259996
0.437498608984278
0.442180858579048
0.434445128021094
0.443392506122892
0.435482185056769
0.43195534795349
0.420573392817534
0.430554667222451
0.418498947586569
0.433085967506585
0.419737995149433
0.424789997956861
0.414456474221809
0.431570852924606
0.419107250014569
0.420644430392236
0.412656244461499
0.417583729976571
0.405981305637073
0.409686695744836
0.396729609930787
0.39983757773627
0.404557499654968
0.400859908132589
0.39591360708029
0.40732820762615
0.390260779202609
0.39660488599477
0.389128431632214
0.402304015558123
0.384034037062777
0.393574299783882
0.383491608100077
0.384790506319166
0.379549534795646
0.382103164296339
0.371869479589932
0.382164639846023
0.360836665044491
0.378514798800479
0.367342417954547
0.376906753793754
0.363383457088591
0.374288819165265
0.35808428275606
0.361781364741716
0.359500354206697
0.363493932684164
0.362003196245859
0.363314633764948
0.352264730271204
0.363406014787983
0.350252059282359
0.353580154167711
0.343098850228462
0.350401111702978
0.346278968417697
0.346246050743921
0.341113348809848
0.344809295793053
0.32756701519181
0.343047483022619
0.332153184826441
0.333459340722939
0.331630201907601
0.329990400540301
0.32665786871939
0.332732918793941
0.32496919459348
0.331314343940174
0.318806441175859
0.327977533629461
0.324082037234514
0.323617416582105
0.319857451000917
0.323517478482534
0.315252522949321
0.321813393296027
0.31780911153271
0.321776518508169
0.316235103488133
0.322531527124845
0.317335246921148
0.317714317711268
0.305403250917049
0.317835353795111
0.308929231334351
0.317592547909476
0.307785654542096
0.308655143041134
0.307641304228274
0.317351952752193
0.306171225959528
0.317376201350001
0.30250966085584
0.316885837475622
0.310424598728535
0.317289984190739
0.308558840383183
0.320445051792719
0.311901489051006
0.317490345245782
0.315976477001077
0.323219430831958
0.316023832646231
0.317103248506196
0.30898634564343
0.319112775182677
0.319367794499539
0.325020867740913
0.31963942826696
0.326878722847435
0.321657094863693
0.331576423070729
0.322849171840041
0.32831216817544
0.329054907747917
0.334899641749951
0.331667788385339
0.334734966578041
0.324383656036672
0.339968806600133
0.334828203444465
0.344441577311529
0.338607705427416
0.351963985616669
0.341374660511867
0.348646310033455
0.338330063079838
0.344520809407402
0.344199171021937
0.349813804099415
0.346813705118189
0.351011808577246
0.346451341136171
0.36025218882559
0.351692289880254
0.359133930803025
0.360274133979907
0.371651015979054
0.364998926438415
0.371063699955063
0.373713342871057
0.374897122940558
0.372143555415603
0.384235754132591
0.374039453352519
0.383183629300357
0.379284300564158
0.38571662243291
0.387326981596497
0.393733048832996
0.383271592503527
0.395000997530216
0.391736403386608
0.393440173414593
0.389827646498434
0.403443802036279
0.392247356049486
0.400056909496711
0.387251698956911
0.398141576473686
0.391754451722248
0.399995880135051
0.390292473883304
0.405099167041919
0.397173765856423
0.402186844535051
0.390461309301052
0.395605658835663
0.388422150199721
0.393258571468193
0.390556461014648
0.398152328648269
0.382765721332239
0.398015479872194
0.388216394033428
0.392515172737936
0.390023572667317
0.388286541362128
0.389855118830529
0.395175633714022
0.387186693909062
0.395640208093651
0.385728652592705
0.395703564964959
0.382409218304498
0.396803672887278
0.384434243712314
0.389063221773053
0.388823006763515
0.394786833030127
0.391611358792878
0.395402588325126
0.380311445752027
0.392912524231881
0.387963430736923
0.399007091121059
0.387961279912284
0.395532929629054
0.390144266354821
0.398768363937957
0.383710827139431
0.393093750230569
0.39163795656719
0.39895791979342
0.38476707461172
0.390794296112743
0.388001812319272
0.395953597536282
0.383567264418992
0.39005884981814
0.382920471672042
0.384292473846429
0.382590758365286
0.390167037898333
0.384092777569786
0.387888559974687
0.380710148770115
0.383618345235495
0.37799583786426
0.381186196841542
0.372789845667341
0.378930443964746
0.363710460226828
0.369863309696436
0.356444391557751
0.367340780638517
0.36056027217433
0.362462229921345
0.352762117411207
0.355141307415459
0.351066732229004
0.352333212395383
0.346031884784598
0.356139915435389
0.349267454626298
0.341601388682447
0.339272228962207
0.34304859485738
0.337935580689867
0.333807773854895
0.326721176953011
0.329838492786997
0.322141423266542
0.324819138440433
0.317443835717846
0.325235678801222
0.315555505344057
0.314241849173866
0.312857932914925
0.310923083723501
0.307571872398836
0.311709276106807
0.302498627881396
0.305644615157768
0.298392850073945
0.306773672347136
0.298654493820777
0.300602598891504
0.2941807718825
0.299145710398869
0.291065024013349
0.291823042935568
0.285262616019069
0.289013183474025
0.285646525788275
0.291141295714005
0.281895105086108
0.289255167430931
0.279672025969243
0.288683764058675
0.278113052037951
0.282660778094055
0.277650049101531
0.279350627083762
0.270387312117563
0.278443976017149
0.268545502020608
0.270424620935378
0.266336813167231
0.272578282361637
0.271040534866441
0.269940460037448
0.259760063278179
0.268159189857854
0.262831432374517
0.261788313596142
0.255493584480141
0.262935682294697
0.261877829416761
0.260452049751168
0.254866763643493
0.255221444129294
0.249825637171327
0.254641244404301
0.25553134547428
0.254266719966664
0.246811080220703
0.254250634349004
0.245328802071741
0.25479929331513
0.248475081920821
0.246786676865262
0.246170021997182
0.249275099482696
0.243167200808652
0.246236265376075
0.244367885828028
0.244437513894097
0.237312952355442
0.244061911871471
0.239632578515077
0.241816755717418
0.232428511918021
0.240302124331629
0.235112688818703
0.238287815687748
0.230954574186143
0.237194532590016
0.23157103350294
0.237101072753803
0.228941064998191
0.235236858872793
0.231075539963751
0.232912744168722
0.226324901528412
0.231251879830617
0.225476817361535
0.225778229136901
0.224135070214563
0.231070304715973
0.218596288423523
0.225989591214412
0.223040083645999
0.223678880707696
0.220576226898174
0.225880740275176
0.216691052147221
0.220263990925138
0.21621257027036
0.222480914152132
0.219871949973806
0.220417029179388
0.213403624375447
0.219948311819851
0.21250439462403
0.217433691372779
0.215452231476717
0.21723305988871
0.214059880775806
0.214426372861866
0.209482502356609
0.216688064273822
0.206723935267982
0.21360090637023
0.208977142165624
0.207951360696503
0.209382913509486
0.213582213906256
0.208303284095357
0.21357709636739
0.209835918738797
0.210026690765452
0.20748382793985
0.209015350396032
0.207489284246758
0.208750909257154
0.202904953988488
0.210280112589265
0.206700520981905
0.20786485992737
0.202918801400045
0.210742220539266
0.205903695983165
0.203710515597087
0.204097771404778
0.209527332850678
0.204267007406313
0.204668469659755
0.197488994331978
0.203599166296724
0.199712840069617
0.205900311832652
0.199042705524391
0.201130619584269
0.199393775174012
0.201510018285702
0.196349821979005
0.198734112172331
0.194990754461747
0.200286119538772
0.19554417570826
0.201847371590777
0.193357246503391
0.197437551470771
0.195657092037473
0.198553137213246
0.191112463715577
0.197448572493221
0.193236817603844
0.195522017168206
0.193384388820672
0.1950117000686
0.189129178044992
0.19039908758258
0.187171352125768
0.193353166699755
0.188778712359365
0.189555390715376
0.181084209858471
0.18983308237394
0.186353240105261
0.187746597848843
0.185467762550304
0.189827291626049
0.181771795287634
0.184967165881355
0.179739028883218
0.1846178601798
0.181929656509669
0.183291999773334
0.17841522741319
0.18172598033482
0.177026788714248
0.177856617630683
0.175672820260536
0.181167770817591
0.176705301116801
0.175347900841517
0.175147814111071
0.179305506174662
0.176890253410205
0.174717180540626
0.174058439102962
0.174363032930288
0.169632268234264
0.171572147571754
0.170888648198794
0.17464878092037
0.169203643914783
0.169089616672541
0.167283368918719
0.170417744632212
0.171015707549299
0.170466766858784
0.165730507183634
0.166615032810309
0.160443401135223
0.162005264741775
0.163179931261975
0.165231369029572
0.160280078380744
0.166898837856018
0.15751162754288
0.162154401699628
0.158569734226624
0.160827282208336
0.15691858205764
0.156986819339356
0.154969016207899
0.156885029226923
0.151393305628972
0.156576485704558
0.149758142879276
0.154258000337524
0.149408495435944
0.15265978350599
0.149204546089717
0.149142708824551
0.14644828043802
0.148401617368536
0.146622447121247
0.147348041099368
0.143969696267446
0.145381207236421
0.144781672427769
0.147595818384891
0.143493387728722
0.145671523366376
0.142247316517188
0.141660442240929
0.138175374781552
0.143529771791781
0.14038135414034
0.140045838413276
0.137020293367383
0.137864825829057
0.137441193807313
0.140413346730121
0.133770488737613
0.134749544785826
0.134375759848848
0.13723353858098
0.132442970286662
0.133971022811146
0.130511567746696
0.135004625441224
0.129963000033165
0.133879167431056
0.130213168915956
0.132256868035193
0.129653838450635
0.130121784681914
0.130846027700028
0.128122801140178
0.127438734177313
0.130041439633785
0.128994906166744
0.130853373795808
0.12413814138362
0.127645606040207
0.127338072595413
0.127645787032066
0.124396564899051
0.123305751093402
0.120919166378359
0.123822654726639
0.122375103644271
0.126115649636419
0.122723359142322
0.122362025773052
0.120282230467055
0.120509090464983
0.120448546361672
0.120793475829936
0.122024750000125
0.120438372636016
0.117191278466083
0.120982287850511
0.118654781857131
0.116845256213494
0.115367038259677
0.11515307254916
0.116734270794865
0.116589023447534
0.113125739625506
0.11770430447761
0.116488542751125
0.117361904490873
0.112495457297116
0.117868502989232
0.115025125934379
0.111844449869414
0.113740908251013
0.116388463233626
0.110866553581019
0.114706876146741
0.112293722199869
0.11251582431095
0.112866933695958
0.113632520119526
0.112710578084914
0.112452686542951
0.11026851762981
0.112740024675218
0.108498110052803
0.111783332198866
0.109218045299353
0.111181864558979
0.106549149341817
0.112594447657596
0.112428322694508
0.109779018237501
0.106551333887785
0.10962400292538
0.109705707381733
0.108970946630515
0.106831107239795
0.110589325281582
0.106787740172704
0.109624747739363
0.109710961337811
0.107266224135114
0.105549561853249
0.106332303370384
0.105040646812646
0.107233490053661
0.103039687959063
0.105128041540258
0.10489680307622
0.108220489161096
0.103100838544164
0.103180930481079
0.103757113727185
0.104729083778065
0.102725676814276
0.101785065310682
0.101457024625719
0.103473798657684
0.102502047533008
0.10248776183316
0.10086213367713
0.103512167093154
0.0990482181018581
0.10016906444891
0.0974751263029345
0.102886158277536
0.100643700018399
0.101079023420476
0.0994871687844669
0.0985647473255479
0.100179741798355
0.0986552253378933
0.0963135222052737
0.0995698860364417
0.0977653462004853
0.0966428689951821
0.096502372213802
0.0981989360464862
0.0928573032447142
0.0979738718621168
0.096268837422926
0.0990269052042642
0.0985090105515206
0.0989720500976755
0.0930979444029649
0.0949966793121752
0.0953177465665388
0.095864362715984
0.0936662397670296
0.0938338186878939
0.0919534299687366
0.0924335231711926
0.0941165181969457
0.0939944003322076
0.0953848976620429
0.0940667065379086
0.0936865934026176
0.0933510044947646
0.0929866316727075
0.0956994117648329
0.0920344919252455
0.0912446106608055
0.0906126737847289
0.090468058292527
0.0882558609096877
0.0916362431854895
0.0894318789462457
0.0881331363889726
0.0894277772703273
0.0883345124289369
0.086546952667027
0.0891288913912159
0.0862874355444448
0.0857642659392789
0.0852453209260617
0.0863960690904024
0.0860837238510929
0.0858844945515605
0.0847131215380538
0.0854033011584987
0.0862973391707282
0.0847272481673677
0.0820234681900536
0.0841942227784724
0.0842365940370526
0.0832935477735414
0.084697662110592
0.0808923530207754
0.0815389838653255
0.081384694623262
0.0820795292184737
0.0823608167658853
0.081300824861654
0.0780232631405698
0.0801856037904934
0.0811222189087348
0.0777318728304654
0.0775327067937377
0.0784519025621936
0.0791917087511419
0.0780390223458985
0.0817325366788248
0.0786747895919491
0.0760632213893088
0.0790903176395479
0.0755708497260372
0.0772518035235581
0.0793344681361421
0.0735440881322277
0.0761686804416418
0.0747021447311425
0.0754754371675114
0.0729056297085479
0.0759163087738298
0.0737515749222779
0.0734546427764842
0.07132973414107
0.0733909136648999
0.0737927660825112
0.0744940048454349
0.0739776472210956
0.0741579797495067
0.0721917293016674
0.0732957084344384
0.0723544395155649
0.0720539752935172
0.0711151163206459
0.0710481928198062
0.0693087128765963
0.0709612733669618
0.0705994735099807
0.0678643668478891
0.0683145432616149
0.0699511366940354
0.0693910785067327
0.067546891124449
0.065269001324917
0.0659806902784069
0.0689376852678425
0.0682451158375421
0.067191979051617
0.070396530287657
0.0680282952336215
0.0668173539001136
0.0675285336983453
0.0667959345152826
0.066766719621506
0.0647407933527122
0.0654037118099968
0.0655348686505152
0.064255685638968
0.0641284043249556
0.065946633963481
0.0636093475118204
0.0630437987026475
0.0641555673004755
0.0675910488856135
0.0632085697372227
0.0647360692804392
0.0646473320624148
0.0619350319649795
0.0618460331993172
0.0646316805169531
0.0615194438180658
0.0649526501214922
0.0617976169689055
0.0593553476202157
0.0626776554234907
0.0650044595938613
0.0602368027455621
0.0639470849752129
0.0598515544252916
0.0609253914291262
0.0601564467812883
0.0647580270337606
0.0629354649014109
0.0633124304060369
0.0601487687656867
0.0591675112640236
0.0562190559317372
0.0626117308359726
0.0601541670055187
0.0589877722904686
0.0562298516067802
0.0584751390608631
0.0582056121207235
0.0600386177475535
0.0588472203975073
0.0624384989805146
0.0542259768720675
0.0576761491557068
0.051896108383651
0.0624103454828094
0.0592284121325808
0.058478787096431
0.0547053970639898
0.0602408681677729
0.0596128638502043
0.0634201296052554
0.054292282084524
0.0607592163811409
0.0525467421502757
0.0598141905284319
0.0507027229789954
0.0586664366436813
0.0571271409094992
0.0603744568872721
0.0549563987631564
0.0619109136915748
0.0516878136506496
0.0572930440032455
0.0494610546038842
0.0620848498452292
0.0470256801493539
0.0656939542200838
0.0448323728499615
0.0660083311609287
0.0437915730723719
0.0627858898662755
0.047013149073781
0.065908031822105
0.0419865930690564
0.0684481338965514
0.0374007286583341
0.0743411542633721
0.0418605258464035
0.0764797328423169
0.0357523702103756
0.0732642788652387
0.0328013601418456
0.0742391880288251
0.0384725990544218
0.0787995208343888
0.0348284596106576
0.072096773274399
0.0392708239743333
0.0782190079191737
0.0400384869053059
0.065007770889613
0.0518695809828535
0.063556888963424
0.0559698162904574
0.0495881412904998
0.0671950728040038
0.0442555276595191
0.0705987617487663
0.0384806147557918
0.0783060662356012
0.0378599923907778
0.071966928640014
0.0404232264674957
0.0651244810390155
0.0466119840430653
0.0627808714047215
0.0497803089128203
0.0552712931015617
0.0541616087006874
0.0587013343055382
0.0529707011425481
0.0562778917896808
0.0514487126029262
0.0584472152439267
0.0496168987041583
0.0586425432107834
0.0495981363141435
0.0575518598764064
0.0503266513273962
0.0589270082821054
0.0520783418655073
0.0550518362454908
0.0509562937579249
0.0574922125718064
0.0509769471582258
0.0581394611951356
0.0499715417273787
0.0560709453820306
0.0537113438664478
0.0558570693547669
0.0512457090698253
0.0562996212068687
0.0505957190550427
0.0565574326077782
0.0536233426425431
0.0560463527330825
0.0499853873472942
0.0547818529552669
0.0508120812794788
0.0576318887244393
0.0532701072734361
0.0565940027323558
0.0527088423911738
0.0555854228451357
0.0523244964320665
0.0547819029755347
0.0529616406877218
0.0576019802081099
0.053515748036474
0.0562887425708613
0.0551458646175763
0.0583747630104348
0.0540869079080554
0.0560882301718968
0.0528104059283134
0.0576916534121101
0.0510905887701343
0.0581437580986571
0.0520273131241874
0.0570118106314155
0.0543935307706592
0.0556307122025502
0.0530284362565824
0.0586177024345798
0.0521996328013468
0.0549868544439425
0.0548154063662045
0.0565136813065177
0.0511030179811855
0.0566777057504071
0.0512119248230475
0.0546003761411537
0.0554382614739365
0.0574872400613928
0.0538304539653763
0.0564352275356226
0.0527518377702219
0.0559668350947589
0.0524111892030507
0.0583243844979226
0.0539016446184777
0.0577390984268902
0.053589394188199
0.0565131022522355
0.0538277508025936
0.0560221066666297
0.0540351967522681
0.055857055625793
0.0554009939515406
0.0571337796205147
0.0547431851879267
0.0575743755780343
0.0565050614109758
0.0573380438034903
0.0529418865877194
0.0570827530188648
0.0558632543006647
0.0573202392072104
0.0552592872994063
0.0570112231602756
0.0532037819414787
0.0578306226094944
0.0556750652302682
0.0554909426440009
0.0558459765818399
0.0589159740386988
0.0558408332381843
0.0570922395913809
0.0551203662009175
0.0577525612664525
0.0542992536538236
0.057896273696348
0.0554166985654062
0.0583606185569507
0.0583799946158989
0.0587868527240122
0.0559593795637286
0.0575985476955095
0.0554002005116582
0.060266283425442
0.0561794368557611
0.0607561121918625
0.0579544609746004
0.0567927064635345
0.0581343901193013
0.0587362942912932
0.0570535691341725
0.0580351049825378
0.0576899483394276
0.0593281055330946
0.0561022748746652
0.0592149922118355
0.0565765502070436
0.0607983164840393
0.056726113589547
0.0589069835853958
0.0566026203669954
0.061297305837414
0.0579557837245531
0.0593163342359655
0.0580896962658142
0.0575704802358873
0.057769812725607
0.0594544699413773
0.0589024344641744
0.0615841564219465
0.0570852479355497
0.0592895916285452
0.0575924837599827
0.0605554466138772
0.0585441884913994
0.060093686425407
0.0586657009514746
0.0606887916813912
0.0569132933189407
0.0597190731768255
0.0579690904697051
0.0608825379669129
0.0590115425311673
0.0616202533056813
0.0573538832119937
0.0600745711078571
0.0605332978149671
0.0619270310233864
0.0597461518355643
0.0625936705076662
0.0619914326984924
0.062400977631224
0.0608021728909026
0.061015566734879
0.0609919619641591
0.0624225629123891
0.0603904222719154
0.0604453108954104
0.0594363831144632
0.0632534660874765
0.0608148582183894
0.0620360810619924
0.0604508008681553
0.0611981873752956
0.0588239686680349
0.0620865030590704
0.057836368783246
0.0611502861175672
0.0592130805958313
0.0603868236714021
0.0590856040997794
0.0621115374683353
0.058523732728654
0.0609493134523758
0.0589992533898792
0.0598337343625507
0.0575491101493552
0.0589440672446298
0.0559618230224107
0.057068037042539
0.0585772612640897
0.057787984119969
0.0536889394881697
0.0589436616883734
0.0585101573046738
0.0600209652160091
0.0568790056363159
0.0590457435145734
0.0561900877671218
0.0582135297244275
0.0561997491897485
0.0576185551282635
0.0557080971818031
0.0578375887388848
0.0552038255270953
0.0581484234450817
0.056098616272421
0.0575357155430448
0.0555402682974219
0.0577024289202106
0.0561186849118577
0.0585008278215184
0.0550195202943376
0.0567189169818725
0.0557451799505157
0.0575673714922349
0.0553405430767488
0.0552460666483206
0.0563544947918034
0.0562287891980499
0.055065744596834
0.0570166625309842
0.0534943739776326
0.0565903363406234
0.0567411635297028
0.0567247907770434
0.0532092243340536
0.0555805970220571
0.0552218890374291
0.0571559108973885
0.0561400453618634
0.0550047462058419
0.0541712360629446
0.0547428164487413
0.0530035477589293
0.0572048575475211
0.0533847383519635
0.0562538628818883
0.0561797028642009
0.0569449950983778
0.0526791637483788
0.053595161440311
0.0535401531355084
0.0545414108185228
0.0521561163142902
0.0549678298299255
0.0525736900206315
0.0561970348125423
0.0525723208399859
0.0559224060428392
0.0533510189185209
0.0544933351991501
0.050639884843018
0.0553958312237684
0.0519654122582799
0.0537155504234217
0.0520434283904506
0.0544193259022889
0.0531935219239559
0.0553803489104641
0.0517720128923675
0.0546101193925202
0.0528854979520101
0.05261781251701
0.052633458900947
0.0551174942334473
0.0533174883125539
0.0540875431047542
0.0505248855141594
0.0522662577237756
0.0519942129310895
0.0532771596878895
0.0504630853252008
0.0518965853359439
0.0520939408366999
0.0512315292992949
0.0494025649341041
0.0542200669114978
0.0523401942579581
0.0526517436159406
0.0498480768924562
0.0519562998293295
0.0497282185779501
0.0491750584395757
0.0497350925138071
0.0547669216788677
0.0510756818746293
0.0511474027623212
0.0498731206853887
0.0514611606235779
0.0492181284255103
0.054226345530725
0.0495412487039639
0.0508337568453777
0.0485158428710808
0.0503412868186182
0.0489391856266237
0.0513349682000436
0.0472071167167634
0.0490610418148687
0.0466859543866231
0.050839155335057
0.0473399773297549
0.0486735611489292
0.0488298157148609
0.0489228110308371
0.0484178806139201
0.0476816620367708
0.0453177445697514
0.0484005285048939
0.0442525850008042
0.0493541560289509
0.0462374866459799
0.0495485900715119
0.0448187319022499
0.0473115086404423
0.0464195099657276
0.0486842431527439
0.0453974651320627
0.0469527127641014
0.0446291507093398
0.0471370121660233
0.044173322899282
0.0445496351682538
0.0411012185655801
0.0478660736967179
0.0440428533292578
0.044423786387194
0.0445995247411739
0.0440827862553914
0.0427527327801935
0.045387094213072
0.041811078555546
0.0455948141250065
0.0446797624288053
0.0448279301845298
0.0400735846878977
0.0422935897016614
0.0447085372388461
0.0425962526997643
0.0426957019831881
0.0447928786122371
0.0443712055234757
0.0416871584216468
0.0425842237719017
0.041689187542704
0.0435537591742306
0.0445484095000735
0.0440135725551014
0.0456249934564001
0.0414141173797576
0.040702731170729
0.0445080681059527
0.0424230224484667
0.04104197181266
0.0437199155505716
0.0423731399532151
0.0433307182475055
0.0414196556048528
0.0429574403190565
0.0419050650874492
0.0422085054455744
0.039727396228868
0.0375347312388644
0.0419825349038006
0.0418415764622227
0.0418925526225952
0.042834433949287
0.0422730852133718
0.0413939668223933
0.0402411002755363
0.0406400152186839
0.0402033400643707
0.0417108966596355
0.0407807359954717
0.0431404439419709
0.0417829814624111
0.0406569500095031
0.0407693485833289
0.0374518401995555
0.0388433364883839
0.040403196476279
0.0389000396119322
0.0394767644882215
0.0393945440524
0.0391382658848958
0.0387807096721807
0.037517867375021
0.0401279795273858
0.0380593106215107
0.0380174055660394
0.043774510398822
0.03851936658941
0.0412208947607514
0.0350804338617575
0.041520487288787
0.0368489399457743
0.0403358201106405
0.0366598510024019
0.0418735557138802
0.0378371501381555
0.0403669809282793
0.0378611079802246
0.0396613000642784
0.0379422549313099
0.0398567967617136
0.0361378130694253
0.0402443846896917
0.035999150533403
0.040187862261305
0.0351630495020156
0.0398126317269619
0.0421413132753261
0.0390129132113292
0.0382623205137938
0.0403995801959651
0.0308641489069849
0.0499077081042826
0.0354985224929894
0.0408199295398627
0.0367985479212253
0.0414088044108344
0.0348994244294579
0.0381263455217585
0.0352252946411619
0.0374040815875537
0.0388939086061207
0.0387889383015948
0.0387722213191751
0.0382009500264499
0.0385268472099724
0.0386642066720659
0.0375287358526177
0.0373839189092256
0.0378800600379555
0.0396574418359612
0.0362799922700465
0.0402076296236109
0.0355903278399127
0.040964001319842
0.0362272438990794
0.0397467926921785
0.039748657169999
0.0372032519330402
0.0350645522670445
0.0402844295309895
0.035178612067904
0.0372164686647362
0.0431003703920252
0.0354804537915265
0.0395852707444596
0.0339634950081497
0.0390315366053682
0.0376335999087559
0.0385317446094055
0.035719901392747
0.0390090079347536
0.0375491718813614
0.0374168701504638
0.0380596630957011
0.0388085775044251
0.0376866578798104
0.0364883909149958
0.0357052940171636
0.0370129477772453
0.0386861424428825
0.0356191937589361
0.0387932929369771
0.0327530914655317
0.0432403410957242
0.0392780177569779
0.0410347582348281
0.0371989034605062
0.0408733316802244
0.0379462100424817
0.0406774045097437
0.0364981687955329
0.0365436171043254
0.0363291354636071
0.0369372757198209
0.0388216113073709
0.0375216947431429
0.0390391558347341
0.0376236738450653
0.0379704209911257
0.0378355343640842
0.0387615124159589
0.0357288865013068
0.0385984154242805
0.0346438147004986
0.0419279969857068
0.0330756590555445
0.0419941806013556
0.0345632476638649
0.044965989968628
0.0258587452057263
0.0511211271560027
0.0418877580614997
0.039942590440178
0.0412244624198135
0.0369919511641027
0.0396411539140762
0.0361506348490014
0.0377422656117227
0.0374766341204124
0.0385879716901504
0.035941041511885
0.0405627730730751
0.0386732838350398
0.0417069339570091
0.0350139409652573
0.0395212321461422
0.0461583324015297
0.0393590851605432
0.0441225910871295
0.0341613380322857
0.0403579489835384
0.0509940629707444
0.0342515230414451
0.0425530819767694
0.0362700127582472
0.0422150742536431
0.0373999138013591
0.0431619543422923
0.0386091279196032
0.0419960015289395
0.0389655184828856
0.0433791801584705
0.0371428003531508
0.0390559682530689
0.0422836081196692
0.0373757221303938
0.0412516461986417
0.044768661283666
0.0370454677360945
0.0449956612679267
0.038375080998552
0.0421533241551638
0.0389546839705393
0.0430736635199899
0.0378227422193133
0.0422252289988821
0.0428112122839982
0.039114398847631
0.044656095115098
0.0480095400608153
0.039920717232326
0.0458009112642968
0.0379712102626008
0.0531054360304716
0.0338380957631636
0.047099735813447
0.0483987216950737
0.0431100909362422
0.0534530314643966
0.0406847412759767
0.0501038318828494
0.0395777356367898
0.0489385002117867
0.0365096603268667
0.0557365726383778
0.0365032748198579
0.0527289762574347
0.0355347247628941
0.0509426783669516
0.0438051527442874
0.046906886809718
0.045222203060846
0.0492241205555454
0.0409134770511991
0.0547185922586439
0.043511864584024
0.0381570514788396
0.058264917812537
0.0458710410792604
0.060738210722667
0.0474824966567683
0.0425584132538365
0.0606920175808381
0.0458856205037976
0.0561805214566064
0.0447954759281385
0.0527283068612677
0.0413069477568556
0.0496339170565921
0.0626986500350031
0.0480695352546664
0.0515747389498031
0.051062120955303
0.0454609216531484
0.0604284699164743
0.0511411992648765
0.0546842233705532
0.0496545656262431
0.0602476651727666
0.0378994433797857
0.0818556384444398
0.0467924788019549
0.0632884391456967
0.0582953957162207
0.0571134100695755
0.0600186127075864
0.0582459943297126
0.0547333050616149
0.0583009090826903
0.0640906341422084
0.0630125346914448
0.05123792766447
0.0687358249937435
0.0701034449137842
0.0570854389179335
0.0707173403235208
0.0586339247315994
0.0599693161665343
0.0714638679364677
0.0803629117450666
0.072656881495702
0.0692549646923971
0.0657199014928133
0.0814132088234791
0.0703659386305481
0.0766783858310814
0.0697818106121021
0.0722122986366742
0.0726542250798477
0.0718612202094111
0.0780115242158852
0.0745294673423526
0.0824834088582944
0.0757022246550793
0.0800612716374779
0.0783345004700215
0.0857247708931788
0.0986129005966108
0.076389389798793
0.10107994303051
0.0797587286847408
0.0946497183252977
0.0874690879919547
0.0901266189775205
0.0896164012763309
0.0928010864967158
0.0965702521978627
0.086765357820652
0.105318139035913
0.0981133901254952
0.110187890182744
0.110803471925693
0.102238733835113
0.108669060748555
0.0818552949382091
0.206849558948826
0.107108457053915
0.141711778529326
0.106387877137328
0.135301690257416
0.142281098188174
0.139200362908174
0.141855439632437
0.146803646747926
0.145676133796385
0.161857750357328
0.157592866059017
0.165709169206509
0.169916678675845
0.181415598025359
0.16629968899517
0.19994047194312
0.197700420877369
0.221660240470083
0.204008148109663
0.209967275436519
0.21255440012283
0.231623372129431
0.218204393962684
0.240045972910897
0.227806276727498
0.240892764249885
0.267817083147383
0.255803353698311
0.263326970191234
0.25987976152654
0.286814406659293
0.258524486050529
0.320334459292843
0.283797355621494
0.303057403787792
0.298241767515388
0.310555537439576
0.315675783484234
0.305174047954795
0.33864463026056
0.32806460060499
0.33979806293616
0.342291008273249
0.342540078574645
0.347903661503283
0.357035992205432
0.355806980609114
0.352956549232588
0.358101392877863
0.347295260418588
0.416237874851255
0.375501759869994
0.37400239795935
0.362302418335166
0.363748369295718
0.390999897318669
0.357583518055446
0.406470669885172
0.37473464219425
0.378974296749752
0.37684092040165
0.380649908392586
0.374745298305556
0.372645532070367
0.381057909992659
0.367341475109709
0.391207313612054
0.355483518793079
0.400415695158213
0.40484049434041
0.379532544937132
0.374722633628447
0.373281699781917
0.373476077117102
0.379596980405907
0.36315113055553
0.365622955503778
0.377240725542442
0.35606208956072
0.368826862805987
0.345212563434261
0.37336782003037
0.351798379028631
0.343680512536654
0.339781814238845
0.334249900885855
0.336020831533608
0.316450202698859
0.324741510748538
0.339137116610154
0.313685327067218
0.324431391858574
0.303751489221944
0.310825212288248
0.297492073443877
0.299905485062834
0.295195741542488
0.295943640899755
0.291610280320027
0.300871716583515
0.282352806460032
0.291335214512803
0.281172789945954
0.287135312594056
0.275253903239406
0.285318153277592
0.276815979478056
0.281792576781256
0.275398560599381
0.278321923612763
0.271475241390173
0.276035744951102
0.271585560024559
0.28025597890277
0.275051297331202
0.275096820962996
0.269416807409363
0.273701151663257
0.268467837709983
0.271184240369091
0.268320158482965
0.275544195885812
0.265638387555097
0.266963137605035
0.261553312504219
0.266977376847163
0.263411740868412
0.270834985737112
0.259412580476813
0.265152852233148
0.265251895919268
0.250854363112897
0.296592875067864
0.265338927991665
0.26949196808408
0.262073289303331
0.262231008124895
0.259376894107419
0.251750861752612
0.284174388752168
0.259938247922135
0.264264286205537
0.255283428496035
0.256038628762541
0.260832319376086
0.262231836659577
0.251373078383369
0.265544477677725
0.227477528657165
0.287932645004893
0.234117408976651
0.291103580449063
0.264368498630734
0.264309040226053
0.239814674121148
0.267002160506002
0.266593677166561
0.250838830787686
0.252583419414879
0.243506074674327
0.263668210775907
0.250592638531709
0.25158789642997
0.245969450758984
0.240642208290164
0.250424591554092
0.254921247197945
0.238062051041396
0.254308160644455
0.24573927583922
0.235179278796794
0.241326467904746
0.252719337709573
0.246199741681902
0.222386127905623
0.235326885421762
0.222087126637548
0.223958545577268
0.23533197079162
0.22167144302902
0.231103373631909
0.21711333065584
0.217417226466913
0.21354990189063
0.221377969724375
0.209161556058164
0.210633490735561
0.228277900133698
0.19597900829852
0.217561749028609
0.191443037034718
0.223029603209224
0.207045712635014
0.212127930514133
0.185994097904225
0.21150901273493
0.196768684424648
0.197638188098298
0.198890671721693
0.184997902193679
0.191580666139855
0.1948877245576
0.174673466527844
0.188991659541495
0.178184179014716
0.178674388302607
0.181142885052587
0.184568307759261
0.193424649006631
0.17613144740825
0.169641313902378
0.175022503659749
0.16433638971583
0.173686547939225
0.157175889007869
0.191561206815191
0.160761592409479
0.168741175576729
0.179168581044175
0.169862792890466
0.174373334082528
0.177134070787315
0.170368077927484
0.175437356696646
0.173362414156203
0.197194401526782
0.169749209492011
0.186122146324224
0.181561573947423
0.189383693793446
0.18384773680784
0.188571048304278
0.190083636808462
0.194989971170959
0.197566138905847
0.200541627476142
0.20189490479668
0.213639385930302
0.206856718170738
0.225991221742482
0.224547306381849
0.220463631160951
0.24639768945957
0.227007144643072
0.259962617110311
0.242313542582124
0.253360448205898
0.248483716572055
0.250665393350391
0.262065163410054
0.253856579299925
0.268945566164589
0.280051866345357
0.267920349287934
0.276010146487509
0.273574894849814
0.283221835534005
0.271788359262711
0.302269169125487
0.270179591918596
0.317307310343411
0.301613679103574
0.30458341682598
0.292835932576059
0.297294177881032
0.306627153831526
0.29643682757323
0.30594009383852
0.295852999991244
0.304185806993187
0.318942785633734
0.305136316329881
0.309993712640279
0.312850976165379
0.313882476292739
0.314687766515315
0.314944931109187
0.319602493092432
0.315925393424261
0.327746487011147
0.318715037373398
0.317377234874739
0.361762753446423
0.323374542788614
0.338391289730124
0.331534446427238
0.341639976495514
0.33026352848148
0.336106735021143
0.344022462336264
0.343629044314344
0.349572358038741
0.34707914841187
0.345660941139116
0.346126344047672
0.349374441854082
0.36214978837335
0.349871630005478
0.36749734276635
0.338963648263268
0.38434545546467
0.364311405058459
0.369876908868232
0.366093086747178
0.365225385849549
0.375807729145271
0.364537952505219
0.371292183528101
0.37098647488946
0.375646721498246
0.367788233523665
0.379563567996459
0.374296283003435
0.373147075003276
0.369241138099067
0.371431705567715
0.378986738131781
0.374088898135526
0.369762485721372
0.373029902429537
0.373717335928698
0.36628720457937
0.38356970443317
0.369661817945164
0.374013966499921
0.367415703208706
0.371069791493148
0.374847273043474
0.374275868282837
0.364945603631567
0.369556178231865
0.3700867293509
0.373204962978803
0.363263929850272
0.377713406913947
0.380368276049306
0.374870343782682
0.379427066395345
0.374571850065779
0.379735995522977
0.378257728340426
0.383436673188041
0.385909522133978
0.388751313123755
0.383551578641428
0.390160809399312
0.386223395572129
0.38994300686806
0.387585491091882
0.397793271732109
0.389860895522799
0.384558890777104
0.388724916255995
0.385498871913916
0.388704935229868
0.381572378586799
0.384565349098817
0.372355348112263
0.375901198123261
0.367240329891928
0.367130629679068
0.378191139502748
0.353165010292367
0.36647840018544
0.353252015810392
0.355807247752543
0.349917028139441
0.354160494678623
0.343533886962328
0.342234829550963
0.342638615848629
0.343363867760791
0.337632711173094
0.338856788901455
0.335135027382736
0.337786412148668
0.341242176143499
0.335889072854133
0.334168953659229
0.331088063411511
0.335234870847376
0.334686751311945
0.331721862884879
0.334458403158877
0.333208649153145
0.338701170584664
0.330022869506963
0.335926549243172
0.327473276922336
0.332593900143749
0.329755629579262
0.331961447846798
0.328088992086714
0.330049537798904
0.326210279787707
0.33054682266023
0.329542659702104
0.328401648784332
0.332177231912287
0.33049717423866
0.332061338309674
0.325184165298184
0.326391399748937
0.324344362884162
0.327869809809577
0.327450146728619
0.323776641542299
0.325830860059181
0.32629802525833
0.32573285120892
0.329191614927384
0.328620621758459
0.327789871620406
0.326511228178789
0.326836252883233
0.327740284940189
0.326718756054811
0.326871968327277
0.327179182647768
0.330081061465369
0.324780139321093
0.324147774948304
0.325971724180076
0.326348590592743
0.320622960727681
0.322725489891139
0.319769533866993
0.315841737036367
0.314020975445763
0.313748135896341
0.307453508733154
0.309776065675944
0.30437563520835
0.301836344323277
0.299095024149685
0.298221394611436
0.294632544602
0.294599421252763
0.292954046636299
0.289744906694263
0.286499605923531
0.285130243524499
0.285611056943561
0.285106014258746
0.281794074307453
0.283898021888302
0.283827276107548
0.283186997754285
0.283957399731236
0.281106894865488
0.282585655032247
0.282658005655558
0.283365999500015
0.281905962696143
0.281981797220824
0.283100725442764
0.286646628943558
0.284893987586045
0.289164199265443
0.288761348078869
0.28907061623649
0.290254357307619
0.290460957108214
0.290328509765064
0.293233679877786
0.296995851073084
0.29690218106707
0.297045286549404
0.298737148150824
0.299610087319787
0.298482159346954
0.300949131638533
0.297333859165139
0.299560462186449
0.298574817572758
0.30139138506696
0.301749661420478
0.300210080703929
0.29672085090907
0.299929175523208
0.298857805822347
0.296914788343492
0.297829338913714
0.297627895100271
0.294655638167326
0.296341583559658
0.294613417856289
0.293684005683947
0.290084972170685
0.292028158094879
0.289571807144954
0.288599405718213
0.287657843949771
0.28687473380783
0.282743475613734
0.284905347221732
0.284290830583014
0.281853556376801
0.280895663431334
0.276871414541314
0.281573356693984
0.279856129144697
0.277142416780953
0.277324293968427
0.274426546443232
0.274091384952892
0.273954427687493
0.27291741441266
0.273261227080946
0.26997308162679
0.268507372764885
0.267925111141048
0.267184950110598
0.265746330480374
0.264896320746412
0.263403387422714
0.262172567574715
0.261234154398485
0.257533444104214
0.256777488512817
0.25424867618353
0.255114599103201
0.251335571528986
0.248697331950028
0.246321413613077
0.24595325232376
0.245690042188009
0.243119779902956
0.239286457636365
0.241060370816309
0.23970282440996
0.2369341211542
0.236815055250389
0.237566594385089
0.23817888191927
0.237659702528202
0.235583699742768
0.233682181583549
0.234347741099718
0.230887702472183
0.228759326196741
0.226894858445902
0.223360288628306
0.222976869465212
0.219095062213371
0.217418253427083
0.213311454452661
0.212308009829005
0.210097722721735
0.207751525748925
0.20583639054973
0.2093470533803
0.208989941077455
0.212365304818069
0.213060028326039
0.215890691208335
0.22209357498211
0.225571632872572
0.233277527496215
0.241144887804428
0.25035983217571
0.257492591281784
0.268843724121965
0.27912596299572
0.289098175101124
0.301508927518863
0.309658912183501
0.323343412283907
0.330203773175659
0.341206285497026
0.352241621469879
0.366579959646305
0.375511242169922
0.385441918838565
0.392582035785233
0.403136106628896
0.412149542358779
0.420326098995515
0.427068200054169
0.433994323082085
0.44366866951324
0.448756275012502
0.453570960694775
0.46333616110718
0.466439918363966
0.471960230217413
0.479515673804137
0.478070313722317
0.477164474450735
0.483306795926091
0.482870057957018
0.482224138595528
0.485581375538604
0.483887429459443
0.483890509258708
0.488152366050141
0.484735115900186
0.485275460052227
0.486390395554792
0.48962452151901
0.490305363233766
0.488139021301293
0.491897449489868
0.498097463595361
0.498826783525241
0.502476643009879
0.505371977564278
0.509379779771275
0.510128742525886
0.518639150919015
0.520453407146357
0.531344287104181
0.528314260197396
0.539674221293655
0.546615378871463
0.557267370773116
0.561718489013338
0.573994609857285
0.580634805592669
0.583072086063143
0.594785853690434
0.600076649879353
0.605760487467436
0.60821658603702
0.613862375900732
0.624384178555664
0.620345179002369
0.626922197485492
0.622440908206587
0.621046768961998
0.616960848767205
0.619520747773987
0.619005265924381
0.608514279613498
0.607729367949069
0.608734538174355
0.606599778012055
0.610598862813533
0.611822232686415
0.620964061867699
0.63346007792104
0.63577760882152
0.639077254721688
0.654644473604886
0.661560942325244
0.665863969823785
0.682511315699804
0.699895832091687
0.702006101211222
0.714921422987104
0.725282373717958
0.732091141666427
0.741918988329738
0.755114159343213
0.769945104512307
0.777714253655392
0.786178439379338
0.792381400870127
0.816390663103241
0.825055195117242
0.834694045772527
0.853246372501398
0.862752825220736
0.888148975935264
0.903120528868723
0.917262932190356
0.939518404285971
0.945824203857348
0.9560708093607
0.953993478942745
0.983883211295629
0.993455946214577
0.995991930830909
1.00210447028503
1.02066822822133
1.02704750068529
1.02681063914263
1.03136927206072
1.03459454057536
1.04013448473888
1.03754198648812
1.03090746126382
1.021982904759
1.01724881863312
1.01688930990313
0.996539124968167
1.00144408888838
1.00660021900702
1.02688836448979
1.01178470336271
1.00001922885797
1.01368578718681
1.01264241103099
1.02749368285655
1.03391933293207
1.04905954463129
1.04571478745689
1.05681341016682
1.08064154274892
1.08145102747189
1.11358520535843
1.08719455366248
1.11172232073568
1.12264577134512
1.13790025723106
1.14553993625996
1.13993850628519
1.14927706210349
1.16759142122801
1.18357169814363
1.17558760356422
1.16621014027797
1.19145941021267
1.1840475538909
1.1911983697656
1.20863099254268
1.20540801567965
1.20170443060381
1.21564257034398
1.2106795688182
1.19517818621126
1.21788067724123
1.20034017997716
1.22098000324657
1.2551352821697
1.23427961138513
1.24459259409003
1.23105794822254
1.20947782690069
1.20429663483139
1.21403597739907
1.20452118724312
1.18593961056796
1.19196911299809
1.15598472493967
1.15540281113597
1.09617679661455
1.09489639633588
1.05985232656924
1.02761193048251
0.98119717604661
0.933296894399299
0.901936704190369
0.863441629466062
0.848087421013207
0.801570709143695
0.786866512074415
0.765834004881369
0.746513391828093
0.733145022568514
0.721544642297148
0.726020959826846
0.720291717994394
0.712738831821743
0.712564307488939
0.70317826752037
0.69404647404192
0.689205356232622
0.674333163541603
0.671965371046406
0.667479299781224
0.656684761551225
0.64128742729656
0.624275671598469
0.620004346824385
0.606899112180043
0.589118884520543
0.575206949093174
0.558763862991211
0.538338824454781
0.529098889148415
0.506269319233118
0.486983173237596
0.470905337059195
0.443609662018189
0.433568400996334
0.409913179155879
0.394841626797588
0.373345220605743
0.358257963569744
0.340861536807927
0.327052163130808
0.317621876525966
0.304093480379223
0.291329622339131
0.285735290104161
0.272751387708524
0.264983058956168
0.257358342344795
0.253464966501693
0.243239479907942
0.241301006404787
0.236140131117195
0.234211288327578
0.233014737180704
0.231970518256911
0.229151193442465
0.226897438798112
0.229208466251771
0.222655922504408
0.22655729651417
0.228995932598508
0.234363071560799
0.230017680062401
0.230334024058707
0.236302605055596
0.234667982435437
0.24100248930553
0.236946992594947
0.235038237168055
0.240432196308047
0.235644021824104
0.231344805894996
0.231533692335412
0.23223750549925
0.229388247158806
0.225540357628362
0.223740740180421
0.223728992214348
0.220521991398597
0.218262866603165
0.219658875472941
0.21444040531047
0.222804212764811
0.21688509238234
0.222802214154889
0.222700520053041
0.224168218202464
0.22314320174316
0.230600527595961
0.228375713103866
0.234999234084835
0.23166262047113
0.232105113984761
0.238180802469041
0.240593216743662
0.243477486388992
0.243026830095779
0.241576059183547
0.239266176545092
0.24423570345744
0.243468268831697
0.251082841628018
0.242471638414056
0.248268093786481
0.246424381059258
0.248979921750948
0.249588695094764
0.244999231572784
0.254509274055295
0.25634146406192
0.257565962806911
0.263255409144142
0.265196245590657
0.268530862503843
0.277241210309325
0.277947007555765
0.290490009033199
0.301330672258682
0.307667323445333
0.318068670962248
0.327750435640583
0.332663568888576
0.339005537933827
0.339512155255108
0.343217256183775
0.34133515544769
0.336564042113773
0.344199506404462
0.338624998240735
0.324218892898052
0.320672920746239
0.315946076039849
0.315407599689551
0.311337744145359
0.299152809040693
0.304459916995018
0.302037743822508
0.309959197300117
0.303740569267774
0.307374392869054
0.302345034971263
0.301876481689318
0.30299283785256
0.304675473297495
0.304226802442119
0.303520637493745
0.293709124170844
0.299031474898525
0.290944941698652
0.290453429421379
0.287461457472974
0.285315998171426
0.279256145971568
0.279799798251641
0.274594171409612
0.268660376969278
0.273793803667249
0.272089568324462
0.274706100262147
0.272974662565203
0.269517936161032
0.26707474675507
0.260664097562658
0.266519189687722
0.268115829063388
0.258270246444774
0.256792672410074
0.255122624080229
0.260975799658434
0.262635945176204
0.258344222363934
0.258432705346274
0.252581417990331
0.253407378873819
0.250012011676155
0.257771228684079
0.247202542204787
0.25257609233141
0.245451994798926
0.246555796622839
0.252108716309358
0.25131905741934
0.241690622189239
0.246197761796853
0.248234684973775
0.24430914950366
0.244174177459841
0.23981593860421
0.242780718045396
0.249863783475652
0.245113521345431
0.243133652149176
0.243139116912874
0.244755008958677
0.240796524819235
0.243005201320609
0.244455299583443
0.241274616232532
0.248659653603619
0.251303592905396
0.249369756910714
0.248820984958331
0.242444644677725
0.257602894940863
0.251604018351546
0.258395715795558
0.250159465992383
0.264820534816046
0.25762862655311
0.259971282307022
0.247223669304862
0.259619075794332
0.263494935428636
0.263908317506134
0.264951435661388
0.282219175755273
0.271877261109217
0.277199345381297
0.292361233489036
0.276239676604757
0.279621215683126
0.295898248122836
0.300522570519266
0.29331436860166
0.307210195740431
0.31904325308156
0.314195555813727
0.322730027259792
0.319793927976545
0.3476834612187
0.342740291287747
0.3590359799316
0.355612999924554
0.383610334149381
0.391075752165146
0.397873898220399
0.407438397202906
0.404512443296654
0.40196834707214
0.428391525477175
0.425261246594253
0.428750670896659
0.418189938422836
0.439522257657725
0.430295228660418
0.437869457210731
0.420924205834913
0.424707470462007
0.412682535565762
0.414079493597745
0.40665746403164
0.415324983777397
0.405904714651748
0.414371304057437
0.407590289455413
0.40374395541563
0.401359140500487
0.420050203642933
0.400906264508661
0.433856678693734
0.402466407582768
0.401496536962642
0.393230353645997
0.402806953382178
0.377270284941982
0.398813984630831
0.386034918188309
0.397036093148385
0.369675849471165
0.391021329897777
0.375782149333751
0.384213958160364
0.369218713155573
0.375082588509613
0.362393668556078
0.390673622305743
0.378802046466411
0.372748974013777
0.399726553690302
0.385821506019052
0.356026059649025
0.395788365788302
0.379509529830685
0.370921591049866
0.38880786711002
0.386478550492767
0.386694697382025
0.373152651375377
0.388399364386015
0.386665642777002
0.36665509773965
0.38934835181175
0.37651178063546
0.429110038094116
0.397406564127802
0.396062680527489
0.379267908408188
0.403602923043235
0.38065312898802
0.391000715832104
0.388066303337943
0.384909785816664
0.400290012212309
0.460634122042623
0.386691885311688
0.389777434390594
0.398727123530181
0.443770722211998
0.41302132940727
0.436325291692876
0.4392985373309
0.460414134041354
0.39536547237403
0.444882639877631
0.444534982572146
0.444217179318024
0.486747226327551
0.46472850346568
0.487711459752868
0.469416087571389
0.453389086800556
0.526813089484587
0.431882286194871
0.480229621865257
0.513190545550335
0.516921596440395
0.521793711513888
0.479211228276689
0.537440722849846
0.54263540002524
0.549925318510029
0.559888229118526
0.551882693652847
0.607960967626337
0.507584693714194
0.551058017529176
0.488079309943994
0.458793119206747
0.481044071004705
0.467637162038119
0.489854878299055
0.547859853277877
0.474076701677426
0.481781063601397
0.471483389885496
0.517778901410032
0.475366676299682
0.471569711802566
0.497208684833927
0.585426101943101
0.433061597510196
0.407771216354797
0.416629893312434
0.605927491540476
0.566969152962629
0.586527303098162
0.350851197522152
0.567982055143559
0.519737758539882
0.369406247254596
0.374832405148394
0.483113871649197
0.561954736905878
0.738383376464531
0.441244336860093
0.468020972637061
0.42753819992894
0.59516265557906
0.507021839526557
0.598409334809088
0.395994165034749
0.61047923962361
0.502701387523393
0.947523219469732
0.322168074198536
0.810925826802878
0.642728091925565
0.567903180662441
0.612041205897011
0.463161328788531
0.399886612394497
0.790273126127057
0.389552169491628
0.311653882900826
0.559451987734891
0.924607670927817
