3596
4000.36533379555
650.420452594757
1
2
2
0.0629411795286773
0.0577287495795676
0.0705539555289537
0.0621403644788301
0.0702214969195508
0.0635364690541163
0.0694193462534688
0.0629714175486303
0.0683948922070657
0.0619913881714011
0.0709855906617615
0.0644864694829438
0.0749899637635102
0.0672242199550257
0.069120805882062
0.0583180380314837
0.0663065056410926
0.0630308109337299
0.0711988772128638
0.060471241528884
0.0654436515796724
0.0550053180844432
0.0627083668449021
0.0568722927623779
0.0619360826478598
0.0616559186650273
0.0707372364653288
0.0646285070432457
0.0734237724094049
0.0641176848563161
0.0628516638003532
0.0618164755673903
0.0666313399042363
0.0605551585614006
0.0696748065362755
0.0654334165387214
0.0724147084677161
0.0570190666104247
0.0634562457217966
0.0564144216747281
0.0712202158341185
0.06328940048265
0.0730759787963509
0.0663016199673665
0.0723789656929994
0.0664959843686749
0.071513689865681
0.0601210429648934
0.0616628880067555
0.0612193151695518
0.0769585091215857
0.0680918954143693
0.0740738312916492
0.0652254344917081
0.0652845061081592
0.0754148251524316
0.0796319824903357
0.0617275692600869
0.0668661163403973
0.0563839826816421
0.0761020564870798
0.0764353148449325
0.0649650807409046
0.0622802102592264
0.0665279122971303
0.0636708080376033
0.0686451516221452
0.0622938071979542
0.0633699474133897
0.0646137080194215
0.0632545078629514
0.0716241505845943
0.0877597109417709
0.0586971893970671
0.0755787885493277
0.0637414827526188
0.0637410526626624
0.0577245420141238
0.0656870426445395
0.0634137298195113
0.0805432496885625
0.0624824007020768
0.068249549070396
0.0485158917596772
0.0617927904130486
0.0742791392773175
0.0601181578931882
0.0416230439257619
0.0841310132144924
0.0702823569724115
0.0630210511202621
0.0618268726164763
0.0704566615677509
0.0500638236901034
0.0667546265301779
0.0546656050255942
0.0666982748772742
0.0603162913753138
0.0639721745122411
0.0576939678823944
0.0762047518158358
0.0451756482208426
0.102302733016202
0.0663067340736556
0.103967373576581
0.0886988349457783
0.0436825982256402
0.099391943691007
0.0827407498990285
0.0653674397707345
0.0600644415902386
0.0513966585511999
0.0671432985992651
0.0634454596544394
0.0546135741810254
0.0587326358689053
0.103587208273275
0.0639001708929762
0.061438457388286
0.0537792095880824
0.0537636202467775
0.0575179162681246
0.107455306914541
0.0544888631843378
0.0836782349832903
0.063081686107731
0.0561632969311087
0.0731054667515853
0.105434555317055
0.058786276435486
0.0684696648666214
0.0484307167972367
0.0639365138122581
0.0426093452733595
0.101076619294266
0.074270098357516
0.0609555013911229
0.0348990159439456
0.068158585956482
0.112182157534578
0.0787388908888536
0.0572326726841774
0.0548169200292655
0.0501709161855095
0.106434023029899
0.0653869392633333
0.0538058808352271
0.0683283931316983
0.0749568465288599
0.0444341701073177
0.0632121972300845
0.0547396824427178
0.079759436578984
0.0647607600301821
0.0382658085112942
0.0627179350049694
0.15148672742116
0.0358497901786121
0.1247275543117
0.06202953317206
0.072133560888707
0.0736249641580787
0.0619626342425874
0.0485700060326512
0.0650519051369261
0.0493429520867781
0.0615359267084993
0.0948689058325213
0.0645014642440789
0.0573482258301899
0.094188929522764
0.071884388638758
0.0455062032227219
0.107129122052786
0.0930656818894716
0.0332161618557616
0.0959453821589995
0.0689126565874193
0.0512824632499293
0.047962339018632
0.0959162422632774
0.0571059639764495
0.0679507233937962
0.0535771302043668
0.0575340173796441
0.0655872140851445
0.0735274948985412
0.048796566426847
0.0672308339110701
0.0336150389248057
0.0680872121960159
0.0953132539947173
0.100330735607695
0.0620199823861637
0.0739838193778479
0.0173089553297664
0.0720831996591583
0.0965202217888885
0.0630563370880291
0.0582122583191235
0.0638856074925439
0.053340318208047
0.0604782383380899
0.0533489513601935
0.0607176302675743
0.0210554076482983
0.0916559624808175
0.0809640257253456
0.0580565089120091
0.0530769837468328
0.059725051205049
0.0421375088773233
0.0952648504231426
0.0989966650918637
0.058172301900123
0.0659048609425198
0.0463886155642605
0.069641706457459
0.0874109892949893
0.0616456089502143
0.056660838431403
0.0582898884422173
0.0607972551117913
0.0565333658135423
0.058024386784277
0.0632204467667431
0.0620868970751078
0.0533860059680174
0.0616780511797103
0.0581693056450221
0.0668290986267463
0.0635568823035496
0.0635470559221009
0.0572402980565783
0.0513448378920639
0.0572417314368653
0.0927074538712097
0.0632788676081879
0.0657236409687473
0.0562033265986785
0.0595321506106241
0.0547396878937902
0.0626480418072429
0.0582358443205776
0.0602302345798243
0.0383693451898371
0.0981872956523116
0.0707781462511232
0.0600467584221623
0.0553041620243141
0.0727557970356977
0.079971578885362
0.061601797962498
0.0667615148270049
0.0594899918883892
0.0529957217355835
0.0496990387984447
0.083109549299331
0.0765477778676764
0.0588628858833304
0.074219503551634
0.0703047296747956
0.055941139167549
0.0591625328185537
0.0342141818830919
0.120737259485085
0.0820155228062967
0.0328866128567202
0.132687910319682
0.0857855310433975
0.0683135646475966
0.0677863516869443
0.0142079791924627
0.131688429311317
0.125443104286763
0.0632830458574181
0.0715691314127575
0.0756094529394927
0.0650002782064689
0.0540162210640327
0.0735766341336642
0.0573203681998875
0.0964874809252557
0.107805911578788
0.125720731301737
0.0510503451413582
0.0885482330976883
0.10822722886677
0.0676525285335412
0.0628714210234285
0.0664620181586915
0.0629498866281055
0.0747803620472603
0.0846526991242468
0.0770306020412977
0.0747641306579366
0.0570813537668259
0.0935153162485101
0.0785168129913345
0.0598910836325591
0.0741549982313647
0.0782907004588943
0.0661916676848218
0.069458882255977
0.0683387470593012
0.0724681236084376
0.0709457840264616
0.0509695342574704
0.118295790997108
0.0880187085440838
0.0591619427789938
0.0937594123663886
0.0776405163977913
0.0635597886771875
0.065770320808578
0.0665765780656622
0.0703777115232792
0.0627309859386174
0.0615662707496583
0.0947594837500035
0.0869399285914641
0.0620220188349246
0.0698109962459159
0.0642752254896927
0.0684593178224278
0.0682692831815073
0.0696942561640848
0.0651583642306496
0.0791445288693429
0.0614786972769364
0.0896650769179587
0.100579937488269
0.0507413970211975
0.0901312199741803
0.127246957574933
0.0787575227950608
0.0807072067684258
0.0740606208646347
0.0866825763207752
0.0756743466254514
0.0812956299873805
0.0740291390637774
0.0789161253497357
0.0925612046346848
0.0923047588447504
0.0661769762371636
0.0807360177196577
0.129167337505124
0.142808878934368
0.101089300360162
0.0931781245635645
0.0703685370067921
0.107086187041651
0.130096944412227
0.112222555294505
0.119760280506725
0.0967467088052306
0.103185184379711
0.0996804161665579
0.103036826999286
0.0956910699283075
0.0936266890019392
0.102554155607784
0.102466920622326
0.106871863091265
0.106467634941044
0.102795559244143
0.0993703276124795
0.151100483239293
0.126430754194884
0.116170419110943
0.118529292317492
0.109281790948919
0.125758687812266
0.154454751780831
0.153099928354831
0.154068147460881
0.131604254161249
0.177523915964782
0.138774344224839
0.134748743104393
0.122806140487562
0.13434655155031
0.141553293771123
0.144247032931941
0.138899980825423
0.140242120437655
0.143292718376678
0.154750848497729
0.150725373712985
0.158467817753598
0.148806853027299
0.178857932595133
0.164811458841724
0.159270097874158
0.157941782705077
0.175614637866939
0.210268769579444
0.21798789083499
0.189906096457711
0.176030170537721
0.179328404622138
0.165453986011749
0.187188570473554
0.183623195744566
0.188920110274402
0.186480442536278
0.21136761310205
0.223785052297896
0.20529436553762
0.217232530411317
0.195300708502695
0.218136929284613
0.218465945042545
0.223728096601031
0.239454103805307
0.224860758846598
0.206309207713627
0.238900638961393
0.259712646764281
0.233882839494941
0.24592016873017
0.236069027582646
0.227767842134812
0.237716285870726
0.245798157552501
0.246084140169846
0.252441554252563
0.251764725684915
0.246630063462504
0.263828706736831
0.261103502012588
0.261261604509618
0.27621627950717
0.278356360115174
0.283803659440946
0.278087543155953
0.265833553048077
0.286302575680088
0.26593044263408
0.31303657333278
0.320403200123482
0.301297441646286
0.326618179832891
0.287152379515958
0.298250465231836
0.313338799387291
0.314992124334197
0.307964114972542
0.309182442384907
0.330043594466012
0.315765419865066
0.314100559413349
0.330884821680017
0.332217007459544
0.333916333064671
0.344817930141048
0.342857782985095
0.35051464430908
0.3523944148578
0.352565002132452
0.352371502215655
0.380920087418622
0.389321518737662
0.393651902693748
0.415161206399652
0.383639062194662
0.38723901607338
0.38434978314654
0.403445377873641
0.399561387373491
0.410449939805407
0.405957059957981
0.414665192638272
0.413249383300436
0.419794854079092
0.427469915468208
0.428012533535573
0.423158697043366
0.43224276219498
0.435680095994229
0.444487052684041
0.442022000342692
0.449097377964825
0.442663578157638
0.477113194252141
0.47112243596206
0.468110626210642
0.480313533427315
0.484045391672297
0.488204900183795
0.494216040454591
0.474550601657257
0.490473654223766
0.483751074625076
0.490981956636418
0.508589800261007
0.504655167181631
0.514154776857464
0.521949220408942
0.506801668576576
0.516572430512747
0.539316588122986
0.541103616238703
0.551746914341168
0.562562685539614
0.553102268128743
0.56608454616468
0.562594867809059
0.550037734382602
0.559043720835182
0.570769544405292
0.569618371197514
0.563820081676596
0.568824862497818
0.604230625368938
0.590466157390392
0.619887956291518
0.590503604752794
0.60885013192142
0.611876753171518
0.619032226289414
0.617112577811237
0.635990012759865
0.640965464103544
0.650406007436407
0.638595534431313
0.638832177913993
0.607655116712214
0.654043826123145
0.6543384297363
0.642367491633548
0.645459567282199
0.673671332654284
0.683063685123795
0.695076147090256
0.669906016476758
0.701326159941058
0.687982097221434
0.692901437324384
0.695185925992399
0.723032685441375
0.696722832135601
0.712445559016663
0.739154354434664
0.732499208033794
0.737408629828168
0.742123166673016
0.722541260055107
0.785462038495091
0.739409532438624
0.762908752920847
0.764205612141063
0.790659777237109
0.761165871194175
0.792239330418616
0.780223710167247
0.766463500255585
0.781413599630175
0.828603900576259
0.798003553959004
0.780275355192628
0.789119061819968
0.843426533808426
0.822086812026005
0.819497866907962
0.799659200067697
0.842854325710252
0.804083609875057
0.808706386081734
0.816211367862015
0.89260273802699
0.823087011103851
0.868079442590302
0.85969985047556
0.894574402800911
0.880078013407906
0.898925959846419
0.895388016410853
0.911097750021338
0.860597996380047
0.933685330670289
0.904436806673359
0.94138069633918
0.887030632304302
0.950106735570637
0.942624437259052
0.936044706016829
0.909235347942728
0.936987194773987
0.973666754374466
0.970933839374604
0.921504896816475
1.0195890168226
0.958393848416365
0.976086170816103
0.959400756702635
1.0189958028944
0.980407170808028
0.990302574575715
0.969070908567378
0.980027614989935
0.935071699763566
0.999231018660685
0.990552744281614
0.989254240823099
1.02166063986357
1.04684620805715
1.03117020332678
1.02390896853236
0.966362564203358
1.12558979654124
1.06063448906533
1.06255277587268
1.04280424702914
1.05049365759586
0.999054780422132
1.11258122842628
1.05770319701218
1.12278285332169
1.05852837351423
1.11616379274978
1.06423288929737
1.16378589109568
1.111234695741
1.07383831252988
1.06160910213084
1.09944050379849
1.01095593808231
1.09446694895556
1.10746383523213
1.19390483019943
1.0885658553058
1.1367744490837
1.11410127168951
1.192348819097
1.18320695713046
1.13939971571322
1.09316195361878
1.11981466948719
1.11446225213326
1.10785423278558
1.05197432797451
1.23739746697179
1.18658823744432
1.16456090972999
1.15892672089572
1.27549317012805
1.14541768751555
1.24266989102434
1.13243424754599
1.24827237814225
1.1608424719653
1.20354973694117
1.17103402715907
1.16302129373632
1.11202931756258
1.22799955940541
1.19461253190531
1.22382935831637
1.23071143182694
1.29952103291177
1.1670337259945
1.23253186929278
1.14792046794195
1.25744978982733
1.26312894101904
1.27399661000893
1.15257973625686
1.25175490955058
1.16273736209569
1.22515028276057
1.22521222120961
1.17933119623224
1.1126420867269
1.20933297379332
1.21268160832901
1.25074843494937
1.22806903240437
1.30088876864611
1.28328282920907
1.31936243196102
1.23966591135951
1.27871581244176
1.29280967815003
1.33188063330009
1.24077473219227
1.45524664038588
1.27790726665321
1.3257856152405
1.27645458013517
1.24245985085843
1.24118370529687
1.34656206019569
1.23570202271383
1.28414590797956
1.20792107139703
1.38454771849768
1.27605736482143
1.27266355791499
1.30721672093673
1.3627123417215
1.23532545477646
1.3365708695667
1.25318258267053
1.3768290367384
1.27430924981165
1.29671265517482
1.22918777944656
1.20783811506479
1.20710590220471
1.37781129837966
1.34992019351027
1.28259095227739
1.34429900559936
1.50582451790601
1.29747220327022
1.25508964707897
1.25046327499473
1.37937777546202
1.21617386031969
1.27979941662139
1.35282214756466
1.42634301792942
1.27800801843431
1.34502203430077
1.32327658457395
1.30094378736136
1.24732015921022
1.34833247681489
1.2622763606833
1.47770817989482
1.31127423075825
1.34204171214231
1.34541429190658
1.35338002019073
1.37703524447513
1.3211020855664
1.32283380617197
1.33211600464219
1.27323963907325
1.29350378308229
1.24170175609327
1.33112541270477
1.27670547057836
1.36187857008891
1.32028055049599
1.35867711923089
1.33419987535871
1.44068186465739
1.36683066144545
1.41991285927954
1.28937265262959
1.32098887944419
1.31415936786472
1.43327374135035
1.29874316150632
1.34542285636525
1.3329434759389
1.38868078825766
1.37316294601998
1.32633608542177
1.30849295184642
1.42333201653928
1.32055901555364
1.45951029023047
1.27687451145285
1.40578317476892
1.33203167196644
1.27014345124503
1.41207257158785
1.38235941961225
1.29554345852715
1.42999304548666
1.26775498738211
1.30513187653677
1.27250628233779
1.32612858165808
1.29976600465559
1.42162243273131
1.32427192168962
1.30810825414402
1.27105209500803
1.43202367357581
1.31645858303785
1.38289090671965
1.26699374371912
1.32247603618891
1.33491029673545
1.41958851690495
1.29968740045536
1.35420915572805
1.28630494438178
1.32070505611069
1.2294614176189
1.30361110857047
1.22691693102096
1.38566496597782
1.29648792786797
1.326621915061
1.27193187402117
1.29973606572525
1.26436467006566
1.33421886302689
1.221061115709
1.33305800861554
1.24493107577641
1.27289839948627
1.26282808783047
1.23514966862599
1.2582201378092
1.35328268047815
1.211715031316
1.24948642904321
1.21497242806547
1.28122956283313
1.23793472907772
1.25909258478848
1.21576085851076
1.31075312886663
1.21330937151242
1.24741809574637
1.19349037190937
1.20850597827009
1.21130920591081
1.26745044805684
1.22012544965899
1.27523724839545
1.18602165340991
1.23572634319387
1.1776003243617
1.22813347680426
1.20363255781792
1.22935133462972
1.20115495034384
1.20875383645643
1.1868038353074
1.23209867026279
1.14294476026314
1.22096113428417
1.16572096213612
1.15906490768286
1.13766773103468
1.21487616281676
1.16796150500729
1.19585106804191
1.14509515491283
1.1782199212716
1.11548809623933
1.17640473229571
1.12933074186529
1.16153739243348
1.11143894032997
1.18506109050844
1.08140530019475
1.16060587632982
1.13169614934853
1.11159270785501
1.08334192641225
1.15171582837996
1.10677781841637
1.18060339300199
1.13211966263318
1.12644430303957
1.08002458578118
1.11016643864421
1.07114627908671
1.12450879633448
1.05809423521788
1.12772791554079
1.06832728762655
1.06054866074258
1.01523507745652
1.08428091470956
1.06732223041884
1.06445012916041
1.03569737981363
1.1018572047403
1.03932732287193
1.0474730218428
1.03312093334878
1.02937002430825
1.00911490558575
1.03967983824568
0.991056539512603
1.03851378263896
0.988238905558296
0.986604117072996
1.015450991986
0.996861385739608
0.997008725645105
0.991567105089317
0.94313275383978
0.996474342523541
0.967970516005099
0.985468030439893
0.943096433087618
0.959035920614226
0.932575558088002
0.949577848872497
0.913932992365112
0.96533619958366
0.932405555824481
0.936974870528073
0.887100916468931
0.946035282470653
0.897738924623015
0.943886333386144
0.913758041480924
0.930560243853499
0.870163322545475
0.89816182204145
0.863850639462525
0.895622196757462
0.859708480032508
0.880497722574972
0.867377565112816
0.876109923275122
0.868509223550051
0.870549604229194
0.863017086015397
0.866550977429544
0.834983725315136
0.847543135307384
0.819616577559849
0.842305486942041
0.833219163005568
0.872398093168662
0.808281842205275
0.84420342571853
0.827217412863093
0.826551009668779
0.782454843617151
0.816942862554458
0.791497207231875
0.808245988643055
0.785375496761711
0.816244758761533
0.758654779554458
0.776504195487378
0.754528194411933
0.783695653521335
0.757301961252615
0.76475149367197
0.754845778556812
0.762022431828238
0.753702228195148
0.744221401727017
0.751102575024027
0.760657780379035
0.747037129550969
0.739739178060519
0.724744671090792
0.725931588670273
0.714066170663169
0.728635210013732
0.705964730613362
0.717305391730765
0.701432259160793
0.706385480275649
0.698454159091951
0.711674835086258
0.677334581726751
0.708038705539688
0.691221981132062
0.704133721054719
0.681613301782876
0.683610468329997
0.686597108681094
0.683109909233358
0.666599501674327
0.684610876012838
0.660718566820115
0.671233088189317
0.652622727916453
0.665577296138074
0.644459763193232
0.64577776103545
0.635698799668567
0.654139697969717
0.645916603679488
0.647443966389641
0.62787039781421
0.636436694574735
0.628458957004649
0.632293002527792
0.611416298663378
0.618284607951602
0.621798758340639
0.615219378139925
0.613598139398291
0.610625223908894
0.593753825560217
0.607287893282972
0.597103688020161
0.599302200403794
0.588078043770686
0.591647603003398
0.57950337108339
0.597394785105678
0.582905651062279
0.586635287030946
0.570224819696257
0.580135599975681
0.558543255936663
0.578999788698981
0.563746718484321
0.568430266692669
0.556228532918032
0.55087919016907
0.541559484756892
0.549993333488248
0.541831490633434
0.552674239624838
0.532727914913983
0.548158470350498
0.532395744340178
0.54274567093535
0.52053953905606
0.521611250453612
0.522056859976334
0.525488264861599
0.511555446957734
0.517969421767294
0.507056535610469
0.51918132455552
0.499291444136694
0.508625448998923
0.496023852249295
0.501099454722706
0.494271779364355
0.499584567890381
0.486777011804258
0.495066857826601
0.484000838822328
0.491397747582274
0.471056520149059
0.479603741809856
0.47352833899252
0.47516489141252
0.463138554104895
0.475608135919966
0.471010367822987
0.463358684874735
0.461568576492709
0.465836553806592
0.45099026054004
0.461635970958753
0.438833072545718
0.452636152582134
0.443453451964367
0.445427130961736
0.443074807044368
0.448888557262097
0.433888076742645
0.440311068669669
0.428894425987496
0.435031610748101
0.421809398116423
0.431779676198284
0.421809940227802
0.430803505001494
0.429878378114873
0.419243463784973
0.420676205905913
0.427617572145165
0.415898148455429
0.417782178629207
0.406263024355771
0.416101152263578
0.408916625340387
0.414262094093464
0.404347205914638
0.409544603829777
0.403025511338541
0.407980480850875
0.409113494335785
0.415835982320571
0.401819794253139
0.4020975985488
0.402302991976648
0.41138985246575
0.405437659615812
0.41302898816599
0.409148057781019
0.408382132191476
0.404665940225393
0.411970846601016
0.405446818830456
0.412289015544322
0.404436488858167
0.421926082272449
0.415040396342434
0.420500532351842
0.414705132988004
0.422589619707034
0.4148483932507
0.422981105553926
0.418296084016781
0.421149576607561
0.422018710255257
0.438699930643353
0.422578881205666
0.440629488750915
0.437772436299944
0.437226777628569
0.430882178977
0.451958303115519
0.438607821105498
0.447610783415183
0.444144873022704
0.447928900312183
0.449649159750682
0.456564088064302
0.444638117479326
0.462830420023967
0.453809413324411
0.472924656570126
0.460666991605187
0.468569452349268
0.460323919928607
0.471074312582128
0.466072504673179
0.474509067973645
0.481060957615
0.477821413233131
0.480512078516213
0.490237575296652
0.468755217300695
0.487464437965964
0.488234260198049
0.495812645472929
0.497373600955859
0.502848632188847
0.499620525585167
0.518133720301054
0.509232365855231
0.527512160574336
0.512713101584787
0.52860730904824
0.523241202705253
0.544087252571608
0.522875412798173
0.527032299199681
0.530542748401764
0.545531515706994
0.538207540647932
0.556256629746571
0.545986536520249
0.550480616213119
0.53883540386547
0.550208071505591
0.538712711456395
0.548284151623023
0.532146952429726
0.543390038169756
0.532669752272485
0.550104808277604
0.538845712851546
0.551001960420235
0.527361699210686
0.545480853540544
0.526514919897855
0.537444094548198
0.52172783449569
0.542049527761056
0.531408730538387
0.539314369212687
0.524627834583123
0.526804774269501
0.528343320341795
0.534344591530443
0.525658984175293
0.526586273101957
0.516283082095299
0.531550335811991
0.520807297656368
0.529206586281815
0.520724813429208
0.53009507343919
0.515257088751364
0.52504144808744
0.520181279305415
0.533784576263544
0.525261968534645
0.531493789401586
0.519592076709827
0.534616625243318
0.523650999697164
0.533638606257916
0.515078935622833
0.526541461631723
0.521978974512668
0.533214597751642
0.525146101899748
0.534780464345663
0.512011638019393
0.522385411044253
0.522849202017412
0.522173117891685
0.51711643733115
0.528767312672325
0.522048997808073
0.523563681761063
0.516612778875601
0.529724721577643
0.509975368824989
0.514817539170674
0.506668845742565
0.510437488830949
0.497026712196421
0.516927619884596
0.498257136268371
0.507166264311554
0.494256641544612
0.491111709849798
0.48180591612677
0.495998585173843
0.483164058808278
0.48337093045524
0.461928898085893
0.468721965286622
0.464904102498297
0.475835351205987
0.455547829727759
0.460786410558211
0.450032105654408
0.45637312854112
0.451124082907098
0.449703362396001
0.438922492369645
0.435651077851339
0.4315804873561
0.42688116884121
0.415298091384904
0.418611344414116
0.408803118263075
0.419326816074509
0.412664957950644
0.419306244848737
0.40136571313959
0.403632816045405
0.40149866352642
0.396283528331044
0.389350006512183
0.390951662218993
0.383298343790006
0.390379512016876
0.386106416253461
0.389741672483419
0.378810670912688
0.377227964649197
0.377565022918761
0.377549715416484
0.368420354388486
0.371798166630526
0.366010081561027
0.364938126514756
0.357185061596722
0.358652160376396
0.353685399334737
0.359170856553118
0.357874594324345
0.355368712436272
0.345837583829432
0.353646272653382
0.346961435890923
0.349740589856408
0.341993954008042
0.344322141709227
0.336752396939261
0.338328353285391
0.336449755604818
0.343551882059619
0.329671117870556
0.337509294171719
0.33153074488592
0.328969345463404
0.327388205279045
0.335017688184775
0.327760030363923
0.329302281245981
0.319690206478532
0.324842416184393
0.316177539375106
0.319757836600442
0.313057792219127
0.31983106611124
0.309444110310644
0.316535888143969
0.314416491482295
0.312007470872635
0.309305602589832
0.31471138352165
0.303466487248448
0.308385453533795
0.301999309495647
0.311573696168106
0.299594530112975
0.305242768162348
0.299412978908139
0.29832324276003
0.29511641399777
0.302331431311575
0.296092197291419
0.298712690090798
0.288722355005459
0.300893546940206
0.287986485574692
0.293484344317658
0.29013067254053
0.29143680168646
0.287666251163347
0.29257263442904
0.285063309239895
0.293203682449071
0.282183296169757
0.287484300756089
0.284317973549209
0.286146079191136
0.27523100391248
0.284340860275083
0.278215829727858
0.284823230452282
0.278311880528166
0.276372680771689
0.272185420805479
0.278979158880854
0.275824242257537
0.280241757516921
0.267572985346668
0.281580224960595
0.268374976131694
0.275927060098093
0.269241134978413
0.270334943663364
0.266741305006609
0.274856288364619
0.266698984045356
0.274515208411835
0.260835128721334
0.271627318807363
0.264206307548079
0.267519407817637
0.264590491328219
0.265796338451321
0.259682773524465
0.264817736323734
0.263426705988819
0.266562934356516
0.257226428847625
0.262490115704082
0.260225866513915
0.261017298761459
0.256185495025163
0.256338593699865
0.256096483819543
0.261749572587537
0.257552583264338
0.256714423003
0.253968604007573
0.258431417737955
0.25258123272868
0.256656453885729
0.256449447443121
0.254687721870825
0.250975819023887
0.255730759609879
0.2488898668085
0.256660250281052
0.24768072161758
0.25217942170325
0.251491350473256
0.252149293008699
0.249106507239541
0.253048183058669
0.248303219212987
0.249332359747496
0.246777306452168
0.250815702281796
0.243040048184873
0.247042437321331
0.24530105879604
0.250959876923853
0.246899353914274
0.246554507409603
0.241778076540071
0.249386209849069
0.241295156200272
0.241901995386648
0.241829153465255
0.241533556570597
0.23670358926119
0.241470269773691
0.236419025819826
0.237801917634334
0.232403588527156
0.236457332388836
0.233959183319799
0.238226671029035
0.230820385132302
0.23568031773774
0.231777397858809
0.235089490451334
0.230898512140313
0.229382562113342
0.226276350141959
0.233754272409992
0.223010253022638
0.227452526222391
0.223841580065272
0.227817940916346
0.221348042284986
0.22776686904562
0.222370653094771
0.225798577811624
0.219361610646168
0.225899188568387
0.215234639848944
0.221323939196137
0.217407414945218
0.224518438477236
0.218254765048425
0.221109992527351
0.215581677627449
0.223124036743731
0.211992142777706
0.215281483653028
0.210870718470276
0.21614567039309
0.209799985180408
0.215618055902527
0.207950926237363
0.213637273900778
0.211201339636354
0.211750555208852
0.208035540921697
0.211067197800775
0.201715811115667
0.210969352283436
0.203759416511663
0.205039711283361
0.201814178826346
0.207557434833047
0.199038095300591
0.202777149981109
0.197213863718808
0.197548110577179
0.196549925469969
0.20066896649399
0.191713997889187
0.198633778776658
0.190900097335638
0.199074132376199
0.1931376492954
0.195617955956715
0.188008490045421
0.191368413606631
0.181754163446239
0.191610544446906
0.185463994918375
0.187248743321344
0.183676414770661
0.185560641473816
0.176929438189916
0.185440525308889
0.183934301970447
0.186095618350742
0.182707431339659
0.180896295909268
0.176284161925102
0.181802277027412
0.17600889690247
0.178194163469548
0.177222003537161
0.17675746561599
0.173419782733613
0.174929852818658
0.172389456588359
0.180370178051084
0.171897585698262
0.173845333848635
0.16982097205061
0.177494423802087
0.166608898045505
0.172851935689784
0.168465246385322
0.170935103270528
0.167113282418601
0.171573694540722
0.16853902770911
0.168120912924568
0.162586065568341
0.165894623900509
0.164465586311046
0.167974977226107
0.165172215356789
0.169603252297677
0.161675882105014
0.165399638264605
0.162506640245255
0.163990659464579
0.158060098850862
0.162910986086107
0.16106418312062
0.16104090339683
0.153409576202951
0.15778652755398
0.155205761019184
0.161765399113955
0.156136731708658
0.159639108344735
0.154273127948393
0.156773287151643
0.152504064087071
0.157419198482717
0.15492242794028
0.155728189503373
0.150618553314372
0.153580023070899
0.150582755176398
0.154926234452539
0.149835161046442
0.155334211929169
0.147846211084694
0.152445153080187
0.147203412693992
0.150621791718835
0.14609564223212
0.153799742766602
0.146114952215077
0.148263976813573
0.145954561544506
0.149971571440549
0.142143998156493
0.149717371760885
0.143144328169893
0.145977203714305
0.146632194010758
0.145661508474276
0.141337422752364
0.146617728697036
0.143488453567692
0.146102847949549
0.143449570090628
0.144732786957853
0.140828106180868
0.141979637264359
0.144220328109995
0.144262197824144
0.139080370698005
0.144233367361185
0.140153651372007
0.146134120529022
0.138600884718713
0.141513307305036
0.139484977245975
0.141766906867577
0.13533508471061
0.13989323539904
0.137563389248415
0.143563223135084
0.137441241511638
0.143847187306516
0.137215973958364
0.140465133881599
0.135542152958013
0.139415248730423
0.135548187651439
0.141104860008871
0.132678559809315
0.138153983109534
0.137159963385896
0.137636415616581
0.131561820687347
0.137960945798512
0.133138297912046
0.1382290007335
0.129576589989819
0.136754606560223
0.131641684661865
0.136494239595702
0.128066757780777
0.133965542681762
0.129279515628192
0.132769168662322
0.127670230055181
0.130561484987312
0.128417042129119
0.132946102950511
0.126182256222537
0.131162583736125
0.124318060681907
0.132852611860287
0.12457273508393
0.130148969959813
0.125436768415582
0.13090893940194
0.124538906374221
0.125608718570727
0.123034678911709
0.126953216609358
0.124776169909355
0.127705862102235
0.122997308525016
0.131195155993173
0.124691777630741
0.128239428842514
0.122335683695411
0.126975738267699
0.122080498613461
0.123866408518935
0.121350514623848
0.124180757087754
0.117558030371469
0.126733200948939
0.121794551101981
0.126859296139574
0.122600376303365
0.125690192454397
0.122303571070832
0.123200426296819
0.121313542184496
0.125538500069629
0.118096719604796
0.120066656161171
0.114706245038447
0.118035613193408
0.120062366546664
0.12019873249483
0.114717775691812
0.120258142787163
0.116040683702994
0.119081913060438
0.113555781753206
0.115731799192074
0.108698127202314
0.114685553518895
0.111761700850152
0.116834550030668
0.112337700681521
0.115733079429814
0.109933583739696
0.113584919351647
0.109703642550103
0.110695144919405
0.106696978238892
0.11145445076649
0.108418287398666
0.11015294525771
0.106408383259418
0.109559214971774
0.104935271673452
0.108811089678608
0.10639686282242
0.108294383677376
0.103066800464822
0.105272629657083
0.102502591602604
0.107525519608791
0.100800288738998
0.106756375160159
0.101769961643785
0.106944276077638
0.100019381141761
0.10433113916838
0.100777209686904
0.105057933198486
0.0985809810407286
0.102300148624064
0.100434777463412
0.106620538406396
0.0986147051507464
0.10249640386605
0.0992040606775862
0.0979910549388223
0.098072890876377
0.10334101591932
0.0953079932865516
0.102247614772379
0.0969053695212078
0.10180956521389
0.0957564976256694
0.10096911284496
0.0974430035192628
0.0991967501034249
0.0959019417130355
0.100826979251717
0.0942497947697971
0.0977130083021973
0.0913503570026879
0.096823758942939
0.0953053501028803
0.0983171894869041
0.0909984641059519
0.095859234705515
0.0914603722834153
0.0958104069429152
0.0893472913549179
0.0919808939530983
0.0890683335108669
0.0922229313241459
0.0882572233249722
0.0950668026368091
0.0875197713028389
0.0920701301992982
0.0881453965715841
0.0930032541200931
0.0874804913817001
0.0906781676456318
0.0853358455517753
0.0899285281733628
0.0857124175138613
0.0880050197475577
0.0832407440744582
0.0916643598610932
0.0850899041474302
0.090476999323869
0.0848015628524226
0.0898327075270677
0.0826525985096658
0.0891208723744217
0.0847040539374061
0.0882473328674756
0.0821867378202037
0.0877900074635017
0.0791009723682354
0.089781071515603
0.082685351081868
0.0852985209186033
0.0810166767780734
0.0895800699662562
0.0814179258764277
0.0886181170197228
0.0817872423072696
0.0852844966179601
0.0811247502637179
0.0885134306022688
0.0814461542473984
0.0878213224649366
0.0790062670265968
0.0876165393589528
0.078635392346953
0.0860543212193605
0.0808283925752184
0.0862484966723938
0.0751318824577898
0.0836670703192464
0.0710304479179412
0.0795204846517212
0.0683013212228027
0.0798597845573752
0.0679194152220265
0.0809488461589758
0.0694462129828565
0.0773748457933602
0.0721614272662017
0.0790278420980077
0.0632344883016158
0.0825209674812414
0.0673633006082278
0.0786202099532436
0.0703201808684322
0.0792901076959682
0.0665876897865635
0.0841180313543233
0.0674509338411781
0.0863116084201452
0.0686979515649086
0.0852332889376842
0.0719029304573109
0.0870324381269679
0.0667239375628902
0.083562236192039
0.0612047405281699
0.0823183488217342
0.0609037225045554
0.0861354270784452
0.0590318911801599
0.0839634869986575
0.0544135651763065
0.0906802135944355
0.0562719809058948
0.0911711377815268
0.0514295690282106
0.0926041327084702
0.051927397043285
0.0903337838224332
0.0485502738229169
0.0943064638790458
0.0497402572413524
0.100778161646574
0.046524925241936
0.0992950116444896
0.0473826339412233
0.0982868678713493
0.0520443310038885
0.100575748494632
0.0519914543008454
0.0959054654696533
0.0595293244636623
0.0923031463692751
0.0652433155346652
0.0810135155167558
0.0763847300184134
0.0725098932716821
0.0872314631023512
0.0640707103997405
0.0934342123577373
0.0555323856617953
0.0973344829345783
0.0582574808556033
0.0946964381523363
0.0633092838467028
0.0841673364969559
0.069765893481398
0.0801621389718801
0.0740671746615188
0.072758840249213
0.0785661174949029
0.0738659802521498
0.0764760809245294
0.0751700392491628
0.0732891528930698
0.0765485406807739
0.0696725181951289
0.0776684283935276
0.0702999202805012
0.0767409849548069
0.0724570545236361
0.075492089649326
0.0730050438067579
0.0725717722660689
0.0735479392257225
0.0760437234367987
0.0737686907843474
0.074403607200533
0.0707302984056983
0.0746102937847912
0.0739972794062647
0.074881996705423
0.0724992607238762
0.0736018592179512
0.0715214816381764
0.071762870101966
0.0726549646721519
0.074285589465741
0.0714166035245019
0.074020873873743
0.0721579407660713
0.0747632102752521
0.0715534118878622
0.0741334334264598
0.0729154007622576
0.0740811489415291
0.0736843414654528
0.0712784532233638
0.0757213510515726
0.0731538863836401
0.0732374930675015
0.0759848017378576
0.0753909133270294
0.0748187225115079
0.0742796676741919
0.0746355048088529
0.07459402391881
0.0747608888124868
0.0734172287994744
0.0753351572653562
0.0740158034825564
0.0771270977252378
0.0745039788895789
0.075688944656746
0.0731857910087256
0.0744831935266767
0.0725535604754329
0.0742953700115819
0.0736478298850276
0.0741644362465352
0.0722153429575594
0.0722940883518686
0.0729328090634479
0.0732202218927916
0.0738879672105938
0.0726787354180995
0.0737430364713618
0.0747502581014099
0.0733167112034601
0.0721187918672274
0.071234621183513
0.0765962535255973
0.0750996018083293
0.0724006603158115
0.0739660320335556
0.0734329993042131
0.0739174083215692
0.073811634924395
0.0743119840778344
0.0740770578621464
0.0754245443045939
0.0732058768775392
0.074859733696123
0.074450407345419
0.0762781302674131
0.0735704166023843
0.0743741230346175
0.0739033944328131
0.0759319671857248
0.077872449471349
0.0775214011882265
0.0753890332735363
0.0750371371389247
0.0751735370362434
0.0764750037170978
0.0762231603063972
0.0757848440205563
0.0760172657023074
0.0773794807642918
0.0758871494794145
0.0771209838833132
0.0738702189712988
0.0768824893307268
0.0771922644484068
0.0777064737586382
0.0749626964148397
0.0785872818834285
0.0766727401372445
0.0781769798146697
0.0783964956741421
0.0763730955116887
0.0776874615083312
0.0789128600429385
0.0790025474989001
0.0797856744313725
0.0803320982350312
0.0789027846933889
0.0774777244800639
0.0782789100940126
0.0771734831159121
0.0761894516380446
0.077479296126622
0.0772658969111034
0.0759701760757547
0.0777337663504938
0.0780871560402418
0.0793690853644093
0.0752921821085152
0.0770958386328423
0.0780231676215388
0.0785416393375595
0.076345044976076
0.0795491057470068
0.0772139510477205
0.0803928643370674
0.0786632028618885
0.0803244099157516
0.0777410866910012
0.0789843755863633
0.0772822415286704
0.0794002833068631
0.0797572544614336
0.0790562045352174
0.0776553388770345
0.079879973919746
0.0778442089081616
0.0806169050471166
0.0811208822526908
0.0786918343533137
0.0801828283723856
0.083041459830309
0.0804823786362821
0.0793545151098281
0.0778071894434941
0.0839670429010771
0.0792875033658821
0.080453185991582
0.081328845574132
0.0819645912218534
0.0797192418821043
0.0815299915450966
0.0808958048912369
0.0832883738407243
0.0801280781248573
0.0820653245706416
0.0798503723185215
0.0823994652817179
0.0834266214201249
0.0831390026796811
0.0812457648872983
0.0830430916951815
0.0815336852782873
0.0812630386087447
0.0802382119277206
0.0813858469235287
0.0798164054672527
0.0802020430245618
0.0810839041557276
0.0816292401384293
0.0798008661110341
0.0816734664193646
0.0814192479134849
0.0799565505470107
0.0778427580020967
0.0806598242358434
0.0796243492225139
0.0789253601714718
0.078127374612497
0.0785918830109637
0.0748375624926729
0.0762181462282536
0.0767053405926662
0.0805533193251145
0.0790519374097129
0.0791464631871114
0.0761846093155163
0.0767786603974821
0.0761684954067879
0.0799336665792634
0.0757120278275237
0.077012033433288
0.0749230174627643
0.077778853155032
0.0769112330058174
0.0765769119052175
0.0769141245968617
0.0763128808060192
0.0772599929068789
0.0778198996491248
0.0777789405277922
0.0770917342328187
0.0740827223252102
0.0776565794815276
0.0765459846045207
0.0764409423610022
0.0762262978110711
0.0759875379077662
0.0739876625154209
0.07670684272805
0.0756523960019915
0.0767073627663703
0.0763064610448064
0.0757997478445175
0.0749071767703898
0.0745666529524216
0.071389318109014
0.0740161083119681
0.0749025040780865
0.0792372355216111
0.074777447154658
0.074984748858013
0.0750805803489543
0.0755939802776507
0.0757575842426218
0.0750433877387491
0.073883812307817
0.0747777187673246
0.0735750032299503
0.076035940241742
0.0728613702860114
0.0739208981019984
0.0727020457410431
0.0727203000244072
0.0725459865081007
0.0733520900537872
0.0740680153818625
0.0718756211141613
0.0730663523443961
0.0745870497595128
0.0704287458097086
0.0718017688872222
0.0729065786530499
0.0729988964929852
0.0737456895008511
0.0739166369814528
0.0717658176432699
0.0737168904300682
0.0750961885482063
0.0744199497995875
0.0711740298019162
0.0744591074771419
0.0732649399234189
0.0736848644352159
0.0734069949751179
0.0738845568445199
0.0693226057982777
0.071200273916256
0.0718610204347775
0.0717560850312598
0.0716595955244874
0.0716189242889909
0.0699444219016927
0.0708545948176385
0.068675165495687
0.06958280454022
0.069991917101117
0.0731755960437469
0.0671637260414129
0.0703455215981946
0.0689676467731114
0.0718102848982707
0.070679107080961
0.0701782567008352
0.0737091306255855
0.0712177949023515
0.0691212730534963
0.0706371600389179
0.0681292586286233
0.0709556712770677
0.0680712600330449
0.0681922389647318
0.067268720417105
0.0689665588648697
0.0677118766313652
0.0675908064332264
0.0672741661072484
0.0683136618195166
0.0649942615655605
0.068988366559026
0.0665864446000973
0.0669605955739914
0.0667917570149624
0.0676342067310265
0.0677667858314191
0.06662285222474
0.0636939292572369
0.0647648508879776
0.0657626689847872
0.0636049693157767
0.0687060831610541
0.0689688872860367
0.0638737802246724
0.0647257483811318
0.0616927253814516
0.065535627851329
0.0622668789639188
0.0630429970471042
0.0622739163000977
0.0633825970325331
0.0624870581033955
0.0636849851124615
0.0612755494892949
0.0611406376806021
0.0603267833944942
0.0626625737100166
0.0606328897930695
0.0624343776585249
0.0591446875985951
0.0609168908417691
0.0588666863987385
0.0610352114072084
0.0611515496193079
0.0616529736128463
0.0597476962513858
0.0607551907477925
0.0619326118360903
0.0704138193755465
0.0611299805669403
0.0606119955300708
0.0593764751886567
0.0625795585959553
0.0582314860685264
0.0617886200481392
0.0569695092119927
0.059911079638403
0.0597415315643116
0.0636182732487079
0.059959353444589
0.059735336018196
0.0568277805167965
0.0593595031677745
0.0584742708651433
0.0607621401973807
0.0579822965923891
0.0604190692606079
0.0586008208689742
0.0595329667899161
0.0580989004122939
0.0596424380040946
0.0580994141651437
0.0576202874991474
0.0545094673075857
0.0628183309902428
0.0610930419745228
0.0604435976379882
0.0579367640826999
0.0590424128591707
0.0565383961663535
0.0582152631441334
0.0553508853691962
0.0571135009474028
0.0556145372978623
0.0582639879504274
0.0566220533422644
0.0570760895806414
0.0558461720247264
0.0572242816749048
0.0530676046887117
0.0560200191611167
0.0544712850070812
0.0569700090075891
0.0534501278594558
0.057696366525912
0.053342156887482
0.0548772404857471
0.0561895728355316
0.0578188781437606
0.0532135856700127
0.0565402120858822
0.0716870964933146
0.0561094727463755
0.0561740786194358
0.0560307035013953
0.0558374497104148
0.0546200299284325
0.0533206190696463
0.0546203983202042
0.0532634219473122
0.0555547096851278
0.0557339884156746
0.0549957674591866
0.053838105884337
0.0564430776986042
0.0549043392841584
0.054694855753087
0.054344637708467
0.0528492381652827
0.0544840080411844
0.0532760246222785
0.0553572987818548
0.0644979284918363
0.0593580288932041
0.0544379591702183
0.0563677199982951
0.0471827714252659
0.0685544264036231
0.0626255192673792
0.0526877577118469
0.0567207902991705
0.0539047864596597
0.0521754852036864
0.0529970094022037
0.0556055176980213
0.0520691053694215
0.0606967578757961
0.05189952268708
0.0574147896522732
0.0506856112980088
0.0544173362720565
0.0520462196733468
0.0561737497897577
0.0506584209928157
0.0530199350718833
0.0533780216501697
0.0553097660902664
0.0519955911483535
0.0532359298538414
0.0522876297234337
0.0527862034045862
0.0537778876659596
0.0624813713728901
0.0532709083605603
0.0525677090174647
0.0517395305494586
0.0519182184205564
0.0538095853745046
0.0718434767681571
0.0515368155425898
0.0551998695938655
0.0504519381881547
0.0565382726819328
0.0517583774372159
0.0551469879203417
0.0513777754688314
0.0570664977391742
0.0516134598356351
0.0542196143675739
0.0524639585901682
0.0552196743434919
0.0513425676745125
0.0534625629668945
0.0521749965001764
0.0515974030586466
0.0545446144645615
0.0524232008120913
0.0546067366609034
0.0514267729143551
0.0646584244739229
0.0750634904221339
0.0583494882401112
0.0621184802040161
0.0561304087524057
0.0552962947191541
0.0537443890356834
0.0554346794001057
0.0496436423539857
0.0558441385447054
0.051337777128138
0.0563166868018844
0.0512644026837384
0.0547885129422901
0.0508154945113157
0.0565409576845437
0.0490161808315994
0.0544594533740988
0.0517936118911759
0.0569236352543593
0.0504292025143352
0.0588533774056944
0.0503869350844969
0.0607731792080124
0.0559784953025854
0.0603131080461535
0.0448473293496676
0.0737298818433364
0.0795174025773066
0.0577803203712486
0.0608346682443971
0.0521751999159233
0.0533198892174996
0.0530534825970982
0.0553698764626646
0.0582889331313116
0.0531457036714785
0.0537945000100884
0.0546965701786838
0.0572334479017185
0.0548621664545135
0.0495010476167988
0.0587676791317882
0.0844722003537864
0.0642601767766059
0.0621931568180856
0.0512631347434699
0.0554145568470187
0.0809981039741073
0.0598187647912602
0.0568529642501395
0.0583201487682335
0.0546059253104259
0.0580309818970998
0.0568975421901067
0.0571875519892761
0.0601994538994619
0.0611253980646931
0.0549438461136656
0.0586074410842477
0.0558646722243802
0.0619049375150382
0.0558681785811066
0.0637562907279442
0.0669979701380973
0.05614018042261
0.0613940639019049
0.0626750865349713
0.0561833062234701
0.0615549249779274
0.0568053253470464
0.0577607940681478
0.062598079668109
0.0724276086617137
0.0599121030420407
0.0714610305534027
0.0699873619654552
0.0591995407130058
0.0605569405669614
0.066955181226524
0.0690136752439861
0.0563038847529939
0.0585160812074835
0.0936177374272208
0.0701953997852156
0.0822795337064625
0.0618396688906171
0.06741248988146
0.0613940784632624
0.0647138682607813
0.0555483313260651
0.0751844475881671
0.0668777595786796
0.0645626106431058
0.0606490585368346
0.0674154687178118
0.0741957299207342
0.0684420340150877
0.0661770045686501
0.0661219842712931
0.0620687340654225
0.0742795744238155
0.0701773277508422
0.0553983903870955
0.0948371943220563
0.0879831153858848
0.0824555798064453
0.0762375059875898
0.0630740590905603
0.101841808199939
0.074528969911566
0.0734180229875613
0.0692563315115127
0.0694225971574619
0.067393860037447
0.0675687797980003
0.100359866585764
0.0829085402967371
0.068422283698276
0.076509413812739
0.0703997563732264
0.0947260616209799
0.0893081656404413
0.0761883040072758
0.0753972984502771
0.0826436183172381
0.069820618836629
0.107219165872085
0.101142576934086
0.0850817672594963
0.107495508614993
0.093787634866932
0.0988823109743038
0.0920953419407596
0.0866394497402171
0.0944988007260152
0.10465912427548
0.0911800716315582
0.0801695320333642
0.0996474947389765
0.120875265989323
0.091904606148864
0.0992311254756856
0.0926309784876173
0.084904995424341
0.120880685128385
0.151482451297921
0.124405365838092
0.102746863453553
0.101481115420568
0.121734576158207
0.109737986616775
0.102834709000023
0.105391858513433
0.102559090213059
0.103942717858443
0.106984387570586
0.12004563488062
0.111251492856623
0.115030887203914
0.114464387176539
0.111066064320419
0.133525677931196
0.156932966407589
0.157332471534738
0.133223571164223
0.144827658096081
0.144558636415541
0.131608833869669
0.130439701910769
0.12724497275019
0.137345711466375
0.137108081874728
0.138365280807023
0.135206178217119
0.155116932970892
0.154708636989285
0.157068211378616
0.174514891615239
0.156092839622933
0.155910641703101
0.14918377176504
0.289979644092114
0.212030789045026
0.189433223410009
0.188500844903275
0.184183694121954
0.260753849645608
0.218763478256173
0.214505030608672
0.222258859946229
0.225411855628658
0.236885456189728
0.253160696979227
0.254941385119077
0.273138367938062
0.273959278779037
0.272830110420588
0.290421792200522
0.361636238866894
0.355639592027036
0.338132890364766
0.320488423733011
0.341050941646818
0.351060067241831
0.345358205519204
0.360969566894422
0.36188712232322
0.363335851357407
0.444320198965586
0.405758464743936
0.403905847567069
0.420024524383812
0.44062469798844
0.427755540810089
0.472355890820357
0.498715070186765
0.470169592110922
0.47570965616986
0.482416554720908
0.494558795310827
0.490350524397943
0.540991233880033
0.540251588964072
0.52846604866744
0.536839048303409
0.53621445179433
0.549618461686032
0.55629916613265
0.568375471000785
0.562426120105829
0.600807376160219
0.622916419920459
0.751517018370794
0.636308594432774
0.583422972802804
0.595895779794723
0.585794635100061
0.62028848306673
0.624524854638449
0.634703954531994
0.633779722270134
0.591216608441416
0.594616426585601
0.594040603332274
0.595557625816004
0.591594990688445
0.600527094133689
0.592444546225581
0.612913962042967
0.601188808018263
0.600962856493752
0.690416065695181
0.602741691238506
0.5876405843612
0.589176775609641
0.578727114764722
0.588553387991799
0.575721360699501
0.581617969326329
0.600296579747362
0.570438244611069
0.556255237049073
0.550854948257332
0.562734893727249
0.577020147196466
0.530780311439137
0.524280680075813
0.513393465895542
0.507199887781057
0.497304804492562
0.499814321954965
0.547999485517757
0.485668984090836
0.477351900185502
0.47575043304153
0.465058379525149
0.459389040005276
0.450104079387476
0.454682775787241
0.446122813783603
0.438433790541412
0.436647265657719
0.438689509971127
0.429633058070994
0.425145013812731
0.423284957643033
0.424541981663961
0.417292878770367
0.415308361566211
0.41079795041875
0.415093616265408
0.409211747270287
0.4097964893024
0.412244584863753
0.413625430435822
0.408900756210824
0.408679371879975
0.406853414040891
0.404802248391876
0.404853050081722
0.405346504662143
0.398442931341597
0.40331856074853
0.401189099885229
0.402011018376578
0.396593900979726
0.401014669737412
0.40009958787328
0.402576223764882
0.398515073679841
0.399605848930026
0.400731329824619
0.402192544342105
0.395194411050512
0.43105158608037
0.433869801288407
0.402358702241221
0.402469726980178
0.4030616196974
0.394685981993885
0.392008280057236
0.425549223423162
0.427768804330769
0.395208095561136
0.395937868732499
0.38671557780838
0.402235639370138
0.403996434631944
0.397580737056626
0.393035468333246
0.387094929560362
0.413378055183063
0.469111352980707
0.424910410675498
0.489764675708131
0.418624150715575
0.391322409241187
0.404828012326798
0.436747866184093
0.404733979261332
0.394490102069863
0.404432839276593
0.419544563159507
0.414578981401803
0.401131080747754
0.39795830863806
0.391833469342735
0.403176083994099
0.427783922292965
0.406491819193901
0.406628689794715
0.430496833542105
0.400826792666268
0.398570976488659
0.456154398720401
0.413006709125487
0.376117565099971
0.374882378650604
0.37044131370093
0.382268624485706
0.410167337704379
0.37900563068254
0.370014925090889
0.356376346349748
0.342133354315639
0.349247017973787
0.366457672292376
0.351427613381743
0.344730159811674
0.359978386112335
0.340058435688658
0.326162981205646
0.350133024207369
0.359700270410493
0.38592035716556
0.332675029764956
0.309736340573171
0.329931227449487
0.354815026936177
0.324483134479022
0.318915431595274
0.30077899245827
0.303017061434284
0.315830617236579
0.292957744527767
0.287171154753475
0.300825670012338
0.300213540932682
0.319727795096064
0.340845924515555
0.323777192955883
0.280841449146418
0.261770855872219
0.259317091531167
0.265773236019289
0.253453057442869
0.252500014804012
0.263812779050833
0.266020289571229
0.251552554526682
0.286578848795802
0.267697083878226
0.254678064555276
0.255515183960055
0.251120349471012
0.261257601375882
0.289389556115645
0.296830857423094
0.275039974183804
0.263165888092615
0.280432350375135
0.270959474287175
0.266603266453897
0.271649577365096
0.273098445804107
0.27699583590372
0.284289851392229
0.293016364422132
0.294213380249041
0.296735450677327
0.299661636847432
0.327646202299945
0.338720687370448
0.323535201750568
0.334074709694055
0.364232326497319
0.371516116202713
0.372707621285305
0.35118853453799
0.359028094075718
0.363146494628474
0.369060977638891
0.369403095113365
0.387712522572786
0.413767978629916
0.393674746890898
0.391195203840384
0.402883289570613
0.39752831576028
0.414256756149194
0.418982814883038
0.436594607188876
0.458216626993307
0.486101404146312
0.44915113718961
0.432962399782712
0.426446802833147
0.43285154009717
0.442796376797911
0.435895759513357
0.433071023133668
0.439255964650734
0.465695105536988
0.449975825938707
0.44345575503148
0.453704614067007
0.449373865085151
0.447183883605815
0.44948954527427
0.461325155082656
0.458493619408032
0.459983485752085
0.457296497793664
0.463327025619401
0.518375413386084
0.503562663036653
0.472886386463038
0.478442367822919
0.481017697371443
0.487317457613873
0.483952835176419
0.496450401036341
0.502605794127565
0.493459708589219
0.492381856689051
0.497173079261599
0.493008816282956
0.516924344914981
0.521857021247271
0.518799836233155
0.512569977181021
0.511030496799967
0.52015197816016
0.563868678987306
0.533974508556936
0.531584542987157
0.534849111620773
0.529354824925227
0.533432980379155
0.52858372352794
0.536174331290023
0.531975901765018
0.533869250211164
0.53620138934025
0.536821098707264
0.531613171739927
0.534710413810963
0.537343315259603
0.548753544106946
0.540245717287208
0.527606494243471
0.538579349916599
0.534685604822504
0.536464995320731
0.557799996455226
0.555455301491022
0.53706660375348
0.536506698286343
0.540067709091131
0.560179484942544
0.55361336316357
0.532511317071665
0.534089280554286
0.530933123945568
0.52893448634793
0.5316676018244
0.538723543056678
0.552206311649723
0.541921676813786
0.534673879639544
0.545521043469371
0.53756582092007
0.545521290601084
0.548145748416201
0.552717740625587
0.550927819739957
0.558737235953311
0.560357517824303
0.556222895902166
0.557701738502386
0.565962326287922
0.562043816424859
0.560189498414638
0.549780642709247
0.551156520038606
0.54484889380633
0.54288093711939
0.547135246418649
0.538048880568414
0.530395396850671
0.528508252464897
0.517807101693961
0.528303967619393
0.534906386955477
0.52097632036441
0.508592211466964
0.512528777073319
0.49663233677097
0.497575076973983
0.491163768667384
0.48813583947694
0.486026835483768
0.488484955299802
0.482217178344393
0.477170992699738
0.476743607655486
0.481224944658742
0.474373705908681
0.474115205029262
0.473186579630985
0.475402524487131
0.470342293333354
0.468257720206755
0.468297460936891
0.469763923703543
0.46751374228618
0.470873062359621
0.473546503309862
0.481947342226783
0.474054664314626
0.474538857033068
0.470680297345448
0.468841948970696
0.465429357180989
0.463430835395539
0.463965891962282
0.463953210397747
0.466466943127947
0.463008591506205
0.462659875739342
0.461778345341689
0.46503960918172
0.463004017263782
0.459284046825288
0.459080979324957
0.461137926733966
0.463384447154956
0.459947341280439
0.459484877349398
0.462241853136703
0.465312966280547
0.461624149628463
0.460860205127539
0.463105225668184
0.464704390222219
0.465759573363286
0.464993839579473
0.463929171860098
0.463178197073333
0.460052134189502
0.463758410552046
0.461371393700458
0.457659217350672
0.462832542416299
0.461260166791503
0.458143024415842
0.455116432125961
0.450509233962104
0.448534271162418
0.445949880290771
0.447125836001027
0.441454512877713
0.437439265861838
0.433963987550966
0.431848794221373
0.428116589757052
0.422956834946495
0.419012820049145
0.420206517994117
0.418078542021444
0.414986479925023
0.407926317792151
0.403560736823946
0.404632867853436
0.405341667141136
0.400000091859683
0.400342601828563
0.402606779448046
0.399347174945901
0.399192836080318
0.401219366233278
0.39629837524701
0.396082883306476
0.396416522024438
0.402796987442734
0.400542324475945
0.399672237378361
0.401931161849103
0.401236917747555
0.40401669865
0.408325537443981
0.409240227940929
0.410510831721739
0.408371509761737
0.415804776627343
0.412252733599223
0.414783813741697
0.418215342275947
0.419865053391478
0.42111888875634
0.422606813706043
0.421399994129047
0.425054628694593
0.4281751005172
0.42958598737297
0.428268158812993
0.426667864768798
0.423197014530374
0.42552787951426
0.427744659578091
0.426195009331776
0.425976170953481
0.425943610004969
0.423162233613999
0.422353842347928
0.421397608888469
0.419495702519547
0.416961452843469
0.417105625321396
0.416413358027755
0.415893077430027
0.415941060725021
0.412222626550152
0.407991336752895
0.409983640207957
0.407927612558037
0.406141071287513
0.405953619076305
0.40334072985795
0.401821916409381
0.402302939179045
0.399416841620675
0.399999721087979
0.398594126891371
0.396283290437517
0.394179136355318
0.396360531669193
0.390757599424675
0.389943363727591
0.390258199354204
0.384556100030531
0.38439706928359
0.384929521681274
0.380952765299383
0.379659828846712
0.379829740411365
0.377106433314035
0.374096423306317
0.372165737342665
0.368347874409536
0.367686966601663
0.363182305288657
0.361976287023342
0.358092888825834
0.354085287016862
0.353020826927529
0.347489410749214
0.345350515204356
0.347980360050976
0.342158009384969
0.339447709752818
0.338975575697227
0.339053257189466
0.337518544212516
0.336778196967869
0.33577114043497
0.33652710913405
0.337060169786556
0.331831150946498
0.331206477123036
0.332608573668717
0.327205816032116
0.325144608925376
0.322193677115906
0.320219164980113
0.315256127270508
0.311018125107594
0.307975409705995
0.303866378258318
0.301095036309165
0.297336332141559
0.295612197479447
0.296749622103391
0.296097691186059
0.296758593589124
0.29999092111449
0.303186723089826
0.306105067264652
0.316924095546768
0.321503276522253
0.330483185092372
0.341689124915094
0.355668862966858
0.368949009211973
0.380794043973627
0.3942133394846
0.411549160132251
0.425770871764822
0.439051467032858
0.455290390216379
0.471078884570582
0.484800950907925
0.502097899193329
0.518683641720508
0.532101043001062
0.545603596636377
0.558628809188897
0.572739337862525
0.589055617062403
0.599549393226997
0.609523191172542
0.623622034953932
0.630869890740525
0.638991258870801
0.649826234928392
0.658083166549143
0.666879321202841
0.67030826193834
0.674892665518159
0.682648704193771
0.686998082261746
0.689315581590086
0.690881640281433
0.690031280893009
0.692531382286629
0.695458031654533
0.691593411874759
0.689989941933879
0.689973338904939
0.693203270119748
0.694094807462551
0.695577635925313
0.701301608309574
0.702062620804687
0.701584809082821
0.707897912438845
0.713642933803925
0.714377194875402
0.718762770616159
0.719697878685471
0.734149117494138
0.7401291382456
0.744080716286028
0.75351511880157
0.76151793551601
0.771842382056046
0.786498922765425
0.793525245942419
0.800393658463718
0.811794436386645
0.831949127468767
0.838311514042782
0.845921896112295
0.863372902681713
0.869230526833579
0.871618727646133
0.876880826199907
0.890702486236183
0.896682582303056
0.894373249946446
0.897198868478998
0.89351262058638
0.898254489781964
0.88624418143745
0.880374327942977
0.876536264430567
0.866859756749547
0.867799011909017
0.86629196252673
0.870241942066242
0.886264251834222
0.889364953245399
0.895037395219605
0.906269925122095
0.92777345957884
0.940837974820064
0.950178388905617
0.958464661383362
0.983148996888415
1.00451718259953
1.0192256474136
1.02587320162716
1.04720023593064
1.06031798065886
1.08246220051003
1.08944642914806
1.09225456783599
1.1168549857781
1.13246981994818
1.14614011539989
1.15816578900247
1.18329283862367
1.20417193240931
1.22407814183005
1.25454428929431
1.2691884407661
1.28263472846004
1.33187649087826
1.34591153199286
1.35197018506646
1.41151228695768
1.41321952036638
1.40607236649076
1.4224047325047
1.43329403053698
1.4550039067466
1.47240939187532
1.49055320390607
1.50548852782748
1.50198333256975
1.50727548090671
1.49703286942231
1.5013275900102
1.46809376058694
1.48000916401156
1.45502925507677
1.4387766161039
1.4400785825448
1.44991262179175
1.48444428717264
1.42340876412621
1.43129693731525
1.4451037659097
1.44191750250345
1.45768678261532
1.43534000225315
1.47204278815797
1.47311958741461
1.53402999652477
1.54950627078885
1.55309940294596
1.51727296935374
1.54082271524382
1.55039076500409
1.57674227713698
1.60297302950027
1.60529976313655
1.63151285697379
1.61521050000748
1.62017441632448
1.62642171839036
1.65967477547003
1.67181143451107
1.65052206380339
1.74769737254746
1.72617598677927
1.69420002739731
1.64291425682031
1.67390891074983
1.70761320614279
1.70488017902882
1.62915184051371
1.69854409439422
1.76937890523515
1.76029840332903
1.76756168482909
1.72975498349305
1.70364328854805
1.76591419360744
1.62285798343025
1.6044430901187
1.64582190808775
1.59825686134786
1.60994950087927
1.62311249258253
1.60606750016906
1.57189905489467
1.55909198685741
1.52259015230677
1.44338880670384
1.42071610300656
1.36496413526917
1.31552132451552
1.28078086052749
1.21190152881814
1.15750695936809
1.14217878566043
1.09584508074185
1.06257959382577
1.02666841318998
1.01291810467332
1.00550558310884
0.998164650399839
0.993601939592724
0.979314527224112
0.970153085143013
0.962250532369093
0.943252847943576
0.940703988885551
0.938614273703625
0.914893062318513
0.904011369571211
0.897990943211753
0.885348843269759
0.871170328980149
0.860757814165591
0.847339959620244
0.819027795733524
0.801170831155026
0.78287753120087
0.754036414910823
0.733482363162944
0.711165817665552
0.689827422693263
0.663271697068007
0.638722222875796
0.616631479573547
0.583021047876679
0.563501649977811
0.543620302567492
0.509208974682358
0.490019363136964
0.470478244079858
0.446050290694913
0.431432491392834
0.415946298318935
0.404060499083345
0.390450527468889
0.376878312899701
0.363004982294618
0.357126312305015
0.349277392703285
0.339122018177787
0.332609734973349
0.327663362550588
0.322714612576388
0.322068934592518
0.318062028490141
0.315691105104738
0.318443444066134
0.321237678401801
0.316836599483952
0.31634248434916
0.31549283777719
0.318468254044922
0.317629973247254
0.320026233207122
0.324400184065306
0.325914358434216
0.327410509814303
0.32306500143706
0.323594663092612
0.326455689907354
0.321549656719639
0.319500368567907
0.31935720430237
0.315530389577323
0.31481019150444
0.309782538567646
0.30977121286928
0.309278332761094
0.304133968491563
0.306862970725859
0.305775191732564
0.303796820570508
0.305892878008214
0.305174652535732
0.30498268873691
0.307603452566405
0.312041385218619
0.311479671786964
0.313590224181473
0.318222260238318
0.327444999383531
0.320898002022679
0.322350495515677
0.328819862808996
0.331593033349825
0.333915335031439
0.332782394012718
0.334645174539818
0.341203150955172
0.339333995821291
0.339766360374038
0.342334377042421
0.34073436790474
0.34089353907025
0.337257874435467
0.344539449867205
0.344469492355042
0.348768637934566
0.348848105113112
0.350853255202274
0.355519537137628
0.361814117549576
0.366021364021307
0.371306597615371
0.371588495690023
0.386577511689503
0.399904635526642
0.407830414114071
0.422069536218846
0.436531029136248
0.438044969636741
0.451307510316809
0.4544227987478
0.464452083452222
0.466528090397841
0.464507307538429
0.468468674455253
0.464367036999659
0.454474071232911
0.448116094381329
0.434492293684481
0.430716106210792
0.42730464338715
0.421797071848509
0.413525992630735
0.418105975894533
0.413362955579975
0.422037121823115
0.414477133379539
0.417816144864294
0.419646276845131
0.424053839346739
0.416082298411472
0.42237996807481
0.425833738068951
0.423105107383689
0.408870761432797
0.408734731421638
0.405682997153904
0.398346551141316
0.385746469258067
0.391418392348249
0.383073686482322
0.376495919113251
0.386154130306549
0.386977992154268
0.379204512952207
0.373918030082672
0.3799348259697
0.377351920092713
0.371381669869943
0.367393798427906
0.363033647314387
0.369070699586843
0.368078697424345
0.373624777124136
0.361000311995365
0.35801891652442
0.357173391820737
0.362409740376517
0.355736341912046
0.361756921803631
0.358475639730434
0.358543785083429
0.35207130076371
0.356376583586524
0.353901440928917
0.352161929988383
0.346381846199
0.354994157186704
0.354183238912262
0.346392177215273
0.350681736939437
0.358168411223255
0.347897915637174
0.346401157914887
0.333909732097352
0.338682615222324
0.340196088439588
0.345540398569899
0.341832114458519
0.337991649741222
0.337300805318059
0.344460090961351
0.338244863775913
0.341414994068647
0.342911908051306
0.348101874219399
0.340759906416494
0.35142240527038
0.34209880106221
0.347505996310761
0.341890616228207
0.357990503644307
0.360484358980339
0.364450458020437
0.361490811118326
0.366973486532784
0.370214320552132
0.364332188194446
0.360867220329048
0.367710046757666
0.359127798454487
0.382749991677171
0.387986327265248
0.390268127473078
0.38812821616979
0.392666693548579
0.400251871423586
0.39759076083473
0.393064307944973
0.399542837414397
0.409866220005358
0.423907458188414
0.426626999234186
0.441188005037032
0.450992288768297
0.474029906842397
0.456728041571392
0.47107224589639
0.494731745290309
0.490136043034499
0.502329061229616
0.524526772183912
0.545030289557367
0.559710764380041
0.557262257895835
0.586246894489882
0.574010167640035
0.587350794624916
0.592000549404139
0.613944312730338
0.616102441383646
0.620837306613264
0.575626448935141
0.588880160674545
0.594116895702364
0.5937200023476
0.599552146580938
0.57522944984602
0.591112820855268
0.586376291451764
0.576845899073779
0.591941495462777
0.547936769891726
0.580051073636542
0.568039469303619
0.593152964279412
0.571732396650432
0.57893251079195
0.566108190025362
0.561486662857199
0.559053224709161
0.572069798518755
0.557150098801327
0.586205384066814
0.54785219532641
0.528420818496772
0.540838475335929
0.552457359304754
0.495086782957502
0.542566395334233
0.515438456846714
0.525311983937024
0.527339047906852
0.536722560648014
0.517568107659883
0.512371164973369
0.55181439823388
0.547909367699155
0.536690791479227
0.541570245025357
0.552949589948309
0.550590737876156
0.563653982246047
0.548960055265695
0.547813342195177
0.548244012110165
0.519734912622061
0.598961420794782
0.5562419481188
0.568694244137771
0.546784416937677
0.567390563081079
0.541923233926522
0.546141741820365
0.555124962116885
0.582518871994603
0.517800487020164
0.597701025435667
0.543033252587548
0.605355405138814
0.575599651376526
0.603273910050069
0.568633370228384
0.650115500083882
0.579436898476342
0.592205819656486
0.579959022409831
0.631778357358465
0.666901824997761
0.671696547985815
0.573425614017596
0.634426028176108
0.641750557843223
0.702227049282294
0.662818748360514
0.671022029230365
0.683538984239986
0.739002124287885
0.6937234969687
0.82316612718783
0.744296928609067
0.751077642943441
0.646232426515692
0.738676671049726
0.7282909844091
0.736613848724479
0.738397662846726
0.823610424031585
0.724469959368869
0.740270899927773
0.749187290032495
0.757304239280809
0.773985420085871
0.833752569146147
0.775650361921029
0.804809769008185
0.63752640248853
0.780674613078964
0.785191032177589
0.708436710863257
0.61593259272457
0.657560026644374
0.727069080249043
0.697250358464666
0.577189479723457
0.653947944571937
0.72075307128967
0.726260292746731
0.708207582031865
0.863140464093048
0.743750921672699
0.691182356363415
0.70768576381502
0.855736199132076
0.78961041973743
0.805534418378442
0.782291853621555
0.922860731355804
0.732063479839423
0.702873587196526
0.71440193278381
0.820645276501181
0.715323597404892
0.869267241887602
0.365042918811187
0.639060500687959
0.880081676940287
0.745095198410727
0.639032704927538
1.07229509837608
0.823257712912066
1.16454410897233
0.644805491254212
0.617013350485069
0.705239028146156
1.17967524022124
0.8790233785616
0.740809728784984
0.500020595307139
0.699756870139208
1.1528136245671
5
0.627223221923315
0.743729599850739
