3596
4000.36533379555
650.420452594757
1
2
2
0.0676361235419716
0.0594365339088092
0.072728476716505
0.0705877840865357
0.0716417224437937
0.0580196242142499
0.0693096479020986
0.0649420114049358
0.0705273926329068
0.063243222488242
0.070051454606687
0.0580711330520872
0.0727404806152138
0.0658468181388068
0.0726675266126802
0.0571099396779487
0.0683489756966836
0.0674989596814664
0.0751572075132699
0.0621725749343219
0.0700113314506284
0.0551137635499212
0.0660315832533361
0.0605678502215484
0.0633192373850228
0.0698133250231448
0.0731433919208748
0.0603535363440128
0.0761312794888463
0.0694327953455638
0.0695381621919137
0.0617631923995831
0.0692230692760118
0.0633687934762183
0.0698606620288746
0.0669464297524696
0.0761721338332929
0.0609662486226009
0.0647041321958265
0.0625477754952228
0.0778770575418246
0.0607119097851776
0.0724354039872365
0.0621470173741566
0.0725012228188311
0.0596553779585627
0.0696633956184452
0.0664624285615198
0.0673106446254633
0.0635941456809696
0.0745348828787785
0.0615418392835498
0.0746744102104575
0.0741070035749274
0.0717913956679744
0.0727037588636212
0.0786154754408544
0.0672631895219809
0.0718464469115511
0.0545695901150176
0.0784380546080051
0.0808555401601047
0.066412547903482
0.0667355461846847
0.0684106796257524
0.0634580080493635
0.0713499862249801
0.0641811314708618
0.0691620436656358
0.0633769997761126
0.0649089973128202
0.0744754833945831
0.0885079717307311
0.0629159117998985
0.0743203543383105
0.0637877373368199
0.0673360998074913
0.0591285379985078
0.0686818953225796
0.0625922470354852
0.0789683624923038
0.0669310196257823
0.0709177319935051
0.0485631552497985
0.0650115695363928
0.0733463447412541
0.0643942710379551
0.0520954247017916
0.0865589477934998
0.0693884878939655
0.0650200392996438
0.0586297874127882
0.0705815605258306
0.0515901229571431
0.0659010981795434
0.0559760677695546
0.0638076558163448
0.0558394086387781
0.0656225342921069
0.0543923490396759
0.0801107806391698
0.0484137033941605
0.104540753662038
0.0574674536891509
0.105181383393208
0.0814776207126095
0.0423333659220236
0.0985274931570008
0.0839197621851097
0.0735327882346795
0.061793551988468
0.057515720424699
0.0696477847468353
0.0655657670897064
0.0582340716829696
0.0687893042284923
0.108618869863547
0.0635557383610932
0.067131556510653
0.0598022527027102
0.0578590769145803
0.0592473077111089
0.112350581397092
0.0569018121932483
0.0834686540825631
0.0583589922222529
0.0638037890210684
0.0822513708479156
0.101338732729818
0.0556640239468509
0.0709731532379978
0.0494649729189544
0.0685711384012033
0.0418452287283056
0.106317925482723
0.0701514504313655
0.068334389776865
0.0432046089288826
0.0705379293029286
0.110120315493325
0.0828008183055931
0.0531457627639329
0.0545603875253952
0.0503793830515139
0.111109510645111
0.0680135231330053
0.0553066600487396
0.0673781360546745
0.0809809938589587
0.0533729448423164
0.0668482612730482
0.0497680999084412
0.0795138431190674
0.0631530056358457
0.0493287542992095
0.0686042103085207
0.155556432702033
0.0367418404529536
0.13240116836557
0.0598215731780772
0.0729938296594334
0.0660198059166064
0.0624281752413081
0.0497390970563676
0.0622559619978907
0.0445473834439821
0.068358102851858
0.093060538969901
0.0619700037257129
0.0610851148758514
0.0946911375764163
0.074013442586768
0.0559481575119265
0.103729013989002
0.0910032138629074
0.0370609101234342
0.101722493564189
0.0699982792884166
0.0556532215303261
0.0531017799268185
0.096769178976732
0.0492144539888757
0.068974377054867
0.0527952931508598
0.0647948403922284
0.0689280884826703
0.080263143688115
0.0533737038124476
0.0670256584097697
0.0395926131807851
0.0854769524152944
0.0939682766972893
0.105940326987338
0.0586235147873296
0.0789402852577719
0.019834974259557
0.0800606298955606
0.102953500096068
0.061472344124134
0.0568447195382927
0.0645697016852293
0.0496554430667691
0.0620554964391184
0.0492579840608025
0.0649150731687876
0.0268569022377483
0.10341601541572
0.0784686719493234
0.0599707429740802
0.0513885299616238
0.0640941981238843
0.0519143697399831
0.0971743855966797
0.0995469608710989
0.0635040007089825
0.067171446544456
0.044540169413252
0.0680892564375973
0.090844204683753
0.0586960373402195
0.0615096864446983
0.0612371250629556
0.0619297019431515
0.0583638235368308
0.0633729164919395
0.0629094167707111
0.0643488490606013
0.0577846556803914
0.0669061401031241
0.0561638792082611
0.0688237495130936
0.0659178265077082
0.0661136353403613
0.062940510531571
0.0587736885460633
0.0573084516331074
0.0921029561434107
0.0638329027824025
0.0680700340197851
0.0589533566993316
0.0658763695676017
0.0558836132900113
0.0663296745502339
0.0580043627096144
0.0629356516262151
0.0392885485822138
0.0992644130582514
0.0688001810066272
0.0668643527230039
0.055637245213645
0.0772886815558636
0.0768365872326833
0.0596004958510596
0.0657551161915502
0.0590154993727147
0.0544638319352813
0.0556192846060237
0.084145354151005
0.0750781016376628
0.0649464092579954
0.0778381547802375
0.0708785496663562
0.0585613448756218
0.0647731904829557
0.0414674685546587
0.122323117928184
0.0856503938248337
0.0397109697835369
0.133485957010818
0.0844727785730822
0.0701190730854327
0.0751625701962166
0.0318195123950099
0.135000236335384
0.123789375222921
0.0684330518225732
0.0790303988279137
0.0780996261429133
0.0659925489245513
0.0552184123432437
0.0775479989066761
0.0549522942003105
0.10548391711876
0.113521418508471
0.128402770053253
0.0476881437931246
0.0904655931315565
0.0992822603424027
0.0685919021571286
0.0710398459169125
0.0686361278408379
0.0720107374780707
0.083641390377249
0.0833606925730855
0.0790084760552409
0.0784985593614512
0.0633862297203325
0.0946334901653081
0.0773094713821284
0.063180420930828
0.0703130138625607
0.0772921543553712
0.0689556433550268
0.0696435082343158
0.0688341677493491
0.0724078016529323
0.0750571857738775
0.0562339794044299
0.121174786964345
0.094624487190739
0.0595380627173817
0.0964159940785057
0.0822724819823153
0.0653937468249649
0.0726981815475279
0.0714095248876744
0.0684170316906479
0.0616940378218502
0.0622290306897472
0.0921091014199164
0.089272249582902
0.0678799200272627
0.0692597302600377
0.0639799339488622
0.0750487607802437
0.0711092473025282
0.0756045567473533
0.0672151288530513
0.077762992349569
0.0729643689514207
0.101298683120473
0.0980551201446011
0.0600851971934154
0.0907685370941348
0.125660369684002
0.0780571232441766
0.0793502754454911
0.0718825698572376
0.0880280003840686
0.0739430665001558
0.0863355284067649
0.0758889076059847
0.0813253362275493
0.0934200555732361
0.102642262323736
0.0770313859582727
0.0882873770016924
0.130230650940306
0.156437773844322
0.100764805003962
0.0940047334839103
0.075324078871283
0.109386248554086
0.123093027463484
0.09959973252405
0.118048060026998
0.0969854351179395
0.100598429697725
0.0934144063449372
0.099599718653359
0.0929898808735125
0.0930835663372753
0.107358509476338
0.106166718872474
0.106956522610883
0.102227934563732
0.106979025294802
0.10455486815766
0.147442447216891
0.123518461482443
0.114892841085808
0.108255698795422
0.10672695362027
0.123762387642574
0.153195463522437
0.149582560314383
0.158775042243158
0.129831739198953
0.17699143847689
0.128629442371095
0.13086314022732
0.123821632706195
0.131239981144763
0.129054478331929
0.133817664694495
0.135250869975889
0.138152224461908
0.134672377497155
0.149902538753829
0.13848937337859
0.148716710818405
0.138439869150567
0.17501859378438
0.153770996946995
0.152782597870148
0.152414541348324
0.174641415099914
0.200542642729763
0.20071599825539
0.175635345520878
0.171294457014353
0.174781338711517
0.161466562868178
0.181363566439562
0.174859352947531
0.181695812707401
0.183939454379267
0.207497906270843
0.216418117248658
0.19504727238556
0.213145941835904
0.185054842968678
0.208595452719956
0.204444048691333
0.215739324799252
0.231624843691204
0.21406569197944
0.199770309355056
0.231405126776915
0.235967497147676
0.21571159663464
0.232595384667931
0.218386087939697
0.211923072406553
0.223363959966581
0.225695195923465
0.236797270640159
0.245020016616793
0.244739831509443
0.234773127352755
0.252341322215496
0.244713007484469
0.244772182245273
0.25932323339081
0.267536675437863
0.261500632224853
0.264567390552691
0.254683770996109
0.272790792535467
0.262173562566944
0.287927354394794
0.307241034408277
0.290678714852322
0.294347391530118
0.286285441810481
0.287926897322247
0.294442352570342
0.309852829454451
0.297595856999099
0.29487748059194
0.317114657494717
0.307179497669203
0.312519347632372
0.320000194271007
0.313804568941933
0.306396932796385
0.334815574848509
0.331173013754934
0.33838012401351
0.337361714052882
0.337085670620215
0.344674027418685
0.370968494290656
0.388126658204379
0.375713493081501
0.374515340966172
0.363982953446739
0.376371961728877
0.387713071369545
0.380763745656436
0.376288892545692
0.388193391335633
0.388248321903453
0.383172425159363
0.3926455648891
0.392240112463235
0.397062780471439
0.399442962223974
0.405675761966239
0.414898283095592
0.411463175469891
0.429806968059414
0.423073891800208
0.422291716555792
0.448544730091123
0.440101596130678
0.445445020657156
0.468412446369865
0.45679465280534
0.445698524809845
0.468520902207379
0.451885759178507
0.441290129708355
0.479979366455977
0.468905594709886
0.468008439031562
0.480713284093176
0.505359805508433
0.505581830938183
0.486959532721212
0.504647403959673
0.498746874453574
0.506790540716337
0.518669788209375
0.526243417442306
0.523791383432176
0.538209988530622
0.551260461594506
0.547033046422353
0.54717889458946
0.548933868682393
0.543665549641125
0.548955749265277
0.54372748416402
0.542370221637067
0.569000105058988
0.562764422143728
0.564630640488591
0.593090731445293
0.596926509610592
0.564053857409746
0.602528504286592
0.601069932641623
0.598626358027017
0.612818375582074
0.604865261535722
0.613845891003222
0.620219250644318
0.606500330892315
0.607454031829979
0.605697126701485
0.648463759087061
0.651924542620896
0.659111323331662
0.675819196733981
0.660479384671566
0.657742914852811
0.641659985364094
0.652604636129631
0.693617935959864
0.687227992500779
0.666884040865219
0.688577125332593
0.704918797141963
0.70870621803159
0.724158873950957
0.693116780679418
0.726568749507195
0.733128974745952
0.722744310189627
0.727024257412227
0.738075264585334
0.753220394752125
0.735809805305808
0.719483648573755
0.745194582000554
0.768383495405124
0.746173069324453
0.742436374811285
0.793757684296292
0.792739300883787
0.778844880499712
0.758653295098027
0.822075295608169
0.815244046379176
0.79791279633023
0.785727925190614
0.79924956474515
0.772443207078318
0.797757978466421
0.801001255539869
0.832255267947001
0.827800492073607
0.82648542778092
0.837718826143431
0.864453424673292
0.843355366388755
0.855634678270405
0.85369916568858
0.853368171324014
0.813590295287288
0.84597631373514
0.892294302314963
0.876099937589447
0.838448566390549
0.880405589094291
0.881200796927808
0.901664137231151
0.899996175766388
0.886708528334013
0.88364235474382
0.909040826371977
0.885557210992976
0.916655981351949
0.908688579521538
0.936676084773118
0.950895723684614
0.979201740439576
0.893971405908872
0.928859425233482
0.928530393193685
0.957193067167731
0.924635541678799
0.942172810828306
0.932372818878854
0.959255142780959
0.982497244645793
1.00432779074524
0.975165039279235
0.969943681962985
0.951629241999864
0.963654819940853
0.983674917134048
1.06191051180994
1.01631401464906
1.01435041687813
0.97167936585923
0.99389654211856
1.00143832195847
1.07764264489579
0.998466945972676
1.07732066419843
1.05825167848058
1.07626113070051
1.05813734807008
1.06177500478538
0.996437246015756
1.01673307336534
1.01904150740704
1.04509335060368
1.03372406293809
1.12287524096705
1.04072862596984
1.05974981491368
1.08208104399059
1.10138758808227
1.15920876961934
1.14790270465396
1.05899809662396
1.12500504845176
1.05832961223191
1.04759673841412
1.03833552944129
1.09910594892076
1.12599444422952
1.1083217936229
1.10452139992078
1.19769056432174
1.10207567910229
1.11192219618982
1.07276733678354
1.0882487988447
1.12368099012656
1.17118844347893
1.17782349373976
1.17631941388708
1.07463395132021
1.11238751315439
1.21609547511762
1.14505727109908
1.10843136114341
1.24213291982362
1.17192347488719
1.15430991541776
1.10080745811545
1.15996698792016
1.1622063710852
1.1925204003509
1.12114955839088
1.24636813518255
1.16951562695106
1.23687132595738
1.22894410985429
1.19541863614766
1.18111984958514
1.17717658883509
1.1231390368192
1.20809076925963
1.19982940278071
1.2130184523728
1.19069386736646
1.25280188013117
1.20159505502622
1.25888071546034
1.16793113842896
1.2032817756749
1.12359017897979
1.21151560035984
1.2619515422048
1.25403284648406
1.19009708648987
1.22608861008747
1.17766247849332
1.19765806261098
1.20219054384782
1.25739582296758
1.20072170887811
1.24842775888152
1.2954271499049
1.28651439747083
1.2363072440103
1.26682407209244
1.23409999743481
1.30624957059261
1.26190274970083
1.28004410668089
1.23554818913908
1.20886526028614
1.18547002234624
1.25649643808466
1.28605260957649
1.34405434309173
1.22279138998977
1.30677048810469
1.28041985391154
1.28707108162113
1.21395131986202
1.27889912399156
1.24828862890511
1.31638283569374
1.16376905725443
1.24132269177596
1.19921754276576
1.34223705994797
1.27850261594406
1.30253504424927
1.26982243257177
1.33394075931177
1.31553857116207
1.34988663668204
1.27512832829414
1.24760939473061
1.22380333642705
1.33040711549397
1.25302355904183
1.26497572613715
1.19533728369759
1.29707052427754
1.25816211699021
1.25210883428827
1.31393375244829
1.2884031331082
1.20756376466832
1.28698105042714
1.23344710665086
1.27545956575472
1.21973966347544
1.27942222975235
1.31452724055724
1.28233933242255
1.22442605961571
1.34578911261369
1.33066604187326
1.25675599184419
1.19726207649962
1.32231056598835
1.20667669911297
1.26423327010719
1.23539062756244
1.24466588524194
1.17982343734251
1.30573656962817
1.29204972690147
1.30501120802807
1.31077706655224
1.31919922362475
1.26762725621812
1.31867017234483
1.20072393516434
1.25652713219063
1.2447661214483
1.3008884496765
1.26752185151753
1.28258776761184
1.25172638301762
1.30952891144433
1.25076400921434
1.31128602055229
1.28924975058903
1.31494520590517
1.19127911189211
1.37674002784405
1.29051694954341
1.25177366767112
1.18172814227893
1.3072727670111
1.24187958106519
1.2736371409953
1.22433443099157
1.24477986111346
1.18373783136647
1.24137223323652
1.23753242360825
1.29842448795247
1.18718646967543
1.24399168524553
1.23644295762223
1.27554996883757
1.2352284905721
1.24033742571843
1.21498321643851
1.27369281248965
1.1619639471886
1.23283783062475
1.24347359431041
1.24920822031793
1.18826370962585
1.21989176224037
1.1895347972432
1.20516938447796
1.19677122254513
1.20961595489746
1.20548680018641
1.22421051973308
1.16282375923269
1.16453771830784
1.12443374843525
1.22199413165789
1.16963623391115
1.17903873536274
1.12541818694907
1.17226981179095
1.17969814761178
1.14676977869006
1.15039731376883
1.18520661971351
1.11427550889221
1.18458680017105
1.12286485666325
1.1381911700412
1.10488353530834
1.18262424033223
1.118447985142
1.13249226769463
1.12508248369893
1.1759867708347
1.14549282382105
1.14870336592134
1.10649462197721
1.14432585097028
1.0690042886129
1.13218924434161
1.10485741977055
1.08794777744928
1.08456852737765
1.11426488703707
1.06301195110778
1.1085688715099
1.088537078387
1.1179318152144
1.07718052236729
1.12102530858697
1.07897926742408
1.08549902810409
1.0504424318857
1.10200131664698
1.07681580694082
1.09621932616471
1.01952325503869
1.08088394812216
1.07631980022512
1.09459492770536
1.03328654144384
1.04245563993508
1.04028908205344
1.03327704297296
0.979351283364016
1.04743748705321
1.00812257510508
1.05828433322923
0.992064698404418
1.01489907642754
0.992425464180213
1.01431294215021
0.996966483573451
1.0158195824501
0.980405520182266
1.0195896048921
0.967122284967078
0.993648555946442
0.988914818461514
0.981784623222387
0.952633835878557
0.980773533874059
0.927500523175369
0.95120569289376
0.927823350575774
0.93041912669337
0.950007711523916
0.96744096020292
0.932520656758918
0.956287860163111
0.926021752831954
0.938650911684798
0.930671573941938
0.931194132010876
0.928170736752283
0.918311333702574
0.872395862027083
0.887487547087312
0.928215941782103
0.909501841436554
0.885169347177014
0.90874648016769
0.839209871754977
0.87365483703243
0.87045538595855
0.87604193209082
0.859214430530534
0.859224768844912
0.842916079992093
0.858174546877338
0.819620669010646
0.868437565428434
0.83840372754756
0.841732164439294
0.818333698945768
0.823702138674417
0.812152768857352
0.834194837485155
0.797176113296531
0.809906156048784
0.800517370618463
0.805794588195018
0.798646435689475
0.817072112026815
0.799418829696448
0.82309239463346
0.793669693589805
0.787887322845266
0.767149562957373
0.79040503897679
0.768734385265162
0.760792720589963
0.751094676761374
0.751315967613755
0.749586330873715
0.741525759213339
0.741349248603198
0.751429531556264
0.739326317698726
0.739186362347619
0.718091011724564
0.727563780852311
0.719291652722972
0.735883444928024
0.714610069573807
0.72198639013916
0.704604940218111
0.71604317277162
0.715971235193726
0.715963421644551
0.704827624001298
0.692200515681233
0.69163827613215
0.689155672702833
0.679490327449471
0.702204126414794
0.674946863959477
0.686041317404363
0.672365911161957
0.680840809726134
0.659334128421196
0.682607942795068
0.671838137139302
0.670121537338975
0.651854976921249
0.646106566261181
0.643371660853184
0.66074219421475
0.64505465500982
0.634208563451613
0.638608804708964
0.642540689367035
0.61700090569911
0.632618731663787
0.622379606988165
0.623128491033413
0.608444364778566
0.625302826536626
0.613938718610524
0.629004807947367
0.608525699494052
0.617887808440012
0.606275345205149
0.60594086653189
0.601886737737751
0.599723395965465
0.583536186477014
0.581535830887139
0.585482275883639
0.596351770651134
0.583844773927167
0.58653493615858
0.585603431404532
0.587367106561711
0.568245041012588
0.576732286835375
0.556440096592191
0.564592970726126
0.569038555234955
0.565935727937509
0.558325873340545
0.557651887586338
0.556058179591991
0.556674605570249
0.545930960936819
0.542708031135372
0.539919881241464
0.547210684212927
0.536704279924739
0.537067281269344
0.528297426551294
0.530107816551103
0.519897217349267
0.529166093721264
0.516537491139631
0.516704170005369
0.512150013005043
0.518539207196653
0.510477216855291
0.513119967232077
0.493930211635651
0.510175747733675
0.50054933729148
0.501592891980311
0.487662728232514
0.497189505682085
0.489954085014888
0.489134535509167
0.481445071205288
0.498063279400306
0.480295784544545
0.476790623555078
0.476024389296459
0.480441082170666
0.466900151615337
0.472703164274116
0.463931993818866
0.474481451412679
0.459022663645136
0.467136264635934
0.462385950614853
0.453723233732716
0.449674299888299
0.459954482169922
0.44940463339712
0.451791487061809
0.440656311753039
0.447903759437247
0.440253322794277
0.436510086525628
0.439801185969303
0.442974930208834
0.429049018316261
0.431921615026937
0.430653707312328
0.431479690526967
0.423563163753842
0.430587107691218
0.425414942003319
0.425191593914967
0.418535602403387
0.427636750943859
0.416498682708645
0.423698934241755
0.417309939864623
0.411392627531541
0.408228546865549
0.417790457882519
0.411007627975202
0.413643142474743
0.405628274411176
0.408426288176486
0.404939612568757
0.40998425963289
0.405826650034025
0.419486989290606
0.402973658518842
0.408675928228481
0.399323339372869
0.407116434091499
0.402962526736111
0.406713063896719
0.404681088720238
0.406278761471694
0.408652374602922
0.413575549678716
0.406179083360624
0.413599595184281
0.410161812470019
0.417956252060418
0.417669462100087
0.421802688525913
0.407106974293515
0.419078330934881
0.420672041501349
0.421742120446746
0.412900829029596
0.416870084661607
0.42911718117975
0.43626340241082
0.424977752603615
0.432559192690957
0.428840062621282
0.440913151404895
0.424116861425854
0.436427882629958
0.432681407235077
0.446193158759138
0.433701641689884
0.446248196764103
0.438737053349578
0.458086994303929
0.450008311435338
0.45567838273005
0.457564352081272
0.462056743536833
0.451505311960751
0.464357427275119
0.455955346730099
0.471168721343529
0.467856567470462
0.472663070683678
0.475804498107267
0.475723461600599
0.474166181645843
0.479987742797824
0.469153587638538
0.47953171874483
0.480380880682546
0.494331504665943
0.489944336418464
0.495234625274496
0.494913826001783
0.518648007336555
0.500876882606771
0.512924432037225
0.515964214643213
0.509534284088254
0.51230131597422
0.523193992631367
0.525001085324036
0.534387930232517
0.528884655132239
0.539992624479651
0.524421589531581
0.534421341945461
0.529363012455688
0.53590864725318
0.532953411235229
0.53680325925827
0.530922819124232
0.543416669662296
0.52418537554329
0.544259396257901
0.522303906820189
0.539706080995867
0.529272798339463
0.550106692761284
0.518311577766385
0.529763977902319
0.524902780407726
0.525260902089636
0.517100386806906
0.538254441689388
0.514128122280924
0.546450797134306
0.521019876907303
0.52548871248084
0.528745058228628
0.540149776259451
0.515812940236838
0.526894387729795
0.522986730693847
0.527713874111624
0.515331569128248
0.52979015620292
0.518149998797742
0.524459777777869
0.515684386045856
0.528469221226628
0.518729145185687
0.520832117798187
0.518125125618632
0.52651146896598
0.518761292816681
0.518918602177574
0.517421290958757
0.528860807128711
0.515528598531687
0.526627761670551
0.513719604170635
0.5323334438275
0.523913383864658
0.5288054186435
0.51664551067237
0.523591157421045
0.518651625693749
0.520271832973925
0.519508038728157
0.527731389473276
0.507596165766546
0.515371502120157
0.509161418070964
0.518717869693035
0.509770298615785
0.50652328430162
0.507442440340108
0.514219704614698
0.50450114362376
0.515536389869245
0.494643334288378
0.497581182708145
0.495621779763159
0.490062914790972
0.484923156348085
0.488993516522656
0.473842811851428
0.480381054360955
0.475270133902218
0.477550055219998
0.466470991057107
0.466740251477309
0.454692446472474
0.463663602209105
0.459042222915953
0.455515285789047
0.453421274004304
0.453726040681498
0.437675590380463
0.445725364094889
0.431492207883313
0.433329249312969
0.431775485633523
0.427946671537634
0.41699928824346
0.427093711059448
0.414178183665439
0.429185504094809
0.408640662984973
0.412086955378762
0.4065608508098
0.408749495702876
0.403089011774345
0.398299665650326
0.394317971026996
0.406934892083764
0.391045160201419
0.39381625475914
0.387589191556587
0.398760511125272
0.38490366883979
0.386243303084696
0.380454321677251
0.38433787848931
0.376574052383991
0.374882744902201
0.368302529455945
0.368139133316111
0.366562651038814
0.37282833286143
0.364718793360226
0.371968063530964
0.362579441791209
0.369609576866718
0.353291202556829
0.360243759220858
0.355756829409743
0.358672127810321
0.352033629490869
0.350889560834549
0.347707213489071
0.358580419166878
0.343344229475611
0.348475065859658
0.342587477463559
0.346206307833247
0.34416226674306
0.343695854319043
0.333941476181362
0.342864498378964
0.336473636785406
0.338442673793408
0.333392368487041
0.336230043928482
0.335670412368399
0.332079096602028
0.324416189329927
0.330027911870925
0.32353274383218
0.329564762757127
0.324497354782373
0.328578441352588
0.315699679401895
0.32777132147029
0.321028856247993
0.324732893211682
0.311736738486212
0.318175800852837
0.31238353453476
0.317707380357362
0.313281477841574
0.316662957204244
0.308937554611885
0.317422519238521
0.304433186614215
0.312375759599008
0.304715329745538
0.312980403859091
0.302616740080313
0.307650901087619
0.308327515507611
0.309316714055393
0.30168258026373
0.305892522800624
0.300134636429302
0.306718974531155
0.29478026061467
0.296981017527598
0.292346261564724
0.301547839512388
0.294080740267548
0.30085410667232
0.292796183789565
0.298904324855643
0.291449633493358
0.290706834557802
0.293013045426098
0.297251010417507
0.289140879673534
0.292607349054404
0.290156636846626
0.292568564078836
0.282871935498107
0.288886877849229
0.287337424070086
0.29129630103239
0.280678062612419
0.290245571485946
0.280157325712309
0.28777297539452
0.279888667673324
0.287200218226488
0.276882966082548
0.282442844782079
0.278853587660046
0.286769731716589
0.277413613143726
0.283210824870215
0.274310036882501
0.278998000525379
0.273860545862332
0.281012620624249
0.274878587492222
0.277136981346383
0.271855495580277
0.278500772063847
0.270995713835413
0.275540245479843
0.273285805967031
0.28056097816065
0.27466237177548
0.275819496765396
0.272358745591167
0.276302271022273
0.26873992115034
0.271244859426314
0.267435249211883
0.269916532938292
0.266280578089869
0.274096169063573
0.269392617129288
0.273496184575083
0.268343183322467
0.276722669438783
0.267063270912699
0.268205623163196
0.262045790379951
0.268322260054873
0.264922590774332
0.264344420729907
0.259279463634594
0.266062193706588
0.260768528186117
0.266126480525341
0.261217327244793
0.263466530858838
0.2555024971267
0.260324413082499
0.259214147059435
0.265381901755922
0.255716677619485
0.258898304723244
0.253808312713874
0.258068775561957
0.248927663569231
0.254046540890834
0.252526222383678
0.256703365626748
0.248163286060921
0.253479567247289
0.249274236059942
0.254802785677874
0.246341744342349
0.249101264678878
0.246978377462126
0.247473100232469
0.242103425682156
0.247021110856247
0.246259799918024
0.248027476898773
0.239605496400106
0.245059044040216
0.240563310242849
0.23676345397236
0.233741702190306
0.242671546907003
0.238407061732052
0.241539601983401
0.237834616398285
0.245501512617855
0.235017751962348
0.239989717311553
0.232232344117568
0.24000684863442
0.230638000468174
0.23887180958241
0.234916933731082
0.234866398405964
0.230863827732685
0.232068105832175
0.225866663097982
0.231861749605468
0.228724671627361
0.230772830672577
0.225042962330274
0.227112699445574
0.221944082846404
0.22507724756353
0.222374028553878
0.223859635438929
0.223987034619133
0.223916322491423
0.218651953024066
0.221353040022374
0.217128397934422
0.221543623814525
0.212001801735029
0.217701445943092
0.216221808889789
0.217619525806952
0.210279816796116
0.216756861044144
0.20979062597662
0.213263074109106
0.205924145593084
0.210376520690266
0.204606391963059
0.210554126235608
0.200921754034929
0.211101047154434
0.203572595385473
0.202568585359193
0.198059242948629
0.202117219124592
0.198303991363941
0.203524264895715
0.194923493435582
0.197082663973362
0.196372720544994
0.201703013451184
0.19511560567968
0.199726411543559
0.194818050054176
0.1959626493268
0.189260721211562
0.19545837511492
0.186611753281749
0.193015089047585
0.191161482947438
0.192871058321042
0.186904637033865
0.194604966825258
0.183123331040773
0.190774953721941
0.190889787495388
0.18766522830969
0.183799158852259
0.190307521150812
0.183402290990244
0.186912907526104
0.178627310729859
0.184547805090143
0.18143227502129
0.182046679891538
0.178370876829151
0.18444205887857
0.176588335494185
0.183383830782017
0.177613392493705
0.179472717410609
0.175456385731901
0.178640663338527
0.175843221950999
0.176288551144535
0.169846856439785
0.176957114396382
0.173856763191744
0.175162277837698
0.171405500967767
0.172279577550946
0.168705547676618
0.174832383616103
0.169033404556387
0.172038851901214
0.169229850171948
0.172071929455352
0.167997137551047
0.168855635789283
0.166175117182833
0.169727996037342
0.166924030012211
0.169159101850908
0.160462408435725
0.165544728936439
0.161722953167059
0.167002484036772
0.163358236375459
0.166108498758266
0.161495613240485
0.165693961849152
0.161063142541133
0.163191496369462
0.157689679790631
0.165011704039818
0.15950413363023
0.161916040592249
0.15964643515719
0.16264426078504
0.157988839544009
0.16024621675364
0.158508607611793
0.162247860517739
0.156953639774272
0.156637204239829
0.155368990725137
0.159225096799191
0.155514240239246
0.158965031865747
0.154740365619986
0.158547616050293
0.15350781856935
0.156972664557568
0.152347812424955
0.156778073107776
0.154149430757636
0.15429377734826
0.150017222537853
0.157925902501021
0.155353096677598
0.152242415992254
0.153165170968183
0.155307810565678
0.15084438675612
0.152596032621341
0.148551087620809
0.153134492357008
0.149193122038216
0.155113989398747
0.147966708560291
0.151239987165378
0.148985939368767
0.151015497302133
0.147367043883332
0.14748186479817
0.143191241648775
0.150617189502198
0.143330187603456
0.14910991726062
0.142084944633001
0.147809936818524
0.141070133242986
0.146181065920202
0.142611657062642
0.142515713896744
0.14114801920682
0.141167816541219
0.139166429613828
0.14258722230264
0.137207612706447
0.143928869806547
0.134749061163998
0.143005697151062
0.138542548843286
0.138997961690015
0.137194648861783
0.14150782068779
0.134570566402603
0.140563920231982
0.135530516040003
0.139251380320075
0.134993843514548
0.140219402988251
0.136920627169022
0.139825841636311
0.136408529922727
0.137465923532642
0.135855962908436
0.138134653349603
0.132789921173709
0.134997335684581
0.133603432834382
0.134758528795603
0.133458340391832
0.137321903095843
0.130313971195763
0.13551016280213
0.131564186841476
0.137155541699467
0.130703993117478
0.135867217666422
0.131506185009588
0.134505819596223
0.126547264763054
0.131357171246875
0.128258321132094
0.131034655243689
0.127865587506178
0.128655271180276
0.123875528649133
0.128479371430709
0.124218226729029
0.127122632302032
0.125688891592183
0.126353722966413
0.121029880148009
0.124378382285126
0.121620454257243
0.125748865977928
0.12159345393272
0.1238275313169
0.119046123020356
0.123589952055459
0.117926552358496
0.121524201571547
0.11579087709921
0.119891309168058
0.11494248694404
0.119931638901579
0.11426122957506
0.115781612653043
0.115015191330594
0.119340707232986
0.11282934169795
0.117483342478516
0.110291092745728
0.113349139245492
0.110867680236146
0.114293254144431
0.109386749723331
0.113963667080895
0.110291901113276
0.114586404620429
0.109999959164946
0.109936780592807
0.107862644232791
0.113032940606793
0.106458405695918
0.110017759816901
0.107946884766637
0.109900102856832
0.105347093157146
0.109409244490239
0.102641969201064
0.106114105682356
0.101048446818241
0.108095139364218
0.102781534826722
0.107412474096438
0.104371038518898
0.105768401269164
0.103493675226711
0.107176564284684
0.102906280850557
0.10608633188395
0.101467164006871
0.103901373672327
0.0995191622737656
0.103314143377301
0.0990990023581962
0.102852453240309
0.100095165647418
0.101889973234477
0.0959462889469892
0.100851350904067
0.0976639952712649
0.101455473409941
0.0923016947433097
0.0960090032900121
0.0941576284902002
0.0980786525977206
0.0936126078042997
0.0981985538348092
0.0938475993837669
0.096622864118247
0.0923762586189712
0.0957831893048567
0.0912131652878786
0.09679529193296
0.087233305114465
0.0936970458478994
0.0902045289492917
0.0933793206651807
0.0895953391937256
0.0933740407456042
0.0892089836501126
0.0914923938778997
0.0908425024330262
0.0931682839760991
0.0874663939726945
0.0941450536849691
0.0878363028816119
0.0912474396492192
0.0875355041022803
0.0918988600076625
0.0855723220478774
0.0910829888967975
0.0878052189501863
0.0870808385886052
0.084701926606415
0.0926999923068318
0.0857253062053204
0.0902835869334517
0.0855199657870892
0.0898338144643185
0.0838164024999188
0.0925126266231918
0.0841464066971947
0.0896826104758867
0.0803453474929519
0.08991079976309
0.0811963486834586
0.0893496381600171
0.0806578192989556
0.091776040298409
0.0801474834640037
0.0885930195166463
0.0734925845411705
0.0828735410893096
0.0698045688982481
0.0812423926109792
0.0734567508194795
0.0837143760959689
0.0707841103652515
0.085403483137426
0.0744328861553697
0.0820149637842967
0.0639683482175798
0.0835729628577408
0.0710971336108882
0.0783477233123858
0.0704984142199677
0.0825463539115285
0.0634937288528036
0.0832200350329629
0.0690197403583235
0.0859832787934642
0.0731166300090645
0.081567675871913
0.0717297991317315
0.0854808764181382
0.0675286620701779
0.0817944684212648
0.0651920828362132
0.0836839808804897
0.0632900584538279
0.0905248780652858
0.0580486618482746
0.082548169083888
0.0556117511231424
0.0872457633505928
0.0567529316576184
0.0912673196091952
0.0533135831831143
0.0940958077093482
0.0512369804978569
0.0923343879175715
0.0475278475342413
0.0966635387900999
0.0502854781025157
0.100556437781453
0.0498751803712662
0.105244766528496
0.0472204206828176
0.104105821231617
0.0490061896979486
0.103265719325683
0.0485513986149988
0.10208503701812
0.052549122229493
0.0981914070822918
0.0603071309649801
0.0861881037326098
0.0732117545234621
0.0778066296580965
0.081984377745563
0.0673908122689475
0.0919519743496149
0.0587818517052846
0.0977648909717828
0.0592776664901096
0.0938326635289738
0.0614400036390892
0.0877900252182859
0.068569407075733
0.0835777325680064
0.0749426843359261
0.0737746330799389
0.0814361490131464
0.0707375878998668
0.0770178989521209
0.07507145358314
0.0729007365568213
0.0769265805321602
0.0694701707552912
0.0774392428773778
0.0692418592786856
0.0733579935900618
0.0715985468151761
0.0758752525721777
0.0711006361251207
0.0738991805853317
0.0740030484588157
0.0736230895810455
0.0736619220510837
0.0758044598967584
0.0713360977409231
0.0717958173291971
0.073217976893663
0.0743689854066982
0.0707354710586792
0.0754197583088181
0.0723596260162067
0.0712860321563485
0.0722600298107168
0.0706681446633211
0.0697468169565395
0.072916818828491
0.0716406060727007
0.0728804325116471
0.0728302963045889
0.0741935958208243
0.0724705355095847
0.0724773517256575
0.0737608605289842
0.0735763237824536
0.0704441469558549
0.0727610149489215
0.0722487691595064
0.0735251244206054
0.0754213053365575
0.0734666755176976
0.0728357707325908
0.0736331737087032
0.0731897404156567
0.0722178838179898
0.0726114827372698
0.074192364567979
0.0722240936807093
0.073492886110635
0.0725249487161234
0.0729235444019209
0.0728289282737445
0.0737653612985936
0.0706462698230577
0.0753529709233852
0.0727047079759369
0.0742921373568134
0.071699872688655
0.0723816464988516
0.0696952393412551
0.0727878543738442
0.0757485625604155
0.0743948216228113
0.0739025312159973
0.0754824718609055
0.0729031552645362
0.0726847638514791
0.071982616239222
0.0728024904804873
0.0726590160498937
0.0730650367349709
0.0727429796911002
0.0722017902921898
0.0745233459133559
0.0732855127713205
0.0734156476970146
0.0734692948023257
0.0760722711901858
0.0730979477508043
0.0716706742671644
0.0735145739526115
0.0751827647576595
0.0724947513281985
0.0727911750851123
0.0718061227687121
0.0770816501110722
0.0738669399114756
0.0752938347996571
0.0732144903526973
0.0730820445069434
0.0746810418425169
0.0743731926035686
0.0723163632923175
0.0744319482924075
0.0768178182194969
0.0772595502353735
0.0742848533754027
0.0761896858723153
0.0737224180945044
0.0775889403437777
0.0763612563259886
0.075317583267962
0.0745657878578426
0.0748446110198543
0.0736053736302903
0.077304511457012
0.0750106413739066
0.0744990661409942
0.0746181729835415
0.0762673581854404
0.0766531192161685
0.0795948432570174
0.0768881027023748
0.0769572118498061
0.0749208994568137
0.0774921488079779
0.0757612770890443
0.075493332008189
0.0745524382109587
0.0757118089092575
0.0758229121455558
0.0779673260449851
0.0759570962448374
0.0762677655185834
0.0736494074600146
0.0766769487936316
0.0757967601633697
0.0776864637205358
0.0757195839371914
0.0781491451244167
0.0770329710768991
0.0794761338848656
0.0775359982575181
0.077881485993686
0.0786303723804896
0.0774101710307259
0.0753625941783552
0.0768798633480587
0.0778353505500838
0.0773739114694704
0.0759303587667946
0.0783539528867031
0.0764077391100112
0.0807841014801153
0.0784628969295364
0.0781361316474934
0.0777675507785063
0.0804828861124684
0.0782101172103106
0.0794033423097145
0.0774028647438419
0.0807810858753624
0.0803792267291863
0.0802280405196674
0.0785085659861569
0.0812298855822712
0.0792410915681925
0.0811021777089162
0.0792668818278645
0.0812273817869922
0.0789008280173257
0.080784232437386
0.0790621386315237
0.0813519920352695
0.0810611584036507
0.0824463228687115
0.0792984533416122
0.0811994900495405
0.0809908194316502
0.0808015520533201
0.0776237044805396
0.0800192294987625
0.0793313675102159
0.0785101074563675
0.0768926167682175
0.0777118796197043
0.0772919008312707
0.0811085118819151
0.078848098451213
0.0809916457493884
0.0769103139209152
0.0771382617670565
0.0754637442216497
0.0760109759018192
0.0781400569856943
0.0776592955680663
0.0731073266653756
0.0751813151569464
0.0770496207525591
0.076882482129062
0.0760274554701972
0.0772884904828691
0.0736513192004146
0.0760601603660482
0.0743279027384784
0.0763927316881798
0.0735553031068248
0.0757915571971008
0.07522411934914
0.0745251404859417
0.0752365817023415
0.0768330123034074
0.0744591507782087
0.0760141083495343
0.073917763484712
0.0757407779950151
0.0749277310447124
0.0759029689692126
0.0735251318293606
0.0753964112017512
0.0753873264321864
0.0747992040333944
0.0732572873587729
0.0746217827160837
0.0733115513399577
0.0746730030360911
0.0740403219625536
0.0747989417602215
0.0727295050665638
0.0754396353849514
0.0720229208862139
0.0734629997899476
0.0701338204151484
0.0744508768825999
0.0733116228075405
0.0767584136708261
0.0734315418434956
0.0756737120027049
0.0739703363947912
0.0734344708175373
0.0737800967177457
0.0735976948655375
0.0726084490558309
0.0762749385744156
0.0737414212108665
0.072211790259009
0.0711410290440085
0.0711433299180569
0.0722953970812077
0.0717508653088473
0.0694517470848098
0.0720147274049556
0.0707852862862061
0.0707547271687441
0.0704450742815278
0.0740617901175862
0.0695413810190122
0.0702629772346436
0.0708251490882845
0.0706331695571545
0.0721661586798786
0.0719441631458574
0.0698114519336025
0.0727918650563026
0.0729347208195092
0.0726859031474801
0.0708956223500441
0.0724524966028491
0.0685113774098145
0.0720185681991354
0.0694129165738265
0.0719355365713888
0.0664645118481821
0.0710051942434339
0.0695516190650563
0.0685625182662772
0.0676067266705626
0.0721089291905419
0.0675047547181608
0.0706587020485212
0.0690253101220979
0.0694790010992009
0.0677961615622492
0.0696011323069573
0.0670783896346797
0.0697541008767872
0.066746471371736
0.0709653700680501
0.0659979235297451
0.06882184403353
0.0710507916080655
0.0698500301681732
0.0667962216661193
0.0684684481482797
0.0655340664925478
0.0697223184414878
0.0681150095711272
0.0690559529742596
0.0657894564176129
0.0685836444624715
0.0661789701749463
0.0659744648416897
0.0644361510774494
0.0685395740635449
0.0632702706251812
0.067896792500667
0.0644138163058508
0.0649975490690354
0.0619095392967832
0.0681567820591834
0.0646356781105719
0.0658452004435478
0.064699965928226
0.0643939466835622
0.0651806281595352
0.0615710476681383
0.0671404087463008
0.0655108266205805
0.0617949667225316
0.062537243401229
0.0605400514811468
0.0655321761931614
0.0610885458734127
0.0631444394463697
0.0617061961617037
0.061032016768396
0.060729653969014
0.0615165554387135
0.0583823590389877
0.0604375499609937
0.0605767146217762
0.0586232711541412
0.0592390855529874
0.0614690552123403
0.0586202654155652
0.0591117696509909
0.0577741177414045
0.0599673992280148
0.0604119065963206
0.0611362298951816
0.0588969547024115
0.0593680683831182
0.0595392365251192
0.0685633305396069
0.0597331861387325
0.059253034314594
0.058946748356109
0.0624954996495622
0.0570590947068381
0.0623104075170012
0.0572418479639694
0.0587463455146203
0.0579935030070066
0.0593716094840353
0.0570732834975111
0.0606191062757111
0.057321882332907
0.0595047941449648
0.0576736828965897
0.0577253185556212
0.0581250371049858
0.0606828700102242
0.0567340720252036
0.0577479630075946
0.0570704561897056
0.0582724100249937
0.0569957436463868
0.0556294068159853
0.0530435431244289
0.0636620326905546
0.0586652012719411
0.0588768515186901
0.0560850467346889
0.0569232784782178
0.0542379269465889
0.0572155463490326
0.0539051842189663
0.0550807170727271
0.0534778460143066
0.0546287885143192
0.0531184444393113
0.0563508761382261
0.0543376106604431
0.0552616074068628
0.0516889858591012
0.055356348147098
0.0539853520505295
0.0547587139772925
0.054124005734396
0.05624755176044
0.0517316193041302
0.0554666591151054
0.0531318876248037
0.0570636889665583
0.0516173991728494
0.057205730138994
0.0735633157458671
0.0539141871961598
0.0566498981235776
0.0539781850677162
0.0533421211009966
0.0526516075238944
0.053815949087718
0.0532891776554162
0.0530319291015339
0.0526632255607962
0.0548210126791795
0.0531226148837822
0.0521861443796019
0.0547702347498324
0.0528852424936425
0.0550656361868543
0.0524909470284991
0.0528338379606583
0.0536810337749211
0.0525190388720763
0.0552903654805421
0.0630186238520003
0.0561230784149447
0.0539138170267481
0.0561492201119281
0.0471309256115533
0.0700823430207627
0.0596059255925196
0.0511742139260223
0.0557177263627822
0.0521800899766867
0.0508876490073177
0.0513515666264781
0.0546577106006629
0.0505820259505365
0.0586587125366878
0.0504150333191456
0.0577311020595878
0.0493447658632373
0.0536279071400794
0.0513324298534676
0.0552140365680967
0.0502422539471542
0.0536530196213321
0.0530482066703169
0.0517470365233574
0.04913890413944
0.0510332768965103
0.0529068060294523
0.0509641190937
0.0540883978926572
0.0605822515622412
0.0522971773924599
0.0519750200167468
0.0514004189154621
0.0517368478741152
0.0557552953932427
0.0716260403497756
0.0498691034582854
0.0560728685739965
0.0482563968048468
0.0554171771346601
0.053844393866459
0.0535243838406385
0.0495308056489644
0.0535374109360329
0.0498706770800211
0.0551348483269595
0.051145853191649
0.0523819954329199
0.0501766090942494
0.0532088464529281
0.0502571069445825
0.0518480142126073
0.0545351674055318
0.0520411660830587
0.0532568517815243
0.050840165563734
0.0646373452335457
0.0721909963013629
0.0595338534518212
0.0637319612428994
0.0543805644322867
0.0561248807657339
0.0526170827457855
0.0543717118726499
0.0503419219609828
0.0571866400835009
0.05068845765128
0.0553550745308656
0.0520449479212876
0.0550852390646008
0.0479410688894089
0.0554575005181109
0.0491482177298901
0.0554023367635522
0.0483736946333182
0.0553699571506947
0.048502254239006
0.0568275180307075
0.0461475188007255
0.0611184611936839
0.056468766180808
0.0608340872792428
0.0447622003891793
0.0768630701441412
0.0782398132000564
0.058394792072741
0.0593918815498342
0.0522818754831573
0.0545751459951024
0.0545864785779262
0.0535381166368272
0.0590170090602154
0.0546330155794587
0.0530588018375555
0.0542813723005312
0.0570966945893659
0.0558070788809246
0.0494699925877999
0.060317653583972
0.0844436778641659
0.0614053657528814
0.062017582789609
0.0521201897851913
0.0571079417779799
0.0808208280145358
0.0561474920314323
0.0570798824437931
0.0574660712344202
0.0555284069942646
0.0570703440161959
0.0562611011152818
0.0576510365035846
0.0590075606484883
0.0604499016915961
0.0547200395014526
0.0574791805432191
0.0549211986549066
0.0641996254155164
0.0568738235727067
0.0651975423812437
0.0660748196650831
0.0563739088202791
0.0601856424216735
0.0629643403324085
0.0571613495165377
0.060422270091164
0.0581021903879725
0.0570916659454172
0.0641328883936696
0.0713454916343499
0.0592048443531589
0.0725595808477642
0.0699248642589203
0.0603352207780529
0.0626718716358646
0.0675785301569482
0.069510738516043
0.0584884321410003
0.0624327037305783
0.0929440265334741
0.0679128461278878
0.0836443833055315
0.0603341735650671
0.0696080243455986
0.0614840928249066
0.0655072035084933
0.0535309741926892
0.077154310635974
0.0646313008991712
0.0667090318854641
0.0602298035212728
0.0729615264414961
0.0749890402528557
0.0680117988365119
0.0677419702988599
0.0661695644680216
0.0604864582117876
0.076569253783765
0.0692753503302617
0.058907972474285
0.0985613409880602
0.089699092927636
0.084994848443427
0.0772463693399252
0.0651968023699105
0.102820066895018
0.0742836508258926
0.0754170507624467
0.068937561807962
0.0726633311124426
0.0674245185706516
0.0713037795933354
0.101187064285745
0.081074563890656
0.0706087928210522
0.0792498792493656
0.0689097779918382
0.0980900883387166
0.0893833169130889
0.0779297466526255
0.0770359851041345
0.0834282811061145
0.0707928566229605
0.115386257910159
0.102523106991383
0.0913692936019014
0.110298665518664
0.098742147827845
0.0989531465872927
0.091343744224722
0.0877458488611763
0.0958603471095627
0.108494629485738
0.0928815324350247
0.0840322342304655
0.103388939878432
0.116906698081238
0.0925512676574254
0.102418028768608
0.0953871037153276
0.091854990393206
0.124736745406015
0.155264415025163
0.125634984234198
0.104789785513705
0.106551975352605
0.126134665401977
0.111144469116175
0.104404867119376
0.107250665506756
0.104813739321191
0.106623374004166
0.108448345982285
0.121632097744627
0.113315854820132
0.11512170567146
0.112560849523114
0.11348503399031
0.138161428768692
0.162568883683406
0.153174660866916
0.131836826082231
0.149778890452961
0.141212216675909
0.133441597865885
0.132102619214303
0.127376760677425
0.13526268341941
0.13374428582048
0.135848084594749
0.132871168385763
0.157883243598942
0.154291597054119
0.157621894463464
0.171988951926128
0.149584716912094
0.156672508409583
0.152226812023175
0.296285663693948
0.197623430483598
0.183652767822061
0.181992627328686
0.190804553735261
0.261444006381005
0.209845514124432
0.201608634671126
0.209223285953241
0.210764001040314
0.224851942817989
0.23365689945491
0.24149252262408
0.258908840513415
0.254643013941591
0.250210841040023
0.278327620549127
0.349400876534804
0.33001094181128
0.309390418165247
0.294104481805419
0.322866212137293
0.328266693322946
0.319102778092751
0.326624077497971
0.33137317070576
0.350292935944807
0.414117831592161
0.366158717263608
0.368676646029454
0.379306218269769
0.408892550954638
0.392688449972441
0.449198782196847
0.449201443812923
0.422729176452175
0.433703104180706
0.435943562534749
0.445826630020047
0.450403896464908
0.492709973868162
0.486120260269928
0.478638550113276
0.488739107796069
0.485726331084206
0.495722032799059
0.501777280697006
0.513676969672013
0.512297359614156
0.553476117969034
0.569633439901122
0.669193228767067
0.567501904459826
0.527002135764553
0.53207336405353
0.525705571101383
0.56065666502624
0.555617951281464
0.579797591005097
0.575118392242045
0.528992787572276
0.541868408928975
0.539277684085453
0.535374514981292
0.54109963755693
0.548812738118673
0.530848806326014
0.555157294585272
0.540155098010804
0.576310070276787
0.634181553506849
0.550353049570562
0.532468933665819
0.52935412666086
0.528052291551693
0.525728784932246
0.523883885724469
0.532156085097165
0.545924043193455
0.521165648632765
0.505753109315963
0.498795492355658
0.518486237850257
0.518797838016252
0.486891014160993
0.475212104717018
0.465702572386672
0.464531668134749
0.455108377920335
0.470858731153811
0.508024283329627
0.446616290622268
0.439251048619854
0.436487245590363
0.418340186018249
0.424112895757807
0.414758000560756
0.423842443351818
0.422997134004344
0.412666447880816
0.414247473793849
0.41051474591856
0.400660726666738
0.398194777113641
0.403812530125953
0.399410612863674
0.394796407045744
0.401172503864328
0.393666757913022
0.39466996551965
0.387846688304934
0.392543346517298
0.390686264095656
0.393979717258328
0.391208664565213
0.38742701090828
0.390857782654545
0.392141813364811
0.387456143458533
0.38923498772056
0.387929727065731
0.390549870790429
0.384840629744762
0.385918236497819
0.387219438269953
0.388324860500483
0.386608692339835
0.38778193722606
0.381877440682962
0.382932045388339
0.385418131977962
0.381705580171721
0.378530577311799
0.431031761868945
0.40659223883244
0.381540499589809
0.383569323441251
0.37839494359393
0.376882000595831
0.376991553907244
0.406649327018707
0.406037374576612
0.374749609311564
0.371946911041745
0.36702447692667
0.378395492553913
0.377503505701442
0.368950980582013
0.369033121545808
0.360728240107355
0.403996406107045
0.45859377896837
0.422994152248513
0.471065096131396
0.385311192313833
0.361607760950682
0.378872862813955
0.408833574010247
0.372669201055742
0.364992522222933
0.372869610803995
0.394311553123558
0.384732148741784
0.372576871449572
0.369191466500688
0.36484994526261
0.38089382053939
0.40308797620718
0.371325964933463
0.376389829472509
0.395260372061928
0.370531634258676
0.384903446262544
0.432831234442824
0.389879517413404
0.347273139079461
0.348005974036203
0.346606726082873
0.352935004604986
0.384313707596022
0.34887106932161
0.344590044564973
0.330955365270564
0.320116792693726
0.329689498280274
0.340845060835617
0.330054607503878
0.326448749983278
0.343976673857748
0.320695488268841
0.311565924544263
0.33019366166845
0.342023761254099
0.36140264903872
0.312215729796192
0.296161560499343
0.325635616261614
0.335101029362823
0.305199365922525
0.300737433476348
0.279522050465782
0.2879227281948
0.302497492826973
0.279338181001976
0.277868662098316
0.289568280598123
0.290910973609775
0.314398316729071
0.326818085118169
0.311556867127828
0.269208718530245
0.249406543348308
0.249482199700037
0.257134695560129
0.247056080212363
0.246475863849838
0.259135508271515
0.258476038692169
0.249853579776134
0.282903557095153
0.256129057328135
0.247872268020181
0.248988802509372
0.244472170625253
0.256853118282949
0.292333553331861
0.291006729830542
0.265756795656678
0.258087666074637
0.275426085816662
0.26246984068174
0.261633030499991
0.262315328161787
0.264945023504327
0.270942768598636
0.280091613619374
0.282454209269591
0.283204576825798
0.28822419341048
0.296099183253027
0.318164272915818
0.330037113261406
0.315316855683628
0.332171880144637
0.354173549168698
0.362623438197291
0.35740310689065
0.340782527838657
0.347529691507656
0.352932306211585
0.360805726375543
0.360281083864932
0.375138576234307
0.400005497934515
0.379409911693688
0.37818065138342
0.387751342793712
0.379534884460303
0.392254835950488
0.415551952526605
0.426770448786206
0.452366081205816
0.465283096129185
0.423412691634905
0.416280874380289
0.411961050055436
0.419796721663711
0.42283087995572
0.41672104812971
0.415357929397509
0.421184871318279
0.444262271623497
0.432320360435458
0.422203229415937
0.426681632881328
0.429004194066656
0.43507051775067
0.433668309956928
0.433954779720233
0.435861653188416
0.440317747506403
0.440573037034029
0.455440616170181
0.501561091988266
0.471857131071088
0.452973074747609
0.462325478230307
0.462318100987816
0.461823761200804
0.459893413956095
0.475524938830167
0.483749406068484
0.477558465955507
0.47337503900614
0.477966027847819
0.476356854926265
0.499277875157517
0.497359464071362
0.494279992306703
0.494942448050649
0.492683134379874
0.515394984506901
0.544925503925226
0.512409222630049
0.507460358545929
0.508912004771794
0.508353260475286
0.512551999303722
0.509320992371243
0.520065138462767
0.514985139404306
0.516621292793983
0.516265702210736
0.515489011815892
0.513317262960221
0.509414634462302
0.523517767736895
0.536696169907307
0.518900986417637
0.509239376310737
0.513299686448185
0.510066368912834
0.51374277275687
0.533689271681261
0.531955529795676
0.517037801179859
0.511098463463563
0.515826704935655
0.534524785337457
0.52469716703647
0.508441283348273
0.509468645967362
0.513485439177903
0.511743041234233
0.505868209428913
0.513777000151525
0.528571653438923
0.526061993297948
0.515598036387203
0.521638184309056
0.520155260068674
0.524845030525003
0.523822435785572
0.526280980660499
0.530246517214542
0.535495401420699
0.534200791406779
0.533483830090347
0.533979764580296
0.545657242727039
0.545448090689996
0.544293430284435
0.525913805626728
0.520613312532462
0.524746640300377
0.525276691446835
0.526466840359015
0.521336800582638
0.516683304225209
0.512482603353554
0.500117906458563
0.508796960197132
0.517749564283116
0.505473446501768
0.497630134966239
0.497280545151678
0.480150503838539
0.482712339542113
0.476244545546452
0.473756579724967
0.469653599349612
0.474791868522578
0.466584642060824
0.461826195002211
0.463602676294299
0.462749359950651
0.457516607457447
0.460084366762413
0.459375290413191
0.4578908961793
0.455795775246913
0.458104696198872
0.453198402226827
0.457769946604493
0.453911143456448
0.452937225048406
0.459617042712698
0.469386964929919
0.462070595792463
0.459347012749104
0.451591094325278
0.453802231303606
0.454153198733898
0.453382369138892
0.450410461984892
0.449136321172402
0.447545266613359
0.448721169139731
0.452835394399182
0.447475233332292
0.450296294783744
0.453212221013985
0.445574188269236
0.445817881551077
0.445992933053345
0.447351934511007
0.44757809663907
0.44830237730766
0.453416545817081
0.453756425899569
0.450224074851083
0.450023391036741
0.453026620243742
0.452908694825937
0.448238526107292
0.449190164678203
0.45091462893013
0.448505007862781
0.444771666940411
0.447403854709168
0.448658042260629
0.450893930868445
0.448775179957643
0.447831589138857
0.445118230747088
0.445293930226831
0.440483591215029
0.435491662012807
0.432932500557732
0.432036540030536
0.430265504704754
0.423447071490536
0.422504678583836
0.421881262272416
0.41602248679515
0.410218335222579
0.408341266509983
0.409622380342969
0.405079556709906
0.401506658738886
0.397449463340407
0.395369153322702
0.394862327210003
0.395630212662854
0.392907227144009
0.392954137233123
0.39036097155772
0.39138733152288
0.389463595179965
0.389609768787417
0.388604244045998
0.389154360765048
0.389999439965658
0.387358383728315
0.388071559175378
0.391108511886012
0.390839591531908
0.395186430766287
0.393307522861051
0.394358941473449
0.395639674168424
0.398117458927434
0.400330499327595
0.401638118985639
0.400130928785275
0.407293880935408
0.407577690592328
0.409948609734954
0.407773687601134
0.40949110958926
0.411534956446175
0.413759469257983
0.4118808062416
0.411939214441891
0.415819928593654
0.416867093125094
0.411875784277853
0.414883035027995
0.417527360347653
0.41437281723563
0.413122101552711
0.412260391806312
0.410049943421414
0.41167215431564
0.409571672236043
0.409281698856092
0.408182335918695
0.406017269059709
0.407353716281189
0.406951531414872
0.402233868441094
0.402186059859086
0.400149184352629
0.399069087293343
0.397118171607236
0.39500466321777
0.393397108816655
0.391928243860196
0.389790610597361
0.39069515483022
0.39007647080762
0.386593888326628
0.383732228586796
0.384285397435426
0.384693483598687
0.382441656749634
0.381039778057037
0.379450742488749
0.377179633070584
0.378795231098285
0.377566509707218
0.375089229171568
0.372729263790774
0.372752932582048
0.367470359052129
0.367028034347529
0.364933726057786
0.361551689425276
0.360000509546159
0.359084755962342
0.356158474719864
0.351974037192011
0.348752766687789
0.348307697121791
0.345649463783027
0.341780598546139
0.337885354085494
0.337798836858989
0.334166643118296
0.333517930026273
0.333701563366603
0.331757157901838
0.329066758722512
0.328830425436295
0.325461797930144
0.32669489034172
0.325769695374055
0.324273610804113
0.32388211111031
0.32245957419749
0.32122026870535
0.318916970841317
0.315133509966433
0.312382734692502
0.308771312008943
0.304834746664471
0.300866815562338
0.296048690390285
0.29453754905601
0.293208321566535
0.287986551152367
0.288635275151615
0.289002067019689
0.288380011993098
0.293381279087459
0.295119630517892
0.297846241590796
0.305797871475084
0.311206476152212
0.320612492880286
0.329181136960113
0.341441524527969
0.353291474038332
0.366325153534835
0.379147302596738
0.396724099686697
0.413174810897044
0.42450193034113
0.438729064836332
0.453130093546801
0.465986187615243
0.481140665737996
0.49258371152761
0.507762351132788
0.518271409143237
0.531504272865343
0.545952042537765
0.555214613935821
0.567972735916748
0.580801852920934
0.58950791646125
0.598825156386483
0.60877467312077
0.617058470899837
0.6234261004045
0.632013058458856
0.638839115230355
0.642709306934388
0.647739891045709
0.651074583120948
0.652765593071099
0.655665187248067
0.654699041265709
0.652547206139069
0.657618467501612
0.655484228140205
0.653315255155059
0.653966634052833
0.655874235694126
0.655963975234169
0.657577087840023
0.663209898310712
0.664156649869764
0.667251857545326
0.672277064248279
0.676167298559739
0.680870271319667
0.68439160966667
0.69109549790789
0.696935882705452
0.697109838669928
0.704815552571309
0.715144767668758
0.71950988137039
0.72365428118981
0.740055527075734
0.750133690223215
0.759683405185307
0.762502861724931
0.775952312534355
0.792555406666255
0.803103287866072
0.807784772670653
0.815797018174787
0.832921941516766
0.831637940305369
0.827987592626095
0.83937522472228
0.841293989157191
0.838157732487271
0.839735831466176
0.841026921600837
0.834404871304944
0.833385538393871
0.829992851554966
0.819754783056247
0.82061205858246
0.824989893620963
0.822808587938895
0.827758908144668
0.838511244277361
0.843906650817969
0.851529922524782
0.865462213437744
0.875030502736724
0.889964338031443
0.909377078012402
0.921207501136343
0.927543873410663
0.943908679085737
0.960441729981482
0.980038175208625
0.979204467750775
1.00178802672136
1.01143987316035
1.01879224076918
1.03966245597145
1.05679637680445
1.06381263609106
1.08186152535346
1.10863456884167
1.11742483080496
1.12291871709853
1.14572020886931
1.18273819262232
1.19764745052038
1.20661244798716
1.23917325465712
1.25306006193542
1.27119004635467
1.27894062132988
1.28173685994732
1.29517631812088
1.31183833225827
1.34808937036174
1.36595095031393
1.36754240664325
1.36580142632836
1.35514916558559
1.36214380811778
1.37005852791543
1.38835532576422
1.37470699759413
1.34880803545211
1.31882634211866
1.32923706484807
1.34999545630949
1.3407057802344
1.30234980840528
1.33065023639491
1.3229631242511
1.31924617300499
1.31913352353587
1.31045280452067
1.34215661581098
1.35002624781728
1.36654188668464
1.40772621294625
1.39870589232233
1.39872448835554
1.39066306642498
1.4153649820982
1.42260565532245
1.43915888656831
1.45261409386387
1.46758487567235
1.50368568341763
1.47320709122327
1.46605000609421
1.49748219498527
1.48533834347501
1.50018281126111
1.49474633904693
1.50283095640199
1.50948395957131
1.50168517596119
1.47924129584697
1.51835547979836
1.51810348641187
1.53857665133647
1.54316525821968
1.53156396977819
1.5487875311703
1.5028156143555
1.50438351552446
1.59990611674187
1.55227918807127
1.51145518087253
1.53425450512919
1.54000786554974
1.5344470081741
1.5289769434688
1.46604943072301
1.4553915045741
1.46181695952941
1.41953810974922
1.40371615056912
1.40945421822757
1.37511337767996
1.30402435642822
1.29449217940441
1.25741217894068
1.20369606552418
1.17460409353939
1.12012712916471
1.0974626188453
1.05245861431498
1.03241904142333
1.01426859842017
0.985050962015599
0.982494985300026
0.983909756057538
0.964128692597728
0.955145323933823
0.940477027319
0.939309000389028
0.935972176776917
0.916941224954369
0.907018622961233
0.904745625721327
0.889033720174888
0.879536697623779
0.880828299737654
0.861544555696309
0.843732463906535
0.831608031587655
0.821926195309665
0.81195458253777
0.781046573183689
0.764505988554138
0.740804406870314
0.710934729943088
0.703152862665317
0.678419978364126
0.649449576778034
0.628319167334272
0.599847101084216
0.574475088071429
0.555331062660326
0.525153795992811
0.499361356956503
0.485866616099738
0.464447956723577
0.442508732244669
0.424697927496296
0.417656888445147
0.402944927194808
0.381003335718155
0.376428410998864
0.367984636318167
0.355726457273899
0.347369578985114
0.339671503298369
0.33760653711802
0.330012028080861
0.329085778576627
0.326395794291797
0.322042560482787
0.322007401388733
0.322989948539362
0.320241924146662
0.320229556449359
0.321181596538018
0.323331421559342
0.318296610362187
0.321604700776097
0.326307661363505
0.329298091942256
0.328313488337061
0.329460083280033
0.327700767743361
0.32974075019402
0.32821847024186
0.326068944066491
0.326015361286328
0.319841629877563
0.314030648443248
0.312883715720952
0.310302896867658
0.309798031600624
0.308712146490395
0.30874241024755
0.306112364557714
0.30390167568717
0.308743381286068
0.307763160290434
0.30888774653255
0.308600408627625
0.309197143060097
0.308645235705669
0.316430594131184
0.318152804065422
0.320891384544927
0.321653061194655
0.324388809987101
0.333859437312937
0.332323924569251
0.327639269431756
0.338690122070138
0.336953790991786
0.336894244511784
0.337585681143486
0.338671898032654
0.341624126277372
0.339136569030583
0.337469892819656
0.338762750893876
0.340553839479894
0.340851190567048
0.344909020016127
0.344805738881471
0.3525527244573
0.352282459169147
0.360434480882177
0.360229234788973
0.366227983239449
0.373997836698405
0.380715925409466
0.392105126678873
0.405101959756507
0.41480299846676
0.432111978891633
0.438889102241708
0.445729375675455
0.452364982082114
0.462854344861612
0.457814416689985
0.461376509727293
0.457330065354111
0.453769128857287
0.450412960023203
0.447895165743388
0.438339903005446
0.436366738015497
0.425976655617346
0.420477114599681
0.415162070555266
0.415583103935921
0.405580504079073
0.412481175884752
0.4143637963773
0.411596378019704
0.409939071592653
0.409383401427687
0.410417687692153
0.410355660078162
0.402981923907666
0.406666619003793
0.407437375547921
0.405866743636987
0.392511620253355
0.389078102802827
0.392914905731462
0.384495955773085
0.371679155100702
0.378192281261878
0.382623095212814
0.374130844677799
0.37229034933398
0.372648556768666
0.375694926061602
0.366848808784656
0.357815120692344
0.362497060307504
0.366728493327472
0.358129674468793
0.359553890982416
0.355842580025149
0.34909530383071
0.353103035400759
0.350850337643226
0.352785066310717
0.349639697149345
0.344664920348489
0.345485076071938
0.347937376611231
0.340104928758061
0.346871958808253
0.347252930113039
0.348257424693333
0.336467087075338
0.344662421330159
0.343426999507195
0.335478788256197
0.336385499674709
0.338080437497109
0.33626647665814
0.332269714965475
0.326555944313748
0.336393315194644
0.335273712311351
0.335209789539896
0.332943466318816
0.335154263632233
0.331028723291143
0.330908627860576
0.324532927338982
0.327053161605752
0.328669171350251
0.333244282539089
0.331306725611104
0.33711883566797
0.328332258994897
0.329322603573145
0.331729933249088
0.344607510156548
0.340179090719191
0.337110769952363
0.351134728749213
0.345606497149147
0.348532174764529
0.352688913221008
0.337401669662415
0.339315022266061
0.354170508293052
0.356161747367062
0.347987815048201
0.373813381371515
0.37237867844564
0.37238956988306
0.379834517683131
0.380206253614321
0.382843180475393
0.375628710220383
0.387791039623479
0.402022923361308
0.404317626531797
0.429348539320907
0.424397880379548
0.434039796443307
0.441384684504618
0.449644315883542
0.464118919083321
0.477299924551546
0.475760882686439
0.502211150584815
0.49323978715912
0.535024363560564
0.539272031727047
0.532556542128168
0.544160337141114
0.578830984289749
0.576126268867546
0.575306298994685
0.552930628388488
0.564544075948253
0.551051744916958
0.562691956534488
0.56263840178021
0.576795600837904
0.541061480987201
0.543375005657793
0.54434144122398
0.568212227887253
0.545921924257849
0.552067086865568
0.541775719044918
0.574022176168497
0.531583596486249
0.545903989969292
0.547218857086125
0.54451207250672
0.517622808805231
0.552132617463824
0.544684251000742
0.53406956159336
0.509150469612898
0.532009197999992
0.526361396149542
0.535495112441489
0.514461148818475
0.526147014679226
0.48736374077453
0.499222177397772
0.51285737899126
0.538300481344219
0.505758025617129
0.48709735218068
0.497968175444344
0.4967676544046
0.503676415494136
0.479983310684451
0.486089716590863
0.514604198464689
0.515742802916391
0.511991867704042
0.510065596931915
0.521023881200213
0.505146188950844
0.503832196776086
0.53513298645141
0.505343492222347
0.512748135954097
0.538170693588688
0.49788618487146
0.57689931001947
0.540529356403417
0.52862929733911
0.491347807125468
0.521030647552586
0.534343316469183
0.535010698317468
0.488515161815243
0.551420812336417
0.544066045657247
0.556047866589943
0.571118270645994
0.581122851164678
0.514460429657699
0.543763232315797
0.547191463525917
0.566909288752283
0.534709890837513
0.595789792926621
0.591675089638446
0.60190165066586
0.617233222619326
0.694084315864277
0.653620005505736
0.650746863706204
0.630399798362499
0.664597071755397
0.66244532961712
0.663391654283505
0.618898499983203
0.658006883684352
0.664162378801936
0.788386002481434
0.674473704981884
0.657327309157394
0.668462468575249
0.715800375908763
0.625983251151451
0.713248742722649
0.705198959006531
0.690431409344802
0.626569347573678
0.689279696274452
0.696494482455111
0.696165398658437
0.703079310594075
0.696561087290909
0.737551498071122
0.764763097800117
0.631431824855557
0.766577211813064
0.66271924443284
0.588252995440877
0.581550707552436
0.703087149501568
0.582983646496529
0.821858717623212
0.749505097999926
0.581674693190926
0.66433158996647
0.816738862113966
0.655655548355829
0.713608546910529
0.573630618244126
1.00572558450838
0.794108382475701
0.777803129898634
0.701001951095274
0.867665810514212
0.74145902209958
0.736162031690384
0.613720648167847
0.66878435400538
0.414461819006492
0.474068789646322
0.81836401793756
0.918395423322786
0.584228766000302
0.661290545662216
0.611641288729498
0.735214643369067
0.887252380661993
0.936516606033605
0.486046959671912
0.633261472049612
0.629588858851325
0.56075966585725
0.524347513507402
0.772302451117264
0.522151330133957
5
0.761933934814026
0.960390165924373
