3596
4000.36533379555
650.420452594757
1
2
2
0.0723114766050264
0.0621527744662268
0.0791665155817699
0.0660047727746497
0.0729619223052202
0.0652789088270933
0.0723504802376741
0.0651224449633509
0.0732147646446872
0.059233665742564
0.0781715062840055
0.0615288619703495
0.0791623838762069
0.0625471417018818
0.0678327330800853
0.0610515951636966
0.0659696824682877
0.0600865832704613
0.0740052676591591
0.0678331157240796
0.0668039805718509
0.0573877260021301
0.068185719268029
0.0603066607547398
0.070457153343383
0.0617344099911437
0.0746758251745503
0.0617024631786986
0.0712364454657775
0.0651800225706056
0.0742378343152871
0.0590870489671824
0.0779541482913336
0.0659069469965203
0.0668335403473432
0.0610915860668859
0.078553620381169
0.0603027880238611
0.0717818140895656
0.062720811759745
0.0773888253508696
0.0606071973138234
0.0774536401370431
0.0599938629520609
0.0687149226264899
0.0687209895501327
0.0718606513025692
0.0633392141179527
0.0720500956124038
0.0662923927064614
0.0820044941210423
0.0620260466009493
0.0784872042876659
0.0719588015812277
0.0729163601728313
0.0775623215017245
0.0842626310580285
0.064038330458541
0.0680504089778337
0.054388799268954
0.0826524411160162
0.0756333197471838
0.0607347488689464
0.0648926678479898
0.0713024108099577
0.0628937581072797
0.0680020709619012
0.0632906612073471
0.0677313518492782
0.0597337400640027
0.0641487214584304
0.0740196265307698
0.0901917024098182
0.0626394399296895
0.0748125598840216
0.0617258366921441
0.067466015755076
0.0551810294759924
0.0675912834742915
0.0684671691924625
0.0848441314579741
0.0655134790913854
0.0705297317172266
0.0500008587593651
0.0663627908991805
0.0780660067734501
0.0682095353409436
0.0537726209938503
0.0913851845960366
0.0671131604081451
0.06566243621748
0.0587844747463715
0.0760152019230951
0.0557559649844132
0.0718512315411885
0.0569556680093802
0.0710452418605762
0.058771676882864
0.0638504652083174
0.0611778382987622
0.0875422008651195
0.0466473876835776
0.111116983772829
0.0514586428266683
0.118429981689027
0.0813216525555603
0.047268531520255
0.103973218194363
0.0796060665112426
0.071858946557381
0.0545500621756997
0.056324406562315
0.0691837894311872
0.0671790123673519
0.0575500548931623
0.066324245028552
0.11075486202898
0.0611727300817534
0.0646393906437176
0.0650983237989204
0.062063080083674
0.0660978491681999
0.116711806224984
0.0548992055326697
0.085979266252284
0.0597398562739128
0.0575232675925997
0.0777804245759692
0.102988955779066
0.0568086856923555
0.0760507896453286
0.0483182570657943
0.0728253767733193
0.0417998479768546
0.109951462948707
0.0692645657643472
0.0684479300146778
0.040845801586053
0.0796301955951931
0.117178752821424
0.0846822666580115
0.055524121488416
0.0586553770496047
0.0525452432908413
0.114787817103331
0.0670348580648537
0.0583583709699364
0.0700983472329306
0.086290241611348
0.0520789295203856
0.0646627107013553
0.0472772748329711
0.086400972994427
0.0665420377556024
0.0443002145130064
0.0695883011215296
0.167523144252304
0.0175092057156399
0.141131878641786
0.0533106230791701
0.0748059952135922
0.0579045781371923
0.064749907744353
0.0530394223264167
0.0691096201682635
0.0494072453268209
0.0680428333389335
0.0958929946420124
0.0687602704487753
0.058690445387391
0.102414070976857
0.0772516885894773
0.046901167566492
0.100061242247094
0.0901736891870863
0.0354055534617882
0.108466825044629
0.0715410781162482
0.0584684862319588
0.0509119262548183
0.108573131222871
0.0490833329960533
0.0724862769732458
0.0486700864906279
0.0656864822857252
0.0703874580297412
0.0797324883786975
0.0522264683300973
0.0734923916743452
0.0365407845569948
0.0869181231059467
0.0945467551646632
0.111311201657665
0.0552347692147094
0.0810829650327688
0.0181242067351048
0.0886940562775864
0.0956530806911039
0.0635881886022001
0.054650649460292
0.0628270071212249
0.0470477004950038
0.0649379753111641
0.0478843039684404
0.0608796774475492
0.0173458552360171
0.114387207172087
0.0785322479897645
0.0684254940832124
0.04914096579063
0.0659221040681701
0.0410327225120184
0.108155757323649
0.102000717410834
0.0602054862556783
0.0663189507151273
0.0542703195797827
0.0739172306233897
0.0887193364324069
0.0523761367581585
0.061853478533817
0.0586085164596612
0.0623628321634318
0.0553353116946911
0.0659899216111162
0.0632632486287012
0.0629894834068982
0.0557485119684047
0.0653856102495117
0.0582392943396344
0.0705289704034923
0.0655761110999717
0.0675666718251489
0.058205641073872
0.0589891958271515
0.0598976254749905
0.0991307752708927
0.0616550062325435
0.0675153822512413
0.0532952099931577
0.0665783126537629
0.0498544501302465
0.0683272000202975
0.051218746728911
0.0675904828685092
0.0354907059859704
0.102897456758409
0.0644459982735649
0.0714213689269893
0.0519466087117085
0.0819287035232927
0.0816844489717717
0.0622708448474996
0.0615386537850505
0.0614822264820911
0.0555510944835856
0.0537174039860704
0.0845766394232479
0.0715916633209475
0.0538179534289558
0.0803781263323328
0.0713280702071339
0.0553839403348983
0.0653030392953143
0.0386872915205132
0.12886003838361
0.0852611199969951
0.0343430869243364
0.133388929307695
0.0821109667136578
0.0728198461116059
0.0725862265084395
0.0205851067193311
0.162688676341635
0.127806992645322
0.063008120651251
0.0809563302002119
0.0820884026544776
0.0671629149541111
0.0587022235619085
0.0777999560393135
0.0446362577403743
0.11305724359047
0.0992739227352062
0.138747768688693
0.0447433107160501
0.0973859008567736
0.0994841267200161
0.0694935449187537
0.0701811980185911
0.0698199759258995
0.0621242370320954
0.0806705436881219
0.0838528933151932
0.0798474006522046
0.0779869119659532
0.0564568280169628
0.0954513682816723
0.0772331353136669
0.0609518792941265
0.0721434001215224
0.0758088201133287
0.0640217268044862
0.0679204886939938
0.0627615132808101
0.0770734706105666
0.0757499318023317
0.0442198177111073
0.124830187340452
0.0948837488987319
0.0602428987109957
0.0996719690961834
0.0816327694207409
0.0671279949824122
0.0681061936535162
0.0636540711444063
0.067794896786879
0.0626268831883121
0.0584430202458653
0.0975587701042744
0.087273888067152
0.0604957662185009
0.0720389812140828
0.0624177872260062
0.0713817974564185
0.0668532764848817
0.0699836404425139
0.0632511750343102
0.0797069944242164
0.0624451680733011
0.0968747388524495
0.101972469770067
0.0500363147826808
0.0928405835491873
0.125641814965796
0.0714269228443411
0.0862676946425488
0.0673406838638119
0.0867854331439575
0.0713576895924248
0.0828228470009997
0.0725028320071084
0.0815482438264961
0.0927830922222167
0.0969348343318127
0.065295976246478
0.0812285225032886
0.124252053073373
0.161601852185233
0.0977356822639754
0.0970510226966607
0.0642834567069206
0.106112576218426
0.119935183396478
0.0941876476284351
0.123351257542598
0.0912966143041129
0.096126551490161
0.0920865309779937
0.0962149017039773
0.0890267279074429
0.0890344251673763
0.0956016112940158
0.0974858759360752
0.0995239345854278
0.09544383388404
0.0989486228463035
0.0901648652342874
0.149309728893358
0.116557471750902
0.104440079357159
0.105922811085126
0.101374045804034
0.114341062332812
0.148932658302786
0.13873431681083
0.155177925672586
0.115759221999309
0.1726895739343
0.115832509085247
0.125520859541682
0.112153422574712
0.1261341239189
0.12017222983228
0.127607456461276
0.121718673856826
0.13111287251661
0.126771624726645
0.146591986753083
0.123600117040212
0.140791287507871
0.122130387513521
0.155483664909979
0.132874431278536
0.135334616643645
0.13214789725187
0.158515512718967
0.178683535111598
0.193568311926609
0.161182866314046
0.151771585228704
0.154720765213875
0.14106796645019
0.16045630967159
0.150211875140873
0.161526208643414
0.162367464609345
0.1835304245903
0.201656128526068
0.174110732248366
0.189884815133034
0.156987768905359
0.191952098735122
0.181839870784459
0.18997700617324
0.200982862419893
0.19297688669823
0.16434267578605
0.191560984431843
0.216643801624891
0.191540283838439
0.204434562010416
0.195604960512345
0.190933980183127
0.196685696790271
0.198086956676502
0.208490675408991
0.211888127818691
0.207472010667416
0.200305983929017
0.223488047846138
0.213599599530695
0.217182514271063
0.221245483689969
0.238869684693625
0.219577261907677
0.236470562641175
0.215290302610643
0.232226926956801
0.208565332018796
0.248415314462556
0.267403936629964
0.253930428296611
0.272205224114914
0.246366917707096
0.235239767636205
0.256009550839173
0.242108992217397
0.247041957070563
0.25821252186919
0.263101176120148
0.255310911950778
0.269630211630395
0.270608604344945
0.273653892332234
0.269421317970522
0.286325065020447
0.270688652077968
0.28324519843914
0.27253734687979
0.289136247979924
0.283294466910412
0.305502720662716
0.316148942815143
0.33328364533964
0.339590461389189
0.30904176896424
0.311561837384285
0.305293178619718
0.319566813531326
0.335120843801728
0.327533529904258
0.321731860984854
0.319684932768013
0.337698401661701
0.341450771603613
0.33952813607054
0.336887728607408
0.355473938478588
0.344569161361809
0.351080550014692
0.348705151199981
0.354847074145997
0.348604718808269
0.363153808000913
0.378257248864524
0.383836378719554
0.372693565047701
0.389381416937837
0.39234273368705
0.387607406973735
0.37350434208949
0.382207821686357
0.393562376791028
0.404587100063173
0.381709402641671
0.409379042804782
0.416232826496481
0.416365029790518
0.410054978260301
0.404925206708233
0.405327554221559
0.432032827558163
0.434262002447344
0.441825170482078
0.425523248235702
0.452075171004028
0.448987285226606
0.450672554117818
0.450584826790579
0.447129587871849
0.450466584901385
0.471995996718554
0.455080340379576
0.473171690920342
0.473887887489933
0.477334612062368
0.470164029864873
0.481937964908094
0.497668500257935
0.480415430105976
0.478612878609743
0.512934766726752
0.500105022602936
0.507308492039382
0.524668462412436
0.535373403377266
0.514843330912466
0.528567844505157
0.514365460466226
0.544823112614631
0.547096555289909
0.525811071367801
0.530647731014392
0.558779576786201
0.537176803147208
0.551920990497332
0.540362729944429
0.5515457487622
0.549461590779755
0.561681094038506
0.563163496592622
0.572604042611062
0.558402799000863
0.588880089197156
0.586762864971029
0.595418797058575
0.589227529909275
0.601585178737155
0.605277619926334
0.59476597946912
0.604647449407691
0.62328441524342
0.613863930451553
0.640968677871006
0.62839668334813
0.619882407664124
0.626497123161993
0.642410302569089
0.636296254739793
0.646172756680761
0.646109422323089
0.666988018801816
0.654749528109218
0.653141096452312
0.667757551826033
0.66068243601233
0.645510439682817
0.669524016564888
0.650657877138715
0.662007590463265
0.685123017488104
0.680693869644465
0.662885099767249
0.69205676078835
0.696988762349609
0.707926907964347
0.704900787627458
0.704384265623443
0.744913312741725
0.739799005514429
0.708125458737609
0.730477487962345
0.729509419634419
0.74559090857366
0.735554797838658
0.723742269197569
0.739407568532323
0.754241558508182
0.752728786674311
0.739028268402609
0.74095597251449
0.792560773200647
0.778676081704304
0.756304018358136
0.758453811728058
0.779392059840443
0.777866452396776
0.783654277240224
0.810348013975731
0.78346559151327
0.756769510293083
0.770545331762539
0.800404701999951
0.820869042746865
0.805901474972307
0.825387411016287
0.811209350003878
0.804769272672554
0.825362907651122
0.832136553292423
0.82998205946326
0.854787194153539
0.855087467975837
0.865366935110091
0.86871487677682
0.844249539691062
0.853759411664944
0.858755396732694
0.850879633256874
0.84231926472371
0.845221725426474
0.859354920148424
0.866225616823017
0.850733912529624
0.875079290453621
0.863103085158636
0.852621266917054
0.901522247301061
0.891289694750909
0.892705939051522
0.892762499839973
0.900460046555405
0.87585227857877
0.874873916620476
0.904951947927583
0.899744698308896
0.918875519238628
0.894867676260826
0.914363951759162
0.964626297026127
0.88417546221603
0.888279802031585
0.931412371171094
0.91045226917506
0.954090926864286
0.98975202656676
0.930536908962179
0.90487948035219
0.948398981171254
0.917745343289532
0.916006395190199
0.951464640057445
0.98496556852973
0.963324520356193
0.9521474798013
0.964727560024918
0.952035986625565
0.952051701888521
0.95747878082362
0.947132713944524
0.93685268564899
0.944123573791343
0.974795486954887
0.950096027765369
0.941373297277241
0.963347259819772
0.982031600358757
0.998091696221939
1.02075969594412
1.02439970681541
1.01788499746759
0.976924549676681
0.994980476805601
0.993031130649531
0.956660664539926
0.975330831531028
1.01391839992433
1.00605072456405
1.03521491521859
1.03042245091844
1.00196804263039
0.99792537000687
1.03336923799624
1.00687625927495
1.02254052958048
1.00740835122072
0.983402407131911
0.999011634658982
1.02117755113263
1.01497862692464
1.01775893011367
1.01952797364597
1.00959207555
1.01243658751918
1.04576723194686
1.03586506798516
1.06102332138174
1.03549742290715
1.03253026716481
1.01748565245459
1.04781129916778
1.03220349985329
1.04044850422465
1.03555456542971
1.02376194582299
1.00526931687819
1.00465545898842
1.06319589667228
1.04006553871761
1.00102238824507
1.05383525807632
1.0394414391258
1.03907678640131
1.07274118219242
1.0526126306695
1.02966032712069
1.05249833950803
1.03680334717744
1.04206925120537
1.03362589904034
1.08977630230794
1.06368605907588
1.06143865218135
1.0177667949115
1.01771614456829
1.05353211989395
1.06231176604167
1.04575045366859
1.06084834101713
1.06154728971387
1.08114193763219
1.04924084934418
1.04721283763937
1.03694476915868
1.03271900017711
1.05473451249865
1.06522743678103
1.01899998452492
1.08087389292989
1.06739203302862
1.07202572184612
1.05300163671633
1.06521744287765
1.06983541931416
1.05138973563935
1.0293808695206
1.04122924803112
1.03762300493342
1.02777466366041
1.04920545361387
1.09701195323073
1.04947635036815
1.03550166065504
1.03937018527958
1.05859082624198
1.06751092987038
1.09025514748839
1.0592613569896
1.09040861800334
1.09818158124349
1.08645941195194
1.03961359485642
1.0575806146605
1.02328388945102
1.05027078969055
1.09049288564477
1.09907493795196
1.05691647551861
1.07062191361639
1.07127566228777
1.05951357726762
1.01425548208727
1.02225481405786
1.04036647120654
1.08266291862208
1.06352662238437
1.09252337664081
1.05809236294246
1.02818775643994
1.01836104212557
1.05907426251673
1.07764666956363
1.0795232992117
1.03782823563761
1.02732128625876
1.00701381514972
1.04087079833499
1.03507241920376
1.04175215485253
1.04892999517562
1.0484655662849
1.01349169101045
1.01255951905306
1.01431042003229
1.04843977626179
1.02770373385528
1.0504057131885
1.0255605325273
1.01821292448245
1.00899162538569
1.01510797489426
1.01471708188821
1.01600014745247
0.999341492843172
0.9990274401081
0.979698112457945
1.02327127539332
1.01934083597613
1.01311237279822
1.01383376211527
1.01486534079199
0.961186427758613
0.961696311849516
0.981595426650176
1.00422055394742
0.987387820662201
0.958358656362416
0.961996642505627
0.988537510151172
1.00814380475399
0.972041927215823
0.939787288500358
0.97543517692256
0.97285441874156
0.957519542704893
0.972317203160406
0.981679687315819
0.956674328196165
0.972430214448401
0.925887100134522
0.946312210477307
0.955457761332345
0.966491950900674
0.953316447743981
0.958812040428979
0.933505302593031
0.92690769427525
0.928664665022883
0.953086283144126
0.944514992110504
0.926873594879445
0.925541477239562
0.936845513890261
0.921992056525413
0.950403697309581
0.91384655577627
0.913004848623407
0.908657372809129
0.89651144173364
0.884425279332509
0.900623505504062
0.896369061170528
0.905070810896012
0.87304805791758
0.904711719332234
0.881229505061888
0.887748335554909
0.874691913755251
0.890843151122194
0.885756556161798
0.874431621038219
0.887923876132357
0.884614555559318
0.851372047989838
0.876033681034367
0.844745756769493
0.842364946335309
0.865808585371143
0.851408074216777
0.822201404203766
0.853056742743401
0.836468996155535
0.849636584559816
0.823246017742402
0.830684795167947
0.846562883730686
0.840641939467783
0.830448984082543
0.821310591377995
0.804842629082939
0.830661616081134
0.824148076144428
0.808185737970065
0.785585193998484
0.80527489312228
0.796011546278753
0.806006696954623
0.78334284990699
0.778803767903139
0.771023885203127
0.784464181918061
0.764472246427489
0.759537172139998
0.773429460159145
0.790593942666545
0.770187885095755
0.763921759882561
0.744892724555081
0.773103375113362
0.73993087021196
0.748006256970781
0.739337659067588
0.749205381108322
0.741364616995662
0.743932696591327
0.73095334126837
0.733482618278182
0.721353613413195
0.728657415174923
0.724446248794753
0.712115772174501
0.703387465030376
0.719000356134217
0.704122500334486
0.707886795838864
0.690484824734342
0.701995825081663
0.698675040537155
0.688357867793707
0.679938490354984
0.678638693314753
0.675144504394849
0.680167222259373
0.671764744450244
0.681435002171027
0.650864230480966
0.65444675132554
0.647262844322274
0.663023087126346
0.656942809234711
0.663485135220855
0.6391314304023
0.637780046035075
0.632353638100425
0.661774092060761
0.630327304591948
0.642870070766878
0.629935426115659
0.637113470043997
0.627438158846689
0.626790717380291
0.625614560105417
0.614761418196859
0.614007401502649
0.615578605286088
0.605869916968613
0.614586979145834
0.598968554833133
0.594372101941142
0.601051827209842
0.604843437157144
0.59404189789906
0.593116253823566
0.587720722169668
0.595525579261054
0.57271633633356
0.582779312907806
0.586720965179634
0.586735688331028
0.582414278956933
0.581076747423956
0.56806865471946
0.573690965133958
0.561163334180572
0.561676098584681
0.549242634647497
0.54615681518647
0.560695213045749
0.566225506031852
0.550061307160167
0.557934301087812
0.54813256719023
0.556800018513304
0.531013082580533
0.538788308093362
0.534493032624079
0.537565700586238
0.528994167976946
0.543850941324035
0.536714431066878
0.535255819915904
0.516630906231576
0.518355098887404
0.512811453798
0.521689718638743
0.522257588959314
0.51460362196324
0.494510613451238
0.507683007961153
0.508929013715048
0.504805257820096
0.490405373536494
0.499177089918828
0.503601440130739
0.506120928326839
0.493573104703854
0.494187041834358
0.492465103097898
0.492127360290284
0.47744052852651
0.486493660696096
0.483703500045911
0.4834192959163
0.481279708473246
0.487823943682703
0.475509809133734
0.473043654894992
0.465610096024176
0.467963767061904
0.472746974906779
0.468660099409547
0.455130920328834
0.461611263814905
0.459231514526413
0.453025341349679
0.458086477268223
0.460586970959397
0.442926638685636
0.456937564816254
0.453289872677939
0.449491440887325
0.439427012297954
0.440837754923858
0.436356690795939
0.435239414533532
0.428246132114026
0.434560036054475
0.425595075600551
0.428397243364301
0.428649169736321
0.430083206917967
0.426400227868509
0.416290606633824
0.421879887743234
0.424510057727768
0.414946763168845
0.416327157792835
0.414118214875207
0.415770967138154
0.411836658048274
0.418553858681609
0.405315943300724
0.403535770709533
0.397271542118395
0.400869376816471
0.403939981115259
0.397840747701902
0.397136005141963
0.399871353211735
0.386097527947088
0.39114612169683
0.38713420213594
0.386500590704631
0.383049397078271
0.386855420334063
0.374770411858392
0.386146884114845
0.380296835652653
0.385446081523258
0.380201217473069
0.38051363265032
0.373146055940908
0.377718167237865
0.3745317000165
0.373202657012162
0.370561853603783
0.367767334874228
0.376703332242176
0.377677486613758
0.363777354627849
0.373608868014505
0.368029033149767
0.363796502383048
0.36417955676584
0.373466444705248
0.364716521000103
0.363727254691498
0.3631147369491
0.36504897679035
0.360985078318503
0.368165286732813
0.364345630262923
0.36326988955933
0.365896348136831
0.366638825673315
0.367778887848072
0.37081408219958
0.361595458164386
0.371271621894768
0.363826543995919
0.369675541884569
0.369206447492698
0.374841339706359
0.37206323594593
0.381504244756466
0.370577378776389
0.37279236119904
0.376070809938976
0.382696981720384
0.379562149514476
0.390763180988741
0.3791810223768
0.384288210555297
0.382842379901062
0.38953244507706
0.383975642323969
0.394892523630904
0.381005871850358
0.394746833705182
0.39045827952676
0.395984860799
0.395618860962512
0.402331659960241
0.39577758895373
0.404264415793968
0.403506918794761
0.414036228079732
0.403564923436854
0.407530537170474
0.402370119652527
0.41318845094391
0.413056215805502
0.41043341093445
0.413104782630543
0.42419301950091
0.416688350159661
0.426015794505682
0.424712936609633
0.432919961662884
0.424644354049863
0.433150094568638
0.425182065877754
0.441653704237611
0.44413601770395
0.445088434328404
0.438754195894319
0.451951216884944
0.452375725809376
0.452486792747096
0.441561640246125
0.461518620383266
0.45612524082265
0.464915525247411
0.455666558070459
0.470879267955443
0.458609018226966
0.465317413612158
0.473194536279348
0.474217714783927
0.463693980372211
0.484795799135682
0.474158756083487
0.472328168880226
0.470320156691073
0.4773807533618
0.468270807148417
0.487898582697796
0.466573815418506
0.471950579224229
0.467544571189969
0.466773213461188
0.453384240190162
0.469677667034629
0.461771235056932
0.462091309855429
0.451032256133726
0.465159453186554
0.460558088436895
0.463949412918967
0.460134444429651
0.462913778742972
0.457255255894368
0.465114148711006
0.460638019995598
0.466979736237937
0.458212619366906
0.4666110158738
0.464922236888117
0.464627930057379
0.450379816743405
0.462891059872254
0.460141910792009
0.460324317500309
0.457130792286202
0.466144527997959
0.454743854427691
0.458466915351044
0.462566828665053
0.465696710183263
0.455256114500909
0.468001514933672
0.463554543030314
0.467010040575719
0.454537414667415
0.46452970761352
0.452726955669378
0.464315585435454
0.456855916222428
0.464284705480121
0.461412209161085
0.456183394279852
0.450291226724053
0.45898896618905
0.448342498443615
0.461517763953373
0.451941913048958
0.449222100608973
0.448218242425184
0.455869934433457
0.442846329267369
0.446812797322226
0.443032150805151
0.444242295801857
0.436694775377749
0.443564795952708
0.432118787396049
0.436469505354564
0.430889696128783
0.432017033059282
0.421293963669245
0.425647666501129
0.421907635218844
0.422913698239954
0.409295266135985
0.413267046714597
0.406147669723607
0.408470247360946
0.397381487152867
0.399481888900707
0.39841337441353
0.39606869426805
0.384096903039262
0.392939752227536
0.386585701671389
0.391001302659587
0.381044884541416
0.38588477073718
0.378920146947024
0.376934713398414
0.366157525230718
0.374411533186775
0.371600695216774
0.372256677641246
0.362212852532926
0.368175867207839
0.358660068347815
0.361869327882393
0.35398213616341
0.362271161431685
0.35100111493886
0.360852281472943
0.351888087920591
0.35307075207626
0.343871994869405
0.347020776589028
0.345555141823934
0.346783218942779
0.341454562890923
0.346682857081111
0.337791892361574
0.343615756277313
0.340091134923392
0.341632003266851
0.334908610786956
0.341080128770084
0.32771204604278
0.327727981240177
0.325770938249003
0.330562447972497
0.323809150148903
0.32665332533981
0.323076399404059
0.323948110504312
0.318295564033541
0.322928049439877
0.319627600014047
0.3181233027082
0.315399539712216
0.312526253837663
0.308385928316097
0.315626584200657
0.309288616694447
0.317997519881192
0.308056440997515
0.309620926401775
0.306526440651882
0.309886965395406
0.302864559292655
0.306762078289856
0.301911653573254
0.305360755916278
0.305266282073499
0.303961760200459
0.298314873125043
0.306206033736622
0.301339972532947
0.301587837003967
0.296768892525141
0.298672866385732
0.297667292306032
0.296618126008062
0.288034985735533
0.291896990509611
0.289120860893939
0.294922822050897
0.287067003798419
0.289554476604134
0.288326048009461
0.288992952727613
0.290461944690499
0.294406991909278
0.288640115216413
0.289449001931286
0.285871840361495
0.291649091827063
0.286303281983696
0.289721889882859
0.280477443803153
0.279973122779175
0.281051416098799
0.282118638316927
0.278222947917093
0.279958383788785
0.280519688052845
0.281201303903154
0.275626107281433
0.277250594526584
0.272289113411852
0.27690497839955
0.273988381213085
0.27950669353893
0.26788847251824
0.275688634471875
0.27250779048358
0.276249456490024
0.272107446882674
0.274046092801114
0.268643072666232
0.272747516789438
0.260649103878236
0.27325427391482
0.267767121829964
0.275638783866049
0.268473437829258
0.268737501099857
0.265818867573735
0.268770979643221
0.264471326234373
0.264875298955146
0.264549951193754
0.268965869287212
0.259950958364322
0.266729789439264
0.262672854677045
0.265458828141715
0.26185712071561
0.264007056168254
0.260531398750604
0.262686020489312
0.256821819862936
0.26245348364957
0.258889495149849
0.266112135314795
0.259912153390861
0.264719617700924
0.256097625845539
0.259856345723186
0.254695155433065
0.25829985056703
0.25628170086018
0.260137381174345
0.259613469971693
0.256000358568904
0.253870171031212
0.262122629354819
0.25486981644284
0.254069116076168
0.252113151839335
0.256576749308653
0.249907612752767
0.255420938782726
0.251102317752984
0.249997376062772
0.250238967327669
0.25306509632753
0.247841059570153
0.258773830940635
0.248536275881755
0.250594669097289
0.245777720136255
0.24957605496539
0.246785309074292
0.253666375483016
0.24357533967048
0.24576978342937
0.242919163625324
0.247204880553304
0.240063683364806
0.249275985520421
0.24269867979471
0.240674551386779
0.240737283418993
0.245775958935937
0.24290561321893
0.241523611067828
0.237673636968074
0.237061716005427
0.234662808826808
0.238070174608784
0.234969508658638
0.239117219371269
0.235143589371045
0.23973845672551
0.232461710197205
0.236031437891269
0.233455121533154
0.236324347591032
0.22955961308041
0.233619117001574
0.228623231892506
0.231943746991196
0.234827438230151
0.231835308135173
0.227686966974985
0.230751393853032
0.226273840842922
0.227008994192561
0.226616398097345
0.230182821818887
0.221696699681925
0.227378887153732
0.220794554947425
0.223279856198319
0.22325679744302
0.230345438726368
0.221520462922382
0.219739352785751
0.222599675525125
0.222364891343226
0.215856126951841
0.22031821613114
0.213485545443649
0.217687350603966
0.215530775802393
0.21345392512749
0.211857028096745
0.213623884149814
0.208164811510308
0.214909836303386
0.209474025880733
0.214344534520379
0.208279060882626
0.209845920591149
0.209444268467952
0.21054638990577
0.204353020518971
0.205182871836342
0.201342928313243
0.203362286357463
0.202319748358873
0.203859056943347
0.197853769446891
0.20084159835786
0.197616584261383
0.199506032104814
0.198300313005229
0.198269007379927
0.194916742484516
0.196959442819941
0.1978753357343
0.196065244584593
0.191382284386843
0.195545342874048
0.191913515736271
0.192374954325271
0.189936850345661
0.192862346993924
0.188397587221064
0.192233538153137
0.189210274236944
0.188408720848301
0.185493547835115
0.187334232777635
0.184813124430595
0.187778286253827
0.187634798525629
0.18959162048941
0.182154796594822
0.185748090996179
0.180587151959609
0.186429987988756
0.182090408253567
0.183040893168088
0.179817685854441
0.181773377727502
0.17866213090277
0.182797992748872
0.177368330616044
0.17753513123789
0.177817466029604
0.180336888761415
0.174510729233447
0.179068385738954
0.173723730173774
0.178845562612358
0.171109543248253
0.17407330518729
0.173993754464004
0.178147331656373
0.170520214242031
0.174727352538627
0.17173012301971
0.173057197061316
0.16730430032868
0.172303355581089
0.168865061844009
0.174674006407936
0.167152440767263
0.166974259042827
0.166616139210087
0.167153235224958
0.162273240313773
0.166916628851454
0.1622125951441
0.164700051459385
0.162845619031435
0.166262067848661
0.160830131213182
0.164792231984829
0.160622435324055
0.16319426439899
0.160932264449851
0.165469540516675
0.159378041853733
0.161413257771412
0.16249936274665
0.161443728678054
0.156836969926268
0.161912091181469
0.156565717947806
0.162499272277772
0.158263894134339
0.158812004390643
0.153898532389252
0.15933062504007
0.152889087519398
0.161556527021279
0.155234447720256
0.157420928140822
0.155129341982923
0.157349371306483
0.15354574119812
0.158880135615203
0.150171379385884
0.157156405185007
0.152673154793109
0.159275202020573
0.153257653749415
0.158437644435408
0.151632247850216
0.157309789223681
0.152584031520048
0.15744176968545
0.151093484092434
0.149420969093551
0.149621094605393
0.151648088161335
0.148344636888719
0.152455522149596
0.145553180109262
0.151659641209257
0.147515503060285
0.150689188258512
0.144381074912814
0.149720518299977
0.145515830664467
0.152171794313625
0.143087879375821
0.146884338753976
0.144340222960653
0.149222209654907
0.142378309529375
0.146218245896161
0.142368330331665
0.144818199684245
0.142355877785958
0.14650068005072
0.140223314119544
0.142325949447469
0.139888340051059
0.144277344811303
0.136581943381307
0.144784315475171
0.138211078550707
0.140182777457949
0.137663728594116
0.140728199729933
0.137501024408963
0.142049184519437
0.138245343665062
0.138254667182992
0.133739609390151
0.13947602630735
0.135537790188706
0.138882054083397
0.13604130399027
0.138438699509375
0.132930427247795
0.139722294379612
0.133697236006068
0.136976642277621
0.133245030586386
0.139448500452096
0.133043846142953
0.138758065986654
0.129799422829841
0.137086519414115
0.134096515509661
0.136690153569721
0.131824193667695
0.133449708276693
0.130657248162685
0.136045176426943
0.128414598856841
0.131103766907633
0.128044865671551
0.131346230308969
0.128512505353308
0.128782536557524
0.12645000482592
0.129849499399222
0.124919208407949
0.126688660862385
0.124919746507681
0.126867632621525
0.121713958586172
0.122549492085021
0.120386941672587
0.124683107038325
0.122592093240446
0.127755171846351
0.119259402117326
0.122753472676625
0.117830617471112
0.121900258165062
0.117117316002443
0.123183261169703
0.116920024704155
0.121367751566786
0.116542442656936
0.116526617622672
0.115373625860069
0.119558532842252
0.11272978309045
0.1198283230395
0.111090817522736
0.116916630280888
0.112315085191173
0.1153999719675
0.109992483548142
0.113627520755605
0.11114464197851
0.113867755220665
0.112063431978213
0.112031092033324
0.110587958319693
0.115193475043703
0.107642841261033
0.112520230813456
0.109028828225948
0.110953743795039
0.106399182292617
0.110380575729066
0.105470729609474
0.106830232686583
0.105444366222329
0.108464733785412
0.105203463346884
0.109698523927927
0.105216618588238
0.107412587196279
0.101881612720267
0.10707640239428
0.104719774238912
0.107681586488991
0.101673471298882
0.107899031202517
0.100005679803777
0.104677290744725
0.0992342154718544
0.103557608992596
0.10098436398259
0.104548867087653
0.0990259620855335
0.103176820809777
0.0989714769137577
0.101866468221886
0.0958725120545463
0.0980605541258104
0.0954467944210339
0.0982635986803706
0.0938218076195839
0.0982860712886165
0.0954208259892105
0.0995055319704588
0.0919660425817885
0.0965402737773041
0.092319498472462
0.0979277737645526
0.0917741149587039
0.0972894239922281
0.0910624925122254
0.0947465880041786
0.0878126436519116
0.0946303336699396
0.0902770827332933
0.0927186596693248
0.0902316362997753
0.0930158649025154
0.0898609054382261
0.0940872350718508
0.0911093557244713
0.0936159731200186
0.0856283651972091
0.0914253099763994
0.087877995277034
0.0948594639448572
0.0883913521925455
0.0900050320500746
0.0859701974158197
0.0930582768589446
0.0867843872939415
0.0921796629405518
0.0876920494448286
0.0895064391058741
0.0868792747049252
0.0938242844981516
0.0888502575737657
0.0923394771178939
0.0860448938187924
0.0922777890886546
0.082611560130353
0.0900180078112858
0.0824924065677628
0.0906748535439732
0.0835587537783553
0.0898861646905703
0.0827191845320385
0.08182531811679
0.0750819389405357
0.0825852780584827
0.0744404570812373
0.0851864176250094
0.0726306390061762
0.0832371056003703
0.0734724853243803
0.0807159027857292
0.0637404825814626
0.0823544748194387
0.0764127238886064
0.0811489787040123
0.0728710489424493
0.0805293473281274
0.0670898405787433
0.0814998928553613
0.0683038726692668
0.0896335967990495
0.0722768730132584
0.0830414581189575
0.0771904851502299
0.087312103532728
0.071062432601493
0.0814973353819132
0.0683475647431773
0.0817600152467572
0.0639943908064475
0.0878445893237705
0.0589924072888279
0.0851843937072709
0.058459932811708
0.0859244775470089
0.0634704788925298
0.0914434998050304
0.0610506589113208
0.0975172723491267
0.0536517851072366
0.100018516703422
0.0550458903228417
0.0934739451425484
0.0522190953421063
0.10225846242092
0.0483953667123416
0.105417910768379
0.0488682983850799
0.105069509251651
0.0476552959195511
0.107985070261987
0.049329624502771
0.108831125221266
0.0521978216524149
0.102097947500692
0.0603713704746213
0.0935303992622609
0.0679786480416245
0.0836883777726136
0.0808696493748743
0.0748661511668289
0.0858399200603816
0.0654693053007386
0.0958273952966736
0.0632658945141909
0.0919856669909992
0.0657814308490023
0.0864095409780816
0.0708540919943801
0.0838763195251434
0.0756421183803232
0.0769604177314227
0.0787831190483188
0.0742602211241295
0.0781949360844496
0.0745337420130171
0.0754542893070026
0.0768485601464782
0.0733943561920141
0.0762951253531514
0.0707366919556819
0.0757522630958714
0.0741294200813141
0.076717433158946
0.0746962801138056
0.0728538896873526
0.0736631908103238
0.0745250291230342
0.0730364223787337
0.0744310304634224
0.0731214449904304
0.0738579712040108
0.0761980946746542
0.074003504117122
0.074139617361016
0.0738683674238902
0.0715986211012633
0.0736989222775072
0.0749985122388768
0.0720804768476334
0.0713264116096276
0.0735616053204198
0.0729516256815917
0.074155592908475
0.0729611021213903
0.0736222525263056
0.0763782893599488
0.0719500720824039
0.074035422567177
0.0710263096537898
0.0736105034981464
0.0721383369035954
0.0721844203023385
0.0753523001047673
0.0750516211247693
0.0734504555100467
0.0743640903253631
0.0742198431494323
0.075384586925381
0.0734405859588604
0.073200384628785
0.0751465262419839
0.0748010981438858
0.0743141688317014
0.0741599775192729
0.0731544222224561
0.073178997462328
0.0733669797768267
0.0727805742092695
0.0720663516769344
0.0750222093866287
0.0754186518143284
0.0718205505494405
0.0730439510779784
0.0720221889253728
0.0725134602975714
0.0735450454293749
0.0719586073095972
0.0727958908644421
0.0726866236057316
0.0731036738812953
0.0705368292463994
0.0711507309529647
0.0751652402657267
0.0729836960619356
0.0706997231926446
0.073062705612205
0.0700309246391942
0.0736360655431382
0.0707992277644319
0.0726747834574412
0.0731878683693677
0.0753815299020616
0.0719629435611046
0.0731386455706443
0.0720862716628329
0.0740835575921853
0.0713339625556697
0.0732932249539048
0.0730385284941112
0.0762176436465738
0.0750566316885931
0.0740074860861288
0.0725347223884787
0.072934379653867
0.0726201631556883
0.0745554288017019
0.0737933235529887
0.0748542105582906
0.0755244708964014
0.0748859817526637
0.0719462281061633
0.0749410747620701
0.0722970219581209
0.0755462855235651
0.0745618837981841
0.0756171310325614
0.0746155698901813
0.0766778879571371
0.073340750094927
0.0772019102819088
0.0745889948094844
0.0752047297193161
0.0759377311341388
0.0760402054434946
0.0756913741046768
0.0781607977989396
0.0742829533722615
0.0759773704582993
0.0753815220701145
0.0767912249952845
0.0732189610925874
0.0754862704957775
0.0730431649640229
0.0751659046806565
0.0742540559260067
0.0766654647996963
0.0753320089478752
0.0784380270512537
0.0724831469200516
0.0745200768808221
0.0760566456805769
0.0756662400636307
0.0737464171673946
0.072450320065385
0.074014304525962
0.0777500477080532
0.0740758051249731
0.0762066888254042
0.0742981914226594
0.0770567568296112
0.0753128314794661
0.0765728168627546
0.0768521690747694
0.0772761313209079
0.074522519291209
0.0764449901780536
0.0747420919384291
0.0737667002943855
0.075785110235693
0.0778106767808044
0.077231523687151
0.0775544212106661
0.0756832258775855
0.0778543461465227
0.0744259380000924
0.0791073433729723
0.0777815214898841
0.0773068076400883
0.0763946402359496
0.079233720519376
0.0773300135523295
0.0789524616457551
0.0786162919983313
0.0796832023762831
0.0766301754222113
0.0774767569165644
0.0776535222290078
0.0758628403020054
0.0769101863844194
0.0799256556899219
0.0779177756770672
0.0784757672156022
0.0755620500961056
0.0766291801143241
0.0759797382437063
0.0773807321516358
0.0757039598157035
0.077208120863716
0.0763201976173461
0.078561741674976
0.0751635181171332
0.0779135703962959
0.0748721542574972
0.0772244808013712
0.0747575849601294
0.0762388462906273
0.0754121626805803
0.0745282293293977
0.0740615728906005
0.0749087476958129
0.0716164785081625
0.0741477744354259
0.0755435383184918
0.075266903326102
0.0721844472089226
0.074226562531538
0.0724471293246409
0.0742743380892221
0.0725637915767379
0.0752443274576935
0.0738060811409359
0.0752624221901222
0.0720055986489365
0.0711700458259553
0.0727034664458091
0.0748679197882013
0.0730837760600325
0.0751517612850327
0.0732554195576393
0.0732471185285476
0.0718467598174724
0.0730579723023857
0.0691117537674997
0.0743636314180582
0.0714551785359774
0.0712402586388774
0.0712211482299834
0.0748327790868285
0.0703577525727213
0.0726073260276918
0.0717636726824193
0.0709411329667532
0.0713757430690378
0.072367944398679
0.0713390202995062
0.070096273997587
0.0679151647900441
0.0726741176908689
0.0703119029845929
0.0729355575108436
0.0692713283597969
0.0720744974196491
0.0705273173533342
0.0703895314945543
0.0701708879427259
0.0709587264977995
0.0696241607758966
0.0719792592411317
0.0697093464473778
0.0727552638775176
0.0667806477089754
0.0695093627742007
0.068067451585131
0.0699971461733225
0.0699399268404045
0.0708580520419147
0.0705798896781537
0.0694412993486432
0.0682871878037066
0.0732143276453468
0.0668740092857542
0.0685330758670594
0.0683482930387621
0.06978199991818
0.0686490022159389
0.0691276868613526
0.0691073487735573
0.0690572042399362
0.068525513931104
0.0702948850739415
0.0674058994206102
0.0700530250382422
0.0687151123515177
0.0694954239215464
0.0678725863697366
0.0706992667413101
0.0668117556225364
0.0687214509140225
0.0674786221065431
0.0671989009284174
0.0654058733658866
0.0670347227364851
0.0652087252761894
0.0671498053853914
0.0662345479980845
0.0670527693600395
0.0661425426550427
0.0675530127803453
0.0659119483953915
0.0666559716278037
0.065559662462377
0.0667952724402594
0.0643849283693276
0.0675062307867679
0.0698893999438064
0.0651314000592691
0.0639632990532781
0.0672103159976765
0.065398280342075
0.0654512162719329
0.0648062833102306
0.0655201529540843
0.0653365172971885
0.0663638292812105
0.062952533944955
0.0647520537001042
0.0632741593365806
0.0648040299826953
0.0630755221595843
0.0635243807469478
0.0620402687498792
0.0645213300084856
0.062856582304933
0.0661002699517136
0.0639009851013884
0.0642070532164809
0.0616767406291151
0.0614463472629876
0.0632927489001531
0.0600156334077898
0.0644725842160763
0.0631505913965933
0.0603463306889392
0.0608552507185845
0.0607299452281791
0.0606213869515307
0.0595891389816954
0.0612742839384791
0.0598878073181852
0.0604013698267549
0.0588191111745729
0.0589019395689831
0.0570384513631398
0.0578246625880164
0.059242198619646
0.0597993141119078
0.0561278699373868
0.0587503434982453
0.0570521092717673
0.0582457966077031
0.05664311550803
0.0564055919316193
0.0590101920471955
0.0592052924998637
0.0560791985702447
0.0569169787498129
0.0569711166653747
0.0681320121372191
0.0569571048314785
0.0573152565546126
0.0579973963866869
0.0623114268146266
0.0556063754815313
0.0583884709858432
0.0543959697569551
0.0568424408946661
0.055626489523078
0.0578336073787358
0.0574923145057355
0.0582038954187752
0.0536291868736179
0.057589015788003
0.0556585511281557
0.0592974342379236
0.0546721654404737
0.0577680407395746
0.0546735974610801
0.0579557177031262
0.0552730126746775
0.0563315661555388
0.0542844078590402
0.0549792571668748
0.0510578646987296
0.0615132759464921
0.0578022921718161
0.0567009810877483
0.0536439695206816
0.0573038629231407
0.0532438516458632
0.0561929339753303
0.0535585308671553
0.0558447697785009
0.0545668705819253
0.0539588765530954
0.0538647140877805
0.0549354976785049
0.0535834143231125
0.0555383757012195
0.0488114127322827
0.053912091040371
0.0514010903459386
0.0551998104246458
0.0496104596210727
0.054309055611505
0.0495421322442517
0.052459489647034
0.0499995764681878
0.0559466734496073
0.0510187360764476
0.0559931576733459
0.0716418253985583
0.0536830537396733
0.0559482071601827
0.0512702859729348
0.0519315859045947
0.0517389565710624
0.053726168323898
0.0514132758627895
0.0517967249135523
0.052016863138529
0.0531495662532776
0.0524902870079195
0.0513882059930583
0.053153661347037
0.0536637162721895
0.0543550847257603
0.0501427177424133
0.0497556838486579
0.0521951529238621
0.051194071119268
0.0534576327902916
0.0634237720567575
0.0562668438013523
0.0515618377574687
0.0546019966989395
0.0439593329487337
0.0708027213283478
0.0596036483746955
0.0522791450425128
0.0525795129172584
0.0499894771900561
0.0518622273822837
0.0497576544166303
0.0518734500579483
0.0503236288967351
0.0576320785126378
0.0512715007553485
0.0561939636895634
0.050083878625938
0.0534799218732074
0.0492708255759266
0.0532743329794835
0.0493600204043076
0.0525177776904471
0.0494986070982222
0.050437198791005
0.0507858030001232
0.0494378235389846
0.0509595598636756
0.0509994115184303
0.0540119790520862
0.0589524326231234
0.0478148901094022
0.0520934741690237
0.0507309128992849
0.0496692317435407
0.0539078207743261
0.0711699755263388
0.0484440937480252
0.0554710547573549
0.0490567791204439
0.0533857879497043
0.0520895640242921
0.0517253676164587
0.0488219192312924
0.0531562632503049
0.0494561637295828
0.0509069392325744
0.0488165033491385
0.0521751671274415
0.0482311045994561
0.0519488060541822
0.0497336321058481
0.0487071207808964
0.0531488520991536
0.0504226322858434
0.0513923689951306
0.0494009848342629
0.0670229416707502
0.0735389166759398
0.0576491768121263
0.0615509456361386
0.0555845760807047
0.056055843261889
0.0511671464091368
0.0541745884992629
0.0487357153284249
0.0560481046873289
0.0470334470569536
0.0525508197073119
0.04951387585134
0.0542343424269055
0.0467406645348465
0.0547939878101959
0.0475923139209095
0.0541732198139252
0.0491415005873231
0.052521868769693
0.0467100709436421
0.0566591222356352
0.0459340170302712
0.0598228630597718
0.054141440982511
0.0616455653097724
0.0432945030157233
0.0808532477120056
0.0759258705012335
0.0550283400778871
0.0591685013536072
0.0506109447834677
0.0530522528474689
0.0498840195034883
0.0532021821053025
0.0584485596600429
0.0513165094612935
0.0512485497374905
0.0529758902748285
0.0556354772878773
0.0555793183893461
0.0493135694463234
0.0579009381147628
0.0826314725819668
0.0595862749282626
0.0620214242158274
0.0513439186925555
0.0587036384023663
0.0804273450089899
0.0545349886996558
0.0584595076557767
0.057662208572546
0.05472784532088
0.0552344358033333
0.0549671629647419
0.0559937468795313
0.0582331071272437
0.0595161797964488
0.0530298899825018
0.0575429452961245
0.0529609620227502
0.0613525334196557
0.0539401300365468
0.0634032527412973
0.0651147742674326
0.0535295574808379
0.0594707143829958
0.0612652716910535
0.0544843276966006
0.0587688441067832
0.0552750642359578
0.0569379901771046
0.0623004343204061
0.0707514768163507
0.0566673630547901
0.0706769410181668
0.0691022220613477
0.058341157787393
0.0620826594325549
0.0657802406503007
0.0684324380790893
0.0556325727170507
0.0602634344179389
0.0896872664360297
0.0652906523573244
0.082661647504862
0.0561776765388339
0.0685181465990946
0.0557577389879271
0.0633591866496585
0.0505244249126076
0.0775540436350091
0.0596748816222116
0.0657778605521389
0.0568713176199973
0.0709418941781458
0.0711007841603274
0.0661432697181074
0.0657132683693131
0.0634428724530663
0.0577965794429024
0.0738909837864638
0.065476652891949
0.0553474904337922
0.0959768377475112
0.0868017075130784
0.08226327271971
0.0735889445540031
0.0606278626773788
0.103382312803103
0.0699043229079337
0.0738326683162369
0.0660780532475593
0.0700138910049669
0.0639605989870962
0.0682797309337581
0.10120480660415
0.0790392505095038
0.0685233146775237
0.0777154820441393
0.0645268495489621
0.0960845736019392
0.0823272407764342
0.0778006944413482
0.073297789146033
0.0834937424562542
0.0655990355126203
0.1166616338444
0.100137628633377
0.0914601981732469
0.10812636284636
0.0952224009974174
0.0964857361845235
0.0901884380284686
0.0861446001367292
0.0933042730307517
0.104360018805166
0.0904639354879904
0.0760737964931703
0.0994730819895072
0.11739182331252
0.0889085143127964
0.097033155548541
0.088086763594301
0.084273838768391
0.12076177737728
0.150509692523431
0.118231083617574
0.100384920443308
0.0991013575665895
0.121373032752522
0.103166664728025
0.0993394274818489
0.0977040613436299
0.095855492459558
0.100194761640343
0.0989120802653408
0.115041376324815
0.101866615645614
0.10836365017119
0.10684655362792
0.103401660861172
0.123540232488601
0.151652131015721
0.148415222805554
0.119072544094256
0.142704648803789
0.128445387418212
0.12346526973231
0.120486480484158
0.116429535184012
0.124511768736698
0.119938136968356
0.126341071425241
0.119214090804501
0.147752587414548
0.140499144003809
0.144436970837842
0.161579213162147
0.137653322124112
0.142126736961385
0.131134379065674
0.303641989654396
0.179815212940882
0.170236140452351
0.163372094941572
0.168587158037731
0.23754682315355
0.188495647931611
0.184251486629561
0.185621268490025
0.186625136679047
0.203092644395199
0.211774869702123
0.214697343959312
0.229505439381284
0.227437886455324
0.219387391721798
0.23831410015617
0.309955654110665
0.300498961357037
0.276227893018405
0.259172754558219
0.282061667797534
0.285509134572506
0.27857452818751
0.287246567317406
0.289364198943643
0.290410307382721
0.370423176485381
0.32114748676339
0.320212716251936
0.330408479881482
0.363501001414221
0.333132032507554
0.392969792898249
0.388375363288087
0.37249853458387
0.37673949732686
0.377259377381082
0.385252903442614
0.3850135889928
0.431068659647726
0.42195545310869
0.413680224051713
0.424731071928128
0.426318941818385
0.432237401041395
0.437015517447227
0.438336672982962
0.439257641364215
0.486371073189351
0.47638693032116
0.58806458414425
0.492688246746368
0.466851935678348
0.462917108535918
0.454910465097394
0.500841595012811
0.487259396677386
0.50610431618463
0.50480696533522
0.4611806226062
0.4678958065403
0.473612072571962
0.470281646390115
0.462244420704486
0.470692801454795
0.456257870711163
0.49265404848567
0.464022528777733
0.486118301916969
0.55063693979868
0.469717419562302
0.465817936593209
0.459924802716861
0.45915303076714
0.463488242463037
0.452082990811993
0.456477506759865
0.472755071215696
0.450078172132162
0.441965587830623
0.43555492404415
0.446789297559182
0.460693784714063
0.427045905779676
0.422230838276664
0.414265809917766
0.413892175217613
0.396953138441524
0.41556996766992
0.459161867833441
0.39889611531631
0.389246378529627
0.386693882252626
0.380820406105765
0.376546332682221
0.366810428910446
0.377650250024281
0.369507395180225
0.364651722437683
0.369103294360176
0.367280594381832
0.360924176110076
0.355235906430155
0.356822411319749
0.358097890898341
0.356522783229227
0.357668398520574
0.352169029025418
0.355773011850534
0.351916946636407
0.357700081314058
0.350306011301066
0.354478592163963
0.357679782432706
0.356721230781483
0.352533836396317
0.357374886814056
0.348008803843892
0.353137497524929
0.348680655609657
0.348850312647018
0.349154954350409
0.353888140317008
0.347990754798056
0.351083366176327
0.353027456717835
0.349928919526931
0.347649177522299
0.346233720222903
0.347195897108819
0.352860561445782
0.339524669826159
0.399956054889692
0.384088354816864
0.348123842027397
0.348854947069568
0.344425393627594
0.343407454423161
0.342495289659603
0.372528753305215
0.368587007813146
0.345489598570885
0.343895075838546
0.336663230058707
0.349123328234861
0.349973988340721
0.336382219194113
0.341547334369541
0.32756094831221
0.364293701673473
0.418810610996116
0.380548436688032
0.435135427398181
0.35966639329532
0.335639196959763
0.345811856123513
0.377222192984782
0.344445097302446
0.337925118976045
0.341871790686872
0.367277801548203
0.355685081055103
0.340988552242102
0.340157323745004
0.336004899188891
0.34902502322806
0.367527025844829
0.345250846486804
0.356489537202974
0.365754160952133
0.339571024568585
0.354193176436731
0.41222328447898
0.368571971538892
0.320295456745291
0.320997265139509
0.318344742851153
0.322952349254323
0.360706175907457
0.326791208865494
0.323787260223457
0.305705544503287
0.298748484160338
0.306053598643404
0.319894572824621
0.307619608927298
0.298551987714272
0.320689136395307
0.289902268580874
0.287211117203266
0.30537776488594
0.313889364477612
0.342507771960427
0.293670140249367
0.273495424624171
0.301054561621001
0.315661306955577
0.281849971756931
0.281603865926903
0.263495877509222
0.267315263490914
0.283833136241331
0.258490006555902
0.256759866397611
0.270165692415894
0.266198119053302
0.291713017634151
0.302653524782989
0.293182963507839
0.251147178661556
0.232888233322282
0.232724069544376
0.23603935915544
0.22864002859419
0.224996117610812
0.240114391964427
0.23952717486188
0.227873469346183
0.265342362517079
0.237141988622328
0.228975595694417
0.229330115188889
0.22438475420902
0.235456750871774
0.262933876755108
0.27021064799849
0.249202595155947
0.234981128849215
0.251736858141732
0.240320775581048
0.239695463165221
0.240883517945127
0.245900528574444
0.243957097025994
0.255343398249803
0.256801726408692
0.256512713265764
0.262435427610832
0.26697779605755
0.28682615898394
0.305117811043286
0.280711676828018
0.298354546929659
0.319826627521503
0.327165264207013
0.319997177285409
0.307523047525195
0.316132222516477
0.316081464764711
0.318159645545389
0.323109233108875
0.336933896924947
0.362626273133623
0.337225822048235
0.336842373370534
0.346913727822629
0.341049382087939
0.354229949935029
0.374723940527747
0.385566258164669
0.40109030325976
0.419780840809931
0.383242525979619
0.368688121436779
0.371255106310481
0.377072627465603
0.378860529046296
0.372228945369484
0.370715246003877
0.377703488026784
0.40374336709591
0.382445139613321
0.377816193886544
0.385492033507091
0.380789876763563
0.39047084211843
0.388090912472077
0.388256926933525
0.392322924780601
0.395918648597026
0.39401601485872
0.398887365846331
0.446009971312755
0.425848016685094
0.407801499317009
0.412803227750351
0.410851417953116
0.412481345250406
0.408656007293598
0.426150509316444
0.438826544567039
0.425285317262333
0.421238276095447
0.428825503846719
0.428132651917949
0.445755503650618
0.455952636020776
0.4390368187474
0.439757086456149
0.441726208871091
0.452370602495668
0.49910850085009
0.467368335361254
0.46223649045047
0.460210509358391
0.457766235325116
0.455989803523757
0.453204608979643
0.465855145082885
0.461082563514196
0.46200401691726
0.462446066693589
0.460731418028611
0.459323621702304
0.459785637436962
0.460914756382847
0.47545188700087
0.468166121672905
0.461512984200904
0.467505514452027
0.458364285649375
0.463418852182513
0.481706988755538
0.481153540294108
0.467097915268672
0.459874087526127
0.459828335819186
0.479488261718896
0.476980074977194
0.458944592082495
0.460259532332349
0.460387196237285
0.464321582893762
0.460518351630564
0.464245135728609
0.48058444198077
0.470273689536429
0.466523176762278
0.46996492594327
0.466386787715607
0.468694427238664
0.467764052506083
0.470607145477597
0.475200343894751
0.477300823814237
0.47815825636058
0.482741771790372
0.477023426071363
0.481869082395314
0.484644376089946
0.490121020142777
0.477033397985766
0.476115175282443
0.476749250775735
0.473451896869761
0.47632487997601
0.466812435393962
0.465024958316359
0.467841697108357
0.452949074806501
0.456964713481981
0.475275307036079
0.459826194168228
0.44802389735969
0.450132467885911
0.431268982083107
0.438775383179479
0.430252614778987
0.427009659075932
0.428684507478225
0.430144211839306
0.424469296896372
0.420249418273442
0.419453299012097
0.416149156815265
0.415975880141616
0.420248736533744
0.41424560550046
0.411488652260336
0.412620125273172
0.41549542075921
0.413103287735167
0.413821952975897
0.413059517223466
0.415944330069966
0.418009952421148
0.42606056459225
0.423940877024834
0.415228404082727
0.409330235525703
0.412571753839254
0.408774461828577
0.411021589558829
0.408029316848374
0.406454851270644
0.407745431779459
0.407582530582679
0.40760374136482
0.405263703634147
0.407534867029886
0.408213722747444
0.403007041314661
0.40882382509456
0.405540041049619
0.404337694212701
0.405032165261218
0.40146690352454
0.411431741672755
0.414176996863992
0.408757611833818
0.407558392836626
0.409120663492927
0.407233013575594
0.408652063136443
0.409569205006199
0.410104299658045
0.409024844621021
0.405430091709418
0.407092266918284
0.406728831168541
0.406242833252897
0.403031171346542
0.40792928926785
0.403465545745251
0.400272755542107
0.401041363786901
0.399805115547032
0.393980791402954
0.394274750517099
0.391128443803015
0.386082975068195
0.383828627858909
0.382194952644748
0.382157291131947
0.378971249214469
0.374510082841869
0.37344724627488
0.369940536737454
0.367163364513227
0.363565517569682
0.36095943436854
0.359623273273308
0.359122696131509
0.358154878690078
0.355783360986848
0.356463075893427
0.358191702917686
0.356280524864224
0.35437448899845
0.352564737021531
0.352696151648967
0.35350685418967
0.355824349036725
0.35239539119306
0.352849114219635
0.355178553504238
0.357863883924093
0.355861228373001
0.358971571776883
0.361785270739937
0.362800153059467
0.362677436250945
0.364776728355693
0.362404459988527
0.366744113035236
0.366565094206584
0.369329834934621
0.369749503015869
0.371967147416281
0.372118201304249
0.374262408027983
0.375382249130125
0.373953559990974
0.373382591749725
0.375800113377344
0.37510693967581
0.374925560234905
0.374347005720536
0.375247735070727
0.373591755338115
0.374470129980176
0.371689578952651
0.370676427281469
0.370379548973155
0.369516378344882
0.367782724116407
0.368201886299759
0.367566019482371
0.367217802307814
0.366183351161432
0.360710846698399
0.361531532507019
0.36134553805822
0.357883258104256
0.359367271157295
0.359534723496194
0.358437787143666
0.356017831096225
0.356728870367398
0.352743846318303
0.351710714096522
0.350303962301218
0.348766101717742
0.347493275288677
0.347162838036242
0.34547531318047
0.342233756331613
0.343370818450167
0.344168641048409
0.341775891613094
0.339376636139917
0.337451742377716
0.338315650386604
0.334984304233684
0.333699209571118
0.331600374585607
0.329150890639905
0.326245189438514
0.323737078514945
0.321900626056872
0.321575632838019
0.317482607635836
0.314729770644284
0.313529020418246
0.311630242523673
0.307973856762715
0.306782454427662
0.304063529427305
0.303923150564447
0.301407917654547
0.299254049127542
0.300561488288841
0.298398210989728
0.294126285827954
0.297163920620303
0.295180275419855
0.292904378129802
0.293944663467826
0.292040580852408
0.288052683134648
0.287149196357394
0.285650116978894
0.28145095297463
0.277063745616434
0.276344701095336
0.272030284504465
0.266684305828085
0.264476880158637
0.260888002998628
0.260597747035006
0.261405241224597
0.257662683577053
0.259326805673881
0.263614117174467
0.263870430238219
0.265710125140386
0.272963872773538
0.277164146900521
0.285363579814514
0.292727794784548
0.301274621474638
0.311281319027351
0.320910136778202
0.332665886121319
0.346763304276979
0.358467126340783
0.370310786688143
0.380239319049005
0.39473190622434
0.406972599489479
0.42001500313575
0.432562675793583
0.442420777956124
0.452421416512384
0.463099225644994
0.475610986071211
0.486032167402348
0.492738926548488
0.503355576933068
0.514150449440982
0.518241371701832
0.52811781955499
0.540406965012011
0.545015829794087
0.552359665657579
0.555767774950952
0.56009627502699
0.563859953440297
0.567134876062275
0.572288995884542
0.571606602253576
0.571803611180052
0.574511622440336
0.57514984791234
0.573960683215471
0.578177103342229
0.577199803778483
0.574507617474868
0.577435957351932
0.579002691059032
0.583542406215346
0.583295785913248
0.583397662814736
0.585963533699493
0.590878676458442
0.595395855282097
0.60141255789012
0.603931850437047
0.604231109886312
0.613386682584704
0.61586347015328
0.621568842355286
0.630971271593896
0.629041181945829
0.643440169239301
0.652534374223112
0.660605552203813
0.669164565514907
0.67751804188927
0.688688079961946
0.696018859838381
0.702638981291051
0.708697829847322
0.718055724897165
0.726737796014544
0.731743536761503
0.732857073193834
0.735387822591516
0.736991054992424
0.733858460731396
0.730966894236678
0.725914406487798
0.724432534450154
0.720785266374079
0.721498267627267
0.715579617014892
0.715847545693492
0.721632264661778
0.72550016705325
0.729584640699971
0.742125861975874
0.744769361779574
0.756109523332116
0.761124246123671
0.77486073463226
0.791128938398435
0.797194051629012
0.812840200625018
0.824483619401528
0.831011791693761
0.849766407445885
0.851319379759742
0.862836649046726
0.877369962618341
0.886613603656743
0.897116289822583
0.912214313971402
0.923530079841637
0.943687868330728
0.963616115245978
0.975023694409824
0.994137874605838
1.00971858228848
1.0259009088656
1.04335939410694
1.07041422573207
1.06973602293949
1.07211351445193
1.1013298527899
1.1163400835536
1.12933405622018
1.1413315809874
1.15766747861961
1.17468558593689
1.18535701918955
1.1814749216097
1.18733968475453
1.21193278152492
1.21596364691218
1.20228679525537
1.21515163867637
1.21642788457933
1.20548938931532
1.18538785824416
1.19446718712909
1.19319568807445
1.16951290946557
1.18656341573814
1.17336296877057
1.16186892485703
1.18971408033887
1.16396298371811
1.17823373547101
1.21636029987644
1.21831339232593
1.21621945392774
1.23596963194135
1.23057024644447
1.26197580433899
1.28697484645039
1.289532594242
1.29878129010346
1.29901359613727
1.30431234379407
1.32153281685988
1.31582598092653
1.32269171857622
1.35105552006491
1.33586397790585
1.34378733524334
1.37506511625684
1.37071111714064
1.37962018633406
1.35406819046665
1.37271284868366
1.41481825893725
1.39549322940574
1.41730172865067
1.40776684766841
1.38285800290177
1.40289666862285
1.42502066872153
1.45544362709793
1.409739333587
1.43044996489394
1.42752994212649
1.4263549800907
1.45528728629768
1.41858176526853
1.41730440756295
1.44483520696169
1.4238728147319
1.47051489419972
1.43934604834158
1.42253475249707
1.41167830440197
1.38566168798052
1.37643769193463
1.36542255185828
1.34510057003055
1.31059191750466
1.27413218763251
1.23807346863573
1.21443086290531
1.1753249680331
1.12901585202951
1.11669468121378
1.09371041888013
1.0677183887579
1.02683546032162
1.02243907065234
1.00626054111578
1.01006776441063
1.0038537763639
0.975702888163532
0.965572516371366
0.974715776022053
0.962709557379679
0.962134457556977
0.941390157074448
0.929208268996368
0.924031229963115
0.924611809387643
0.919529915870172
0.894331129806126
0.867034209143673
0.864227372580593
0.850062224353802
0.828359303222477
0.809588713186017
0.782991626445738
0.755328031507569
0.739558564911244
0.713820944019737
0.683649836277825
0.651556672314976
0.630172038018548
0.601708110215694
0.571613674604505
0.553415880773384
0.527366118933389
0.503400315496752
0.480973642957085
0.466707416450507
0.449372923934186
0.427519517702357
0.417046545745133
0.400564901679845
0.38627981359468
0.376277593550308
0.366467230944221
0.358041827980906
0.349350347895965
0.341436213485825
0.340520472944992
0.340155573739585
0.338562542459109
0.336240060446498
0.333472494245418
0.326845738151431
0.32748179765103
0.331571786196543
0.334734107275558
0.330999669386265
0.329856912559731
0.330992742233973
0.333021496852692
0.335645911595676
0.334102508870969
0.333932480408219
0.334111121409387
0.331703649302202
0.326740963153907
0.32465156921587
0.323289415171399
0.319244755631142
0.315984363974757
0.312408573360492
0.314295944135342
0.312694113707843
0.30672760064492
0.304839402925712
0.308430086886332
0.307032803452376
0.305095618086878
0.309128731291094
0.308867725366853
0.310971878288448
0.311793768994534
0.315860846074408
0.315466987337381
0.325160441288255
0.319653080004228
0.321299503862976
0.327158133477927
0.329844390262231
0.335388305149826
0.331733902781185
0.330694675512633
0.331087282400329
0.334270682073063
0.333280760502582
0.334941343849919
0.336081794998975
0.335405749289976
0.333859869078134
0.33806040698944
0.341498790022769
0.340027690559899
0.338394951095121
0.342851320479011
0.345166366212468
0.349291851957123
0.35400544956948
0.362381936263705
0.364562518796567
0.366326070979765
0.380466167155022
0.390266865460123
0.399594256149401
0.416168396974998
0.424086033546696
0.432571288140908
0.434006964877532
0.447222751897082
0.449945031538693
0.449292586237493
0.445058639441172
0.44548912115296
0.440534966983638
0.440821084466731
0.419295513443088
0.420578769036041
0.414561901292247
0.408569476310781
0.410496738633896
0.407951214366512
0.40331893802404
0.409413095664361
0.401886268443527
0.397515433259722
0.398135286398458
0.406960908027279
0.401425561297149
0.411988782962631
0.406604429275906
0.40309883567899
0.397190504980538
0.392429532657493
0.385044013488293
0.389669927353653
0.387171960537456
0.383878319845301
0.376592668494992
0.377234925674874
0.374797171198266
0.372356927738515
0.368303338239562
0.365968471354217
0.35997647485494
0.357864453823654
0.361590040298498
0.363000203252353
0.354768482253542
0.355871616665057
0.355908587782181
0.347758943604002
0.34575376991244
0.345303491826858
0.347012625748771
0.350915914807142
0.345720426854832
0.3427970627928
0.339745675363212
0.34195430614499
0.339335919958245
0.346077103958051
0.330114786900524
0.335293909483357
0.335103013511325
0.325833806076816
0.329994862261939
0.323069396577324
0.327628983386999
0.33386861557498
0.327968626424497
0.318944554478856
0.319671591777288
0.3327401570119
0.317749953169064
0.32209293265444
0.323683615175617
0.325434062211045
0.312503150384373
0.317666733476378
0.313327145481195
0.317300428393346
0.321826514179154
0.321191523727721
0.319425960820623
0.331460679423413
0.315568370002825
0.32148066548388
0.319783816242691
0.329887398488108
0.325410907546795
0.327124846332604
0.322954629013273
0.329605412131713
0.3302505544699
0.331225455633504
0.328832027423672
0.338193733670828
0.338693937090812
0.351939242049653
0.340522309854578
0.347549508783264
0.355229815284688
0.361156205077528
0.370596678677839
0.368404641608425
0.358616337285842
0.359518122697193
0.379376231365056
0.371788621323107
0.380068468931533
0.411640194171742
0.383919734999005
0.407797955134776
0.422754612295597
0.424967937147824
0.429734144652152
0.445939773086271
0.458866058132311
0.468959437017237
0.475267294982376
0.496514146250636
0.485686018606015
0.530036304979074
0.520620119619392
0.549974991473129
0.556759609403228
0.548487501185905
0.548007574135652
0.534473323031283
0.523709781319265
0.536426683926741
0.543213821928154
0.529466135502439
0.529233723341697
0.535038688468077
0.551256172979999
0.533278830288601
0.55969337340423
0.56619668331895
0.516187499795144
0.528058391159109
0.514062846541924
0.536294344474754
0.507626988469651
0.532846771307551
0.559571550099602
0.52101533588827
0.529226669592486
0.532435196162006
0.485436047229843
0.512626211735981
0.497118766813425
0.485693087266657
0.475604109555196
0.511109997130794
0.477794967518767
0.484704826531595
0.485814477080027
0.493832199584416
0.479570459775453
0.475124868690917
0.472577531282143
0.493030704993557
0.486461514938972
0.493268806609076
0.471075140220905
0.476602787123335
0.512527670055549
0.486959671590474
0.473602336900148
0.492553815028101
0.504284419141188
0.490664052686415
0.507961719248411
0.516209539093857
0.485571787586143
0.537316820995261
0.480140514004407
0.491360201992241
0.507691172508846
0.544474456981651
0.490441718459453
0.498855705713474
0.521739700491834
0.496609918706341
0.485589323644452
0.498957670586589
0.509188949790589
0.535768675364205
0.522009592236332
0.542401959608374
0.510005039024913
0.517814458873777
0.554041881355293
0.563239506126372
0.548020743392582
0.559039537132503
0.563897817160658
0.601918672440647
0.568136531998414
0.556182749611339
0.591745344057563
0.656338301821946
0.631437093418367
0.621538098481272
0.607736017750691
0.678719592271498
0.565348180885126
0.653873179428163
0.682693760611366
0.734274630787703
0.660011020093162
0.670131581053149
0.647127107635163
0.751653585068467
0.59938027680929
0.609369081008726
0.666680965420172
0.670776054743318
0.711278239923993
0.753352520170658
0.537948920973974
0.778871187927368
0.599468329084978
0.678956477056373
0.648363680140693
0.663880300913286
0.751761394278539
0.743626153041965
0.562327296722735
0.673121634198734
0.738175936025376
0.691534135280327
0.655232201856306
0.726571350863186
0.638890214045806
0.667492232645884
0.557542211500219
0.817102765834906
0.587812004252616
0.563609822367055
0.620234943275063
0.798253977994416
0.746549318984536
0.667786350564682
0.675662725972432
0.699594829367496
0.566474893509021
0.753010137501734
0.535145840025044
0.756230808771858
0.650076458440157
0.784570033376876
0.545307643431068
0.601571485990385
0.590432965122666
0.707766156178426
0.74351507523703
0.724254386933884
0.643506278719596
0.85377917154503
0.541149016836299
0.774350763572857
0.642289976443905
1.44894896410076
0.822970950328012
1.31019996223889
0.590152084209272
5
0.554235839429158
0.711059769869853
