3596
4000.36533379555
650.420452594757
1
2
2
0.0826615838768276
0.069022297510557
0.0877828370618863
0.0745207056304605
0.0783567214342126
0.0750380127283453
0.086290258677897
0.0638093505729724
0.0875257734680236
0.0773855391908491
0.0814831328864767
0.0668436606188361
0.0831502736598961
0.0713752704015792
0.079056761127298
0.0734802467171036
0.0793799620376802
0.0680900885297537
0.0843432754060668
0.0709355822413944
0.0745283111487919
0.0661696156206903
0.0776398912141935
0.0714729582222218
0.0805685669529318
0.0707912906165941
0.087857375673544
0.0703249254038568
0.0884065068951127
0.0776997987965154
0.0789021706301721
0.0674930923074555
0.0818762006985898
0.0724792997102614
0.0806651116556881
0.0690726576586908
0.0818480085659835
0.0641340809806433
0.0799596519883605
0.0729172799520325
0.0868166369841696
0.0684514679745395
0.0834344998813761
0.0648975465423896
0.0834184029046803
0.0713305935051417
0.0779676578869083
0.067208098514158
0.0786650414934295
0.0694987649860035
0.0928020376409816
0.0652995383670978
0.0911455836399938
0.0771860312724583
0.0812237515203612
0.0837865715271264
0.0957938676133604
0.0703399221854497
0.0861365316089237
0.0658662829059727
0.0888582775743443
0.0875116376486675
0.0728053784912817
0.068853244978418
0.0757766906709142
0.0721409015746566
0.0779176203377383
0.072377079024517
0.0749510799832238
0.0702404984264565
0.0712071976178789
0.0825007481140947
0.0956051354426527
0.0718906243717337
0.086946437906476
0.0673383557649814
0.0742628796645138
0.068251502034517
0.0759269828716915
0.0737905167406733
0.0935134225169919
0.0744840949735901
0.0818034856993823
0.0597362272927749
0.0751080090497645
0.0861508115608783
0.0713610754112142
0.0602661284471085
0.0923374765215873
0.082458180615792
0.0745980152625095
0.0686437776259485
0.0831169307817229
0.0589745374594138
0.0713002218296499
0.0627309724385534
0.0761401017803749
0.0703368865945536
0.0693951493259617
0.0637773640620899
0.0927365773612619
0.0441744136423779
0.121242336408244
0.0565503150929685
0.13306281838371
0.0888403210673754
0.0543296379125706
0.108329706856466
0.0925377587149068
0.0742410630894237
0.0653047320589158
0.0672702558878911
0.0799982563551357
0.0678033999742957
0.0606198900765174
0.0791361165931422
0.115194008331015
0.0686380581485999
0.0760744660109124
0.0676195248638441
0.0562091317447954
0.0757931874073668
0.132392806037768
0.054214673448544
0.0932925302542846
0.0626730611437548
0.0685160363300261
0.0953151559389652
0.118988871231133
0.0609568518441646
0.0850472786642271
0.0519305674621953
0.0775143684738168
0.0419600368124305
0.114136100964454
0.0734188753924647
0.0869729762230148
0.0448992238141803
0.0840060656836322
0.120786156694615
0.0899455820246401
0.058100433806336
0.0654268299334325
0.0512209369601277
0.1237571477388
0.075528457331179
0.0671065207284601
0.0694947013441424
0.0845630579915653
0.0561714555604945
0.0768372153452817
0.0543303470773548
0.0912627223821333
0.0691646012146797
0.0407284547465975
0.0825846557046296
0.177773297197213
0.0349203425316221
0.16030112575489
0.0491247987693648
0.0884036930077232
0.0583799920617907
0.0707016327868022
0.0509772668106132
0.0782043501225651
0.0512046087083931
0.0769193751188973
0.0974656885474086
0.0718378678179368
0.0650878098431971
0.106901697972616
0.0803103898307718
0.055539452800329
0.116809425497945
0.0970275537866629
0.0399237976368618
0.119378581160985
0.0729029243459454
0.0667586294372343
0.0594702531222533
0.116381720105814
0.0582926307120103
0.0803001142609698
0.0512019121824552
0.078271030766697
0.0793802952731584
0.0917885276927886
0.0519262576088565
0.0805345804585013
0.0408197804458645
0.0944252244949235
0.101525120702025
0.119911541500719
0.0562677098877139
0.0965477618696398
0.0208104413185491
0.111804680994577
0.101340090804849
0.0787280598059497
0.0625967809121927
0.0687130390662873
0.0581778848160045
0.0712063800303023
0.0518626118752871
0.0706965316198384
0.0174066093470601
0.112385675837575
0.0803412746213331
0.0722551090151118
0.0549256994894517
0.0744985139735825
0.0453917075615605
0.125194752837921
0.103902959160578
0.0634085480199851
0.074161621592846
0.0587396088167556
0.0755960458920075
0.0993231801419834
0.0612726490784846
0.0704579806727616
0.0672778811982515
0.0715733776606933
0.065405350986439
0.07315934916594
0.0679311385923431
0.071228256384432
0.0620612159546572
0.0813669629494317
0.069529573259688
0.0819510169147668
0.0745854387888384
0.0729552287638827
0.0648706391871065
0.0640102038465977
0.0645024757316755
0.10762460867735
0.0640109003527139
0.0793417698066941
0.0607987731627366
0.0755201348263064
0.063938751543092
0.0802585721154343
0.0581599776907061
0.0718150409959119
0.0365270698994351
0.119547535758622
0.0685613064603689
0.0819500568868828
0.0513697499236307
0.0949168699556413
0.0804428692077188
0.0708070180508897
0.0685988321037939
0.0657732953595098
0.058263891047876
0.0606881090044064
0.0967552920147843
0.0820698490545129
0.0600904169798283
0.0938189366464628
0.0812498677963342
0.0617182848342115
0.0685823309093724
0.0436500394057843
0.144856446843343
0.0936043883022236
0.0402724996585012
0.155147168942967
0.090008791905465
0.0852266134617708
0.0760009527982753
0.0254556691027847
0.165678083920917
0.142953244217428
0.0671016005763183
0.0872328791780581
0.093871307331815
0.0744495580475311
0.0647501569259762
0.0847887472969593
0.0675593730769618
0.11444209776918
0.0951572127237579
0.161592696161466
0.0507452008357539
0.1110514450438
0.106342798645456
0.0788205303390773
0.0731409683905478
0.0779699102852945
0.0693623908012974
0.0960118506137795
0.0908873094470711
0.0878346259553689
0.0881199263158727
0.0716134617572953
0.108542199736383
0.0820361936142932
0.0665047417315208
0.0837318152520977
0.0884992317862179
0.0694533205724143
0.0729166670005943
0.074580410289226
0.0831552041696466
0.0823366636683909
0.0550986273859173
0.139214437324724
0.094751584852324
0.0640335541782391
0.110379235378004
0.0856953526087419
0.0768094397849715
0.0777690945261954
0.07135555905383
0.0754288782302447
0.0701645649446741
0.0672108450472597
0.105988366728063
0.0961734112387241
0.067545158877139
0.0781801072465829
0.0704227599412865
0.0791917728217263
0.0728227180180392
0.080641854043383
0.0716813443494445
0.0883358710967607
0.0683358696382875
0.100190579811732
0.115654273461175
0.0626283281310673
0.109615251459628
0.134799940099262
0.0744759952135515
0.0945530869553264
0.0737762150792819
0.097625072802915
0.0746174314966331
0.0915119808167184
0.0774452550049342
0.0866350276506129
0.0958782708985306
0.106235515968924
0.0789903303147471
0.100233997918922
0.123699975268994
0.177918598310156
0.104319267580882
0.105155515311267
0.0627294335154947
0.128076775384404
0.129246601247128
0.107871837072181
0.13292325511739
0.0955712938854428
0.104654824120308
0.0970849359498674
0.107334683179627
0.0971801326927056
0.106499791844954
0.107364986550188
0.114462561515715
0.115336094953833
0.110865405083868
0.109121392443677
0.103615942711878
0.167443958174426
0.132219702672727
0.11904760171029
0.119769326981345
0.109311258765505
0.129787272580898
0.151478887145655
0.161151812858292
0.169213968449507
0.123202382059906
0.19571495988764
0.124701320537354
0.140277849435932
0.121431179037884
0.141864729903077
0.131147906368159
0.142570918886395
0.134842533478596
0.145278714222904
0.134088779236377
0.160684746665214
0.140649717970123
0.15936278503119
0.128424916280524
0.179871364195612
0.149875775514152
0.162101568759538
0.149735060676245
0.183112247823919
0.197895641546528
0.21719430606631
0.185716566602156
0.18060465858537
0.173213935762156
0.158472121662131
0.175865578536536
0.180438811227693
0.178074662033154
0.178804490674252
0.210643942475217
0.222477106608196
0.194460738670511
0.217335857610639
0.170089081829755
0.216423650382226
0.201647938599227
0.212523875271117
0.229279705552341
0.222770075719005
0.190815543806653
0.230764354325147
0.242963819523799
0.229547406250538
0.241074296362152
0.225080140234154
0.219282472879494
0.228782462403968
0.230360260087532
0.223876968302402
0.233605578543817
0.2498436275517
0.234566884657121
0.250842047642858
0.237826412824499
0.252055977203788
0.267966177786235
0.275445195048643
0.251668757213626
0.27112444148145
0.228424419974971
0.271957547641734
0.244357457684383
0.278786269569205
0.29928005402958
0.286581268137257
0.30366972081572
0.2800349933955
0.276822766582851
0.290020006358418
0.284351412021678
0.284877467609864
0.304564904484594
0.320724933887129
0.292144862650009
0.311119998052922
0.312846823190595
0.318853953023204
0.308012853916631
0.330640080253355
0.313915823131169
0.333545958965523
0.319759521242606
0.338234374184033
0.332949947393732
0.378541954961248
0.364401239455852
0.362926927462372
0.372935634157497
0.355846287094471
0.358663008237756
0.37195901489982
0.373113982358759
0.378108828778446
0.375557365231984
0.381995160073945
0.37357828689233
0.389210687057285
0.38324072794947
0.389190344135823
0.391303445772422
0.414429392222957
0.397414153927401
0.407538369952917
0.405592382676317
0.414724410073838
0.402663801223918
0.424085148729305
0.447729485697961
0.439723404580333
0.433646995829828
0.452731971588954
0.433396138854969
0.458970395491737
0.434508805686053
0.450712125397898
0.459144117396104
0.476758195762735
0.453791015411291
0.46753720142787
0.477731663268683
0.494379423018191
0.476332679733682
0.473773566070643
0.473953756377349
0.505352348567733
0.496706752257252
0.519636221382275
0.49426468952368
0.521041057240796
0.50695797969116
0.525564667719725
0.536646858848783
0.535899840283342
0.51903965898457
0.538133226967105
0.517525965781761
0.558104501314269
0.544213823436848
0.565147944968563
0.539458966494312
0.559353491563835
0.563401461646541
0.558267920543878
0.566171655804187
0.589865721820405
0.589316804520466
0.604191493228174
0.584164448534091
0.601077132654243
0.56265882027846
0.622792263003457
0.605751329785619
0.637163620496929
0.60378783277224
0.634787221252521
0.642322234991041
0.648424514137886
0.609207553384452
0.631492751850775
0.636859828846624
0.651013392882608
0.632942481529217
0.673757888311552
0.657661591983759
0.68055781340483
0.663532297058792
0.672105076536694
0.679072475367049
0.708662327299725
0.68297899370153
0.720381569674285
0.688991292833151
0.681449721178235
0.675923881451307
0.69725354452769
0.703110356425961
0.734870671169738
0.718967943128701
0.734396563864093
0.702354229915826
0.738535761898523
0.737738751881448
0.758571250984634
0.743964716846395
0.79080816250501
0.759906742165559
0.781746485980841
0.740515401553096
0.735382552117173
0.756062191573807
0.808480462435905
0.80560234681221
0.796248343868104
0.80121901117908
0.818763497418898
0.783772806502312
0.814404663908421
0.793640158802515
0.79744043968014
0.821108272224991
0.848108691584725
0.799138920199118
0.853165381537021
0.808958492960188
0.858564052694466
0.841094539345125
0.828453228584231
0.842212571737434
0.879140015920502
0.875114130112624
0.873216317943514
0.876027335992392
0.872065889673902
0.845379669186357
0.91212951227568
0.89499572060925
0.914961707716714
0.877949326769788
0.901450262190765
0.88526071241496
0.906579258071974
0.888119627598765
0.862982150293052
0.872848856336617
0.903623866994212
0.902706102911169
0.936371633141
0.88831121937682
0.950983093240163
0.957970686785976
0.937727200048595
0.949737442587986
1.00284130022535
0.960614897522313
0.964014627343765
0.957100598339012
1.00761986378629
0.968474192776132
1.02194888681411
1.00350296638345
1.0033363191463
0.994674540992183
1.01578077135111
1.00828687763805
1.00860186801943
1.01581830198957
1.00680525037189
0.969637041817838
1.02214076937635
0.995127255418684
1.02078942948061
1.00779375830818
1.04707423404638
1.02207173620516
1.0347302359624
1.06834843969895
1.07139192333426
1.02911538858796
1.05871901230335
1.03299542932747
1.05696717114494
0.988975645546615
1.01877851622369
1.00932100070417
1.03396136760718
1.07467178370244
1.0814727879031
1.04928659648226
1.13398765076387
1.10584469993348
1.06487553372173
1.02824775803522
1.10554509094423
1.10383331305819
1.13342206498613
1.10938624708687
1.10108911409402
1.09738873612132
1.13429685770438
1.10010687453714
1.19423880146234
1.17454677080921
1.08554542812902
1.09902901497505
1.10297776208387
1.07804680246219
1.12118984267327
1.06498722789941
1.10965387389559
1.16266201856837
1.1320851901812
1.12174649643923
1.16124304089654
1.13417643044747
1.13276319759307
1.1193657359201
1.15475469457231
1.0992828857365
1.18125656745932
1.16379768190016
1.19494972027097
1.18441813985484
1.17830341267789
1.13591149589742
1.16179072583462
1.16417248526123
1.18450998995588
1.1627265838603
1.15527592607719
1.17085385440795
1.16193869243376
1.19196365977065
1.19468694180965
1.17846601600547
1.13324406969489
1.13813930562478
1.2111546489374
1.15476082466064
1.1678794286276
1.18238808733465
1.20799370713086
1.16933278032002
1.20645851337839
1.22959644514912
1.15844046916698
1.17093710724824
1.18691992267696
1.17075174392233
1.16450483673758
1.17203458186638
1.22450255476277
1.17822947433893
1.17093990149165
1.18401673790253
1.20541946993465
1.16532889271538
1.18350687893757
1.16420146385223
1.23521498951889
1.20109368533451
1.17801596358687
1.18210726517068
1.18954893567321
1.17278016832681
1.22456627471176
1.24686939528222
1.2022069320084
1.1972496516907
1.21777695840881
1.22450624149799
1.18553505952845
1.22711042544404
1.27982042317437
1.23027673741038
1.23485965800408
1.22100006241551
1.20974649037036
1.14641502148302
1.14989847557681
1.18139137157772
1.21562613908411
1.21752552233994
1.20005510158515
1.17057395398298
1.23809876816649
1.24157562678456
1.21573773914585
1.24587145339738
1.26105849612528
1.25500289000259
1.17056688271911
1.21013715225789
1.26659305835788
1.20643933447548
1.21463623235791
1.17951156527132
1.22413347742324
1.18191015094892
1.19036697939736
1.2111518612189
1.18443201480607
1.22600807602873
1.24246058171432
1.20252698634493
1.21266565813399
1.23686936947735
1.23928294244029
1.21996905750727
1.18167129492932
1.21751138779291
1.25962848417247
1.21370347244954
1.20156471890814
1.20606641734406
1.20787437137566
1.22021010675337
1.21228428431467
1.2108980020568
1.18813331383003
1.17570062742566
1.20800347054829
1.21339307666734
1.21062369355072
1.18061475009107
1.18683425079917
1.2210415719706
1.20432170429835
1.16360813431218
1.18467670162961
1.19513706169324
1.1908676973432
1.16222145020224
1.18758791213745
1.19433201836701
1.19376607229966
1.21945079281419
1.19231363694724
1.19000596414853
1.1691038205805
1.15148585141779
1.16499435083584
1.15720323915814
1.14068217425884
1.17119332918592
1.1775153309815
1.13520220499469
1.12822336399061
1.17280129038443
1.1492226828138
1.12426115987209
1.14859836333339
1.13187038777201
1.08315692505579
1.12010666348638
1.13314288082815
1.13836190948142
1.17204732700563
1.12378470421127
1.138523043313
1.16811892073316
1.13237421727038
1.14550824932379
1.07755343964922
1.0402623463032
1.0624368294751
1.10831936480209
1.12132773117397
1.07902961094921
1.08694093972465
1.09091214087432
1.08037298237645
1.07008657038633
1.06574734046348
1.09581859382777
1.0903573637023
1.08333910696159
1.10258154871172
1.0799216090022
1.05597794644746
1.05046398992188
1.09455189580514
1.07861531225035
1.03225192185254
1.04310751412947
1.06280224513277
1.07137777068409
1.04506946372415
1.04502117684442
1.02669914870167
1.02273179239867
1.02226451404064
1.03799812269096
1.03858144681601
1.0257499928267
1.03403290332146
1.04946161195354
1.03764011573198
1.02820244716979
1.02600318660458
1.00681227907888
1.0041357603511
1.00946625757485
0.992579140900136
0.985127813267364
0.99410437848232
0.97575661712998
0.976601783822404
0.989179046873163
0.964597257501144
0.980850519900942
0.973549152203901
0.974909702122657
0.965979782228173
0.967890987594618
0.954733630992241
0.951520708894142
0.953680758229142
0.946675709128667
0.95741237296923
0.933089007411546
0.91981411771957
0.927909825644246
0.917724369363137
0.921004278713655
0.905254119275193
0.909708689276685
0.906961466218565
0.916309753350208
0.89979392170079
0.894924830873687
0.908741118114659
0.890638970447593
0.878131527424508
0.875036230308138
0.878657699520284
0.906478695122369
0.901709790664929
0.878469324194879
0.867526860899075
0.86098856137731
0.854272159610697
0.841155954840904
0.865259859431495
0.87297560479619
0.849381397084991
0.844090577987081
0.834150536710002
0.833632256729488
0.821803667548747
0.821677489916716
0.820417595859256
0.834011890015304
0.826917139903796
0.810198177673374
0.812402873718343
0.807721399348763
0.787726487742114
0.808219377202504
0.79859930266275
0.78734841932636
0.778381930800585
0.777348160847293
0.758529355699767
0.766110691951341
0.767082796835306
0.76043376872335
0.757172257345026
0.763424853034214
0.753572921077458
0.7553603127647
0.739881715817161
0.746091643417207
0.753166667639638
0.730816470131343
0.727018081778763
0.734811709839944
0.725862009099853
0.727518350282653
0.719383095092332
0.720259066995745
0.711713013172448
0.714669617052375
0.707950469528436
0.702929979460033
0.686011309705581
0.692860179106209
0.690531529413733
0.673734488373263
0.6924833899923
0.687322303011355
0.693650499533235
0.695404810971941
0.680418345429015
0.673684295533882
0.683024761959367
0.670770713951534
0.655289336175578
0.650585172191045
0.652341807399356
0.66416967956902
0.661715562878776
0.660942568796875
0.644197176378676
0.650579146869724
0.648897271505953
0.635852426779013
0.631063522535439
0.64379099214669
0.637463741198744
0.635569230055168
0.624321478284326
0.614051701469331
0.621479903471659
0.623369653550075
0.612727757269698
0.623103408343523
0.605741850575491
0.611595827752128
0.617739549944297
0.615692013507123
0.61062709599696
0.599183964090365
0.607240353735415
0.600757853385318
0.581782513395995
0.587997684748823
0.585345598186818
0.597772785401001
0.58614086505358
0.583799972680554
0.586059100277486
0.584414670696189
0.579448778287486
0.573005538230429
0.562243628070017
0.557380652502315
0.565516090402536
0.562145443648325
0.561452507878418
0.564616594686931
0.551829256390671
0.5527314028915
0.54950225272491
0.554355804401774
0.549400764869207
0.541220638300413
0.536779106314703
0.537648801653788
0.534696108473706
0.534713845304327
0.532319193495213
0.532217061656404
0.520322720435379
0.52100024331121
0.519658687806465
0.517866254444332
0.513939609391119
0.522730362095897
0.519718602401465
0.512331744584949
0.500876890351235
0.506935621074606
0.514349745313687
0.501723973003813
0.488870121296978
0.50830415533088
0.499714404352747
0.49556901455157
0.488157513556607
0.485275330227327
0.488027180483061
0.483706474345054
0.484703524109691
0.481187072569999
0.478991660038301
0.479416445475773
0.47923119317043
0.475433392419733
0.468153295835815
0.469020792746889
0.46642633220462
0.473642170749901
0.463350163899392
0.460187751434063
0.464493763009296
0.459825755463006
0.456022217177838
0.452274116334676
0.449581606405465
0.453437471583783
0.437831077380635
0.436558121227265
0.440130744335506
0.442154040255344
0.433629446365395
0.435858421895054
0.437115004945664
0.436170922359775
0.424889708235893
0.432759086557491
0.425789024305083
0.430707815338437
0.42638048469756
0.423686633087014
0.422524236922817
0.423367514052713
0.420621824553863
0.419413273935435
0.424654393296728
0.420722883304234
0.412891542643147
0.420140260866767
0.417339659198553
0.410190760188303
0.41020427901643
0.41481962806819
0.409739614878597
0.408844361588103
0.409422675497463
0.406642346908152
0.40675067247146
0.405367357371988
0.408226581673324
0.411552462087994
0.412966691603955
0.415537064630645
0.410680724455302
0.410467192612377
0.414920265664926
0.415689765270672
0.416649163655103
0.420602046495663
0.410216915333039
0.416766752763243
0.414892672956661
0.414443800249748
0.411450213746255
0.420188701117281
0.422265192661854
0.428187606249128
0.427951641519754
0.431545759992109
0.434392413056567
0.434711205252838
0.435095217948248
0.44274085113712
0.443305584263608
0.440969362287003
0.436592768895743
0.446443011629077
0.445875450283842
0.446687205892191
0.441630981142677
0.446349496338345
0.45354009604393
0.460359708874333
0.453843881512085
0.456508586006759
0.458323943843061
0.456778328897382
0.458161891958034
0.469366471080002
0.469543179808946
0.470537150709117
0.472202992091894
0.47456927973
0.473866986973593
0.480182562294291
0.478013100392039
0.477449804656129
0.474331364303397
0.483853198571684
0.477019559712973
0.48533452434648
0.490273410646127
0.497771628725986
0.502339891346153
0.509798976839838
0.505767155229924
0.518711787499356
0.514383085194434
0.517967444136265
0.515255925705836
0.530598696185875
0.530418567126718
0.524565877156153
0.527356530233502
0.53505731236902
0.531440569633324
0.532391482870043
0.538686793098384
0.544610121678176
0.537195647399053
0.539409107777316
0.543529378975711
0.542599651192783
0.5402405892094
0.540267539101376
0.544509902172252
0.545035856712152
0.533482238980776
0.541651004699368
0.537221218632356
0.540802956178862
0.525971023563086
0.533869826127378
0.526933530826975
0.532802642268317
0.52749055619551
0.535770039137326
0.526760839292684
0.53106642837785
0.527889232794029
0.530062617214823
0.536060836487597
0.525377260936605
0.511640822358774
0.527148159833046
0.519210416693142
0.522030830486676
0.525370627279843
0.527482555941761
0.515351045679904
0.527461012263929
0.521941720241125
0.515599394377806
0.521801574047448
0.524262644682481
0.521047921353148
0.531928159339236
0.519148146056318
0.526170251175765
0.522921480888994
0.52421324365381
0.512122019651729
0.515050960444447
0.520502694074504
0.530961541386387
0.518598984893751
0.518353330071014
0.515306487870672
0.520042546536612
0.517371011110706
0.517955245625587
0.496246614978382
0.509374646907211
0.513236701172445
0.51880170308405
0.515323757440174
0.50233275159703
0.501291161287801
0.514782829005226
0.502537399357836
0.511539638757009
0.494506616694846
0.501497214921908
0.496692741684265
0.48539758298702
0.487116054227676
0.492247544924322
0.483120738057645
0.482770560207038
0.480836677368838
0.47855945832009
0.46786951810921
0.469869681986218
0.463993154986386
0.464987477209525
0.459462500216025
0.457855795246625
0.44638536382159
0.457960516164973
0.451566137926791
0.452317544527923
0.44122601107913
0.444089430946338
0.43626997758788
0.435053627878944
0.429197483920498
0.433198072183585
0.432428963770105
0.432233354054306
0.422251709555314
0.423146728014619
0.412507980066516
0.4068539567701
0.406494100883169
0.403330365362443
0.405454434469325
0.406615393148109
0.396573142979886
0.398555216935961
0.390842911984772
0.393352825851013
0.390941632871166
0.394602850583118
0.385830146811168
0.385348209209231
0.383644538214313
0.382062846183571
0.37785611733744
0.381643385370703
0.374017194550587
0.377244858206635
0.376312313728516
0.372584789467786
0.373168494955723
0.371078226811878
0.368099291982471
0.368617957053496
0.365354561668578
0.368709378112995
0.363741394771527
0.366424644281977
0.355640921234182
0.365544293809441
0.35680190936117
0.355196451610573
0.351823202464727
0.353332720492601
0.353581853734508
0.354918860186357
0.347361435403135
0.345206892171114
0.341669623772968
0.352484534344662
0.347134882863692
0.345530704183533
0.338786973048613
0.340849511170124
0.338788215756431
0.347993724248038
0.338226515546283
0.338380832645401
0.334694501320517
0.336356974980768
0.329419691965919
0.33047003890993
0.332279518084945
0.333414434474594
0.325926854336349
0.331685980025618
0.32518945776861
0.325562912499284
0.328373453073665
0.330873384422756
0.322620640023972
0.324334097758606
0.324140388284568
0.329260605500312
0.320701355850515
0.321237335859553
0.321983337482637
0.321743221526185
0.319862297642929
0.317269739348242
0.316446751219696
0.317903626391441
0.319450227290267
0.316910816619924
0.311877226988561
0.317719404858676
0.311867207546701
0.314701899815891
0.307153278281735
0.311849354123141
0.306961948793062
0.307528622064395
0.306227166025373
0.306306896346213
0.304329581996419
0.307467140558587
0.307085064516726
0.306758992966818
0.305733001421214
0.305364925552863
0.296247566512682
0.300122846509092
0.304303054079466
0.303407927727035
0.298289327453348
0.297044880963205
0.297192418867363
0.302470181135995
0.297249274949211
0.301900509483212
0.295994547246766
0.29888691722008
0.293718321014183
0.295586636240319
0.290353586341858
0.292811818252615
0.293426207387341
0.295517280216742
0.290590519039885
0.291016030738788
0.290777813195166
0.292879325218094
0.288780573357158
0.292173826297048
0.28754562037434
0.292780486966559
0.291246249926319
0.293650629095321
0.288194953254979
0.291391681809188
0.290470709590618
0.289123559231918
0.285658719250781
0.289413169211292
0.289848394185963
0.28639123021366
0.283201297621724
0.285134261431642
0.282467165318315
0.283258668702182
0.281627139180405
0.289253862657367
0.28306572797733
0.283513543755826
0.283505744060668
0.283743850299746
0.276461525731036
0.28347204273387
0.279959203739221
0.279420572604801
0.277420574593382
0.281254694682445
0.280114226960786
0.278320104502668
0.272316316854088
0.276551477850049
0.270410009679897
0.276035127024705
0.273886191736525
0.279602760420331
0.266678240192254
0.274907091282962
0.27059474621809
0.272901678863073
0.267763655692957
0.272694810617796
0.266945359362834
0.269785043097673
0.265297354825677
0.269613777765179
0.262046141467041
0.261068040327137
0.263138407655659
0.265987657789826
0.264120863705111
0.264230127796286
0.26179664148102
0.262620163990035
0.258444901541155
0.266685098162
0.260693397328282
0.261495033758791
0.258178768297653
0.266021514489822
0.255243890205732
0.259254669352178
0.254003377563244
0.259581734375214
0.255635967518533
0.255404803539802
0.252482197510868
0.256993101179
0.249817634356715
0.254303574095324
0.249812307923749
0.250490736270812
0.250099096592039
0.253597795729864
0.246170667525788
0.252904752805625
0.250981678461636
0.253509340798153
0.248555516756419
0.247804192982643
0.238161007428246
0.248938053854392
0.241479766520999
0.246749472081614
0.242388835749188
0.243266339713453
0.238958294323554
0.241079082192855
0.238345267617254
0.239207072648104
0.235897326621688
0.240421981226524
0.229912980508947
0.236823069958398
0.232844403321578
0.236172466251298
0.235272426089336
0.233409337070226
0.230078966742775
0.230856152268618
0.229452196595255
0.228246008881479
0.226105989385246
0.223230091232069
0.222665558445438
0.227708853388065
0.22090875471576
0.223812319359111
0.224293395211031
0.226882344395335
0.221257409139101
0.219449742307162
0.213764421768245
0.220735746540088
0.217799949470816
0.220486589391433
0.216434564314719
0.217138595333117
0.213409542542412
0.215544107691094
0.213822758277128
0.216712025090308
0.211244482619492
0.21525995219479
0.210083449250563
0.212409676474221
0.209786320854133
0.21191145393427
0.209984635472778
0.21064684551301
0.207425978332914
0.209995147046902
0.209475438266588
0.210395447555751
0.201499867447111
0.204917036132943
0.20407292971784
0.207707046255064
0.202331942225463
0.206856540348615
0.199804364098545
0.205312504446956
0.20135326033039
0.205263503626918
0.196968781120328
0.203052196514821
0.20143585977399
0.201402118821493
0.193828575279158
0.19977340089716
0.197105401826493
0.20212730522351
0.196852997874344
0.199554104073269
0.195178098669864
0.198857969907889
0.191251410281519
0.194415948498181
0.193139116423584
0.197908973849261
0.18827400652676
0.190568177288144
0.191239986768736
0.192240318647828
0.188891819326795
0.193366225864527
0.186066811535737
0.191933305531664
0.187576205315997
0.189012002832406
0.182547568672069
0.189537419357868
0.187562528963854
0.188915141657741
0.187869687431718
0.186139989855468
0.183418141404122
0.185672637686997
0.183255999748621
0.185027913086367
0.184513710287854
0.184625138295508
0.181958113887839
0.184234448827732
0.184736851976238
0.187414762800492
0.179556693116317
0.182538355068679
0.180554107563397
0.183133053257645
0.179878557455051
0.183799788035909
0.176909663541469
0.18038154254615
0.177884242208469
0.181990414706625
0.175782618377266
0.183918941173146
0.179818552641724
0.181622650794951
0.177444980951127
0.183297336755391
0.176807527535973
0.177353007579185
0.178233442385069
0.179342263318633
0.17350161496197
0.177890343935084
0.174021157020005
0.176267275934283
0.173274503233429
0.177844488271506
0.173165787157891
0.176231452705111
0.172878340794148
0.176900126296347
0.172353895137133
0.170754470017302
0.16919533229557
0.172088828330905
0.168967938311434
0.172953197336856
0.169976453615904
0.171652881388938
0.168980570110668
0.171071492248006
0.166908329270938
0.168021014143338
0.16800287279523
0.166748447113309
0.166914977378568
0.16830340264727
0.162170775310032
0.170377185672049
0.163576044399991
0.167990340474104
0.159908578949935
0.169203045728648
0.161092341135454
0.1666971296753
0.161282030426363
0.164288944792249
0.160257807167314
0.163570427196466
0.162389782929616
0.165682975092141
0.160550529376514
0.163392967238867
0.159354823656622
0.163936919326191
0.160635664790195
0.164316325608411
0.158465784368963
0.163847615991788
0.157900898717481
0.160266004129456
0.156029152308344
0.160187970180649
0.156332392921615
0.161061060478542
0.159002858193157
0.16146106590813
0.15572792437409
0.159378459551559
0.157395840461298
0.159706809359329
0.152575629100057
0.155179276476378
0.154934143182753
0.15597318720788
0.1538329001245
0.156313576993607
0.149630322719889
0.155988896009205
0.151345198646526
0.152918285295478
0.149910772527883
0.153262239963816
0.147185267101528
0.150130215242263
0.147641636203168
0.149314863076122
0.149701028051356
0.151099651370676
0.146241534966896
0.147542147148801
0.144040093596066
0.146185481010128
0.144767903938945
0.144815283955704
0.142329674805795
0.145526558981149
0.140451192450452
0.14619454300573
0.141583142114633
0.142912685932005
0.139165673301416
0.14504812993794
0.13391291115574
0.139527982638678
0.139541501181582
0.140500354012311
0.135682012958018
0.141019769506459
0.137698687446628
0.139294589690617
0.136577476026127
0.13830309397658
0.134668078594657
0.139948135379545
0.132038092094084
0.13730174743514
0.134462902615847
0.138842776312285
0.13272873107525
0.13529783415702
0.131453138704167
0.134162864842698
0.129667689104612
0.131010380071942
0.129278238200146
0.132599928091617
0.131270265461044
0.132593315095169
0.128496004897922
0.132843507507944
0.127255959843366
0.132206416699591
0.128566741269223
0.132613562398892
0.127817523197287
0.129180414931062
0.126060594947188
0.12892834140211
0.127112406350246
0.128795326611667
0.12368874037588
0.12724068692347
0.122959918303989
0.125521676858578
0.121764132551008
0.124266471764908
0.117263057070674
0.123302137986901
0.117220597281789
0.122622164109229
0.11863571245657
0.121400676830624
0.119110132141069
0.121938523595471
0.11807521423462
0.121236128285946
0.115616680296999
0.119229678226319
0.118503201560286
0.11807706482909
0.115498414727721
0.119897667969554
0.114974521430424
0.116429997392987
0.115353880597472
0.118310934181421
0.114822246279051
0.117105890128202
0.114623504529342
0.115663617064756
0.112148821380669
0.119143698211398
0.113153805429287
0.117786786579465
0.113894394368727
0.113005228263863
0.110719694573365
0.118961131754861
0.111306641012916
0.115835503523072
0.112623926304137
0.116826544771892
0.111818964587322
0.116926937458138
0.110557913021226
0.118582227733232
0.11063083060099
0.114735419007511
0.106068457554291
0.114981038141389
0.107089856196324
0.113837670762862
0.103084266552375
0.110042056541865
0.103872863860383
0.106222240559117
0.0972277079247994
0.104892543834347
0.0962911035974327
0.106774501085153
0.0928515125657952
0.107016614113136
0.0983893114500443
0.10031876794536
0.0903417504284828
0.104869010684854
0.0974772487760217
0.105017881312852
0.0951968451321591
0.106358648275139
0.0955224047331891
0.106871613220124
0.0936976657338402
0.108007811849694
0.0988944758314055
0.105873750468088
0.101842522006021
0.109515999159425
0.0967762795437174
0.1056005520493
0.0937286456840572
0.102971011516818
0.0882523411775197
0.110491251180397
0.0869299042972659
0.107174372153467
0.0850177976857411
0.107407679204448
0.0860718762954325
0.111018058117813
0.0809772946100087
0.115119064353856
0.0778689879287287
0.118005067782497
0.0786536236912643
0.119765978086869
0.0759718892382036
0.122561821855475
0.0733933647752382
0.127880217735358
0.0710912677254234
0.12896128765682
0.0692675194021054
0.132701487807023
0.0711491915744539
0.133313235703476
0.0729884945469263
0.130203378687225
0.0793610956238329
0.121678199577159
0.0880275629936199
0.111134532852868
0.0979483410093656
0.0995340896404518
0.104517115268308
0.0914334817692753
0.114986870425882
0.0881150181510891
0.114068185837223
0.0897246140041423
0.109118594093637
0.0922837213817913
0.106859590006922
0.099372025747492
0.100628598273408
0.10251123195818
0.0997562693432985
0.102583263549426
0.0949927259725916
0.101272219287361
0.0991003374205411
0.095696709800936
0.0983090965869839
0.0972399452827188
0.0987105127482059
0.0964340152151936
0.0984066735812185
0.0960209106880816
0.0964455824960998
0.0980370415459058
0.0979280356770173
0.0971927779157305
0.0962381271204598
0.0950410709727698
0.0945515809842628
0.0949389486379348
0.0984792580834344
0.0979692537721336
0.0952928202723078
0.0959936561108789
0.0966603045354165
0.0982097325220812
0.0952750983230747
0.0950927692923719
0.0962114998059628
0.0955555073224598
0.0987946740924416
0.0958396690858436
0.0965341969962575
0.0988554957211409
0.0973406361851202
0.0955127647790768
0.0948103004592066
0.0981858284609221
0.0957875317402049
0.0973283313401704
0.0978858223091174
0.0998872269783633
0.0968979025964205
0.0969695266239168
0.0963755542151502
0.0979848327037172
0.0960238154936119
0.0979820206242434
0.0974638602131318
0.0964130484600948
0.0952985929171223
0.097233767811469
0.0959878302935435
0.0950751217123416
0.0948959854430187
0.095717829477185
0.09640878165311
0.0985678761125023
0.0977308978261438
0.094460412956278
0.0968356844644288
0.0947405089585065
0.0928978766402099
0.0983017708184242
0.0960111054816137
0.0955861505325566
0.096206230207542
0.095930710613449
0.0942561332589343
0.0932466511399657
0.0956927827711074
0.0968046962309736
0.092323429984838
0.0967394077349969
0.0943544474705658
0.0955308477169579
0.0949639875785089
0.0964387301327674
0.095671780319473
0.0979804194887094
0.0943357892109908
0.0945536119554085
0.0972286563176889
0.0972259240306764
0.0970281088217443
0.0955353583586801
0.0939467564765408
0.0982415241832846
0.0981138362582875
0.0982769095128551
0.0960945836736633
0.0984199274212068
0.0952657510283787
0.0968619277384502
0.0964727278208485
0.0985208884940495
0.098166205389037
0.0978733320163546
0.0961296961292355
0.0980908173991778
0.0963317791956049
0.0984254730978714
0.0982707927641056
0.0985538906547643
0.0976565674591619
0.0986304106780556
0.0980559208059504
0.0997979661901685
0.0994272771111507
0.0990814114881049
0.0981360288563674
0.0989118625544007
0.100400850695266
0.100447432061796
0.0977607813688359
0.0993800534301099
0.0967764816623291
0.10171358453806
0.0990355346261789
0.0998438540701288
0.0965629930751906
0.0999485219570918
0.0968761805483652
0.100181655736241
0.099143163769777
0.101986889313131
0.0963558757356615
0.100485654028766
0.0981766516621486
0.100555151100229
0.0981131806496395
0.101999631542222
0.0974238722002738
0.100501018097583
0.0980889495673559
0.099992156118991
0.100595329691431
0.102365644320239
0.0982223147524538
0.0985373095020101
0.100057341906907
0.101173398841775
0.0995483378848862
0.100754572379041
0.0985666862947111
0.100013199581967
0.0991402747958634
0.101303116205253
0.101448858806545
0.104283332737391
0.100523211206763
0.101374813862161
0.0997063213695441
0.103179328121056
0.101893767084646
0.103126489946239
0.101497460406353
0.103286915028061
0.101250690237155
0.10407786292867
0.100398217131526
0.103501241480788
0.101789169781412
0.103895400225247
0.1002465543267
0.103176903402528
0.104651340100863
0.103667263007407
0.10095032919711
0.103118325135646
0.101907012459996
0.103708545480149
0.100111103515341
0.103202957307795
0.100215652530605
0.102416447729714
0.100881225779841
0.104164753229132
0.0991675024870272
0.10308261341739
0.100962727099035
0.100199766716687
0.0999137951917372
0.0996095715879801
0.0979223190288871
0.0988824634336801
0.0987059150821456
0.100351758188862
0.0958166588669764
0.0964207848667649
0.0978724690183637
0.100104944977316
0.0983465227055173
0.0973255302273532
0.0960221037052341
0.10103089239426
0.0979112112864145
0.0982639703720342
0.0969290790859649
0.0982853638983485
0.0953396254080633
0.098282214232178
0.0965557761329594
0.0972375465138076
0.0969308514152949
0.0991161492235181
0.0957362619980226
0.0976829754877427
0.0974092815391856
0.0984742064525955
0.0974760272662014
0.0980537142458286
0.0963730570631238
0.0983277306460912
0.0952811400138176
0.0970006512588644
0.0939861285810184
0.0967865623606876
0.0950237581924138
0.0966329635278208
0.0927475438502748
0.0967995735200335
0.0943581924818819
0.0947213062824995
0.09154887798226
0.0955775225810796
0.0957472638744204
0.0973953974514866
0.0931842824120979
0.0976827990952327
0.0951837775006828
0.0952540164977533
0.0953713548281473
0.0959430746623518
0.0941911703618644
0.09607581984153
0.092183655110909
0.0954252502736448
0.0923789135395917
0.0935998779977376
0.0925865956198422
0.0917542362229434
0.0931307572674202
0.0941497900357892
0.0914028200864496
0.0937626627741251
0.0917703767236268
0.0948879679765998
0.09021624040844
0.0932056028162895
0.092106345566195
0.0930385239437902
0.0926939178847857
0.0947483642479491
0.090426565569173
0.0940325422774622
0.0946261891484333
0.0951622725133288
0.0905901742568925
0.0922013963143247
0.090120065627236
0.0929451354316027
0.0931322611653823
0.093779578012366
0.0893820710220643
0.0910466954720053
0.0884384966559708
0.0922002664772659
0.0872990787116868
0.0908213453079355
0.0885553649285909
0.0917535462014299
0.0882077466421119
0.0903822744901415
0.0886227630303919
0.0909482028917799
0.0873038020826941
0.0911300041147487
0.0882574552088063
0.0921196246056698
0.0866587265728082
0.0909033683554094
0.0919753945442096
0.0900435104807658
0.0876555657410255
0.0874603708992014
0.0877396918719147
0.0895256542578884
0.0881697835426968
0.0873103987221095
0.0859234314115795
0.0868478139951477
0.0855484987753444
0.0846573852942004
0.0862237034653685
0.0866221910562901
0.0834088260347231
0.0869141357066601
0.0854321861741407
0.0843520429644032
0.0843808203194443
0.0859771006386209
0.0842582140132059
0.0871286043798584
0.0816827124065923
0.0853090025321817
0.0846907270003746
0.0803970487400351
0.0864866739558085
0.0844540455774956
0.0806990035127109
0.0808606772789327
0.082249755804777
0.0824966452530202
0.0807460360677029
0.0820061130502087
0.0799945277937337
0.0788503680905355
0.0795047732863366
0.0771826673909558
0.0779788462566973
0.0775061679096883
0.0783321459424353
0.0794328707427777
0.0762913657410427
0.0783744356240063
0.077238022542307
0.0747575171701057
0.0776875350340615
0.0760618714574306
0.0776601441320961
0.078654958543831
0.0765398354251363
0.074118733841721
0.0780217310825553
0.0878064176793718
0.0783365612290412
0.0783202443236869
0.0759524415302914
0.078490012215738
0.0733010305777228
0.0775398659249589
0.0715282878664901
0.0758119327291406
0.0765911047226036
0.0767619337952298
0.0739993481469292
0.0759901865321553
0.0727445984419332
0.0754400449779475
0.0736241036583066
0.0742106193876879
0.0722041329667148
0.073703417662968
0.0704229253304333
0.0748527062214136
0.0724958647888897
0.0736590129280286
0.0731028731357366
0.0749233631335161
0.0670725606725977
0.0809397043468723
0.073637158256101
0.0742545825787716
0.0700523820649073
0.0745800237444888
0.0710703949510235
0.0725337145233749
0.0665801127411621
0.0709906398727856
0.0683345237997339
0.0711263077216678
0.0720039079073868
0.0716180264798068
0.0694181885460093
0.0729396957720544
0.0653211299420782
0.0694022290967914
0.0679935264009519
0.0695908510262144
0.0668399009279734
0.0699093498096007
0.0639033745426202
0.068619943533419
0.0666027654823791
0.0726029515896581
0.0634497791353276
0.0729301550650199
0.0879420362855167
0.0673608505563194
0.071374943505322
0.066128639311126
0.0674283732616465
0.065475161346616
0.0663346059767482
0.0670627285120577
0.0668336241875226
0.0660378574439831
0.0665074286410035
0.0659607891866476
0.0661920876194962
0.0685311575954402
0.0671846816111923
0.0667386709400717
0.0661402427006385
0.0661103347998544
0.0656050791156713
0.0633601742692881
0.068612352551755
0.0796242450313534
0.0692429593651902
0.0665483358939472
0.0682747042797485
0.0567988868909022
0.0867379331132897
0.0716675445361521
0.0656793794182445
0.0674231803195567
0.0645164154313626
0.0617080512592919
0.0645425083708106
0.0640076905702694
0.0641705067243485
0.0723061973778614
0.0631644556228814
0.069468737712719
0.0624778917530359
0.0648954957307934
0.0621656728949617
0.0658868511987677
0.0622517035810486
0.0636250180170729
0.0624671208907849
0.0647566955242684
0.0640286564203188
0.062194680188368
0.0648504992199591
0.062257211349819
0.0647259832770423
0.0686055619629888
0.0619564726730804
0.0631306181844974
0.0634574268392415
0.0605234007409191
0.0668042724886885
0.0846409791502026
0.0605998173675716
0.0677658122111851
0.0600059464722383
0.0654899799722713
0.0616888058159813
0.0652147108229399
0.060299524646131
0.0639157376940528
0.0593260250997802
0.0653442667121429
0.0610189392452825
0.0650094744245119
0.0605571837911274
0.0625846519810763
0.0601747704355759
0.0615429843440692
0.0637853605043957
0.0645921019253701
0.0656385426700123
0.0599158315501124
0.0762678467457607
0.0839529387412494
0.0703068786398466
0.0751590120569524
0.0644572411866431
0.0654431543993882
0.061545623227988
0.0668463179496256
0.0597038742318038
0.0656043655004458
0.0595550537140782
0.0669480624807441
0.05925908311948
0.0653375140270012
0.0577623457552227
0.066231290295619
0.0589883805016412
0.0643685835556488
0.0576229150876287
0.0667756803567102
0.0568289272193173
0.0670271208902942
0.0554290637406549
0.0720210171749724
0.064073741752833
0.0750647924453846
0.0500877467178079
0.0968476701852918
0.0847137419034795
0.0653598328375102
0.0710408437101872
0.0621231341500674
0.0649331666186491
0.0617333356951628
0.0647664814098061
0.0685525611634925
0.0631508015355393
0.0613184950350341
0.0640328327101658
0.0665715831165965
0.0640402773621949
0.0581494857921115
0.0670396563688285
0.0968192940880215
0.0688660679184758
0.0717927345977634
0.0607443539411383
0.0673305550349342
0.0925891829455004
0.0657780580000848
0.06837692471911
0.066999981986415
0.066323328895169
0.065943595697356
0.0666587127379133
0.0645951121489673
0.0689574673442876
0.0705925889523913
0.0632523658718299
0.0667297667256427
0.0635753893992771
0.0732694056046512
0.0644345833136818
0.0758630344869747
0.0754873366611283
0.0637785598000258
0.0707513225870943
0.0716158320547966
0.0668618486481209
0.0692027693929335
0.0659242901016837
0.0650850051608656
0.0734324302059922
0.0820025927133239
0.0670650171763751
0.08270923116463
0.0802081324053834
0.0692529113711489
0.070575700782864
0.0731283739418989
0.0802226315335975
0.0651809129196426
0.0737626432794646
0.103755624838045
0.0740586028877587
0.0934762878260292
0.0670888340789518
0.0790360830518968
0.0650493966882219
0.0756836552713914
0.0594041829803751
0.0917914132940041
0.0683103134079565
0.0795620741575312
0.0623240017821551
0.0845174524203968
0.0836094512785738
0.0784365743540609
0.0745990602647746
0.075913664385015
0.0699081548362649
0.0849688066174824
0.0784598623758478
0.0658304114676704
0.111026999678183
0.0987342628538326
0.0942800960652885
0.0839718100587332
0.0707434601426694
0.118725834190307
0.0793917493556281
0.0865990690288673
0.0748204861384333
0.0823745877009959
0.0734891188448623
0.0798299857311706
0.114586782755798
0.0914400816314478
0.0798165211591558
0.0883603673270458
0.076253918433816
0.112295878733418
0.0974446321415132
0.0898913932065109
0.0874060676980347
0.0984450253619235
0.0794475925722073
0.14149333002595
0.113026787821466
0.109963091258375
0.126821989347196
0.115449693127684
0.116023587008748
0.108724778590959
0.105196949958086
0.114185708281759
0.123490294894646
0.108999624972472
0.0960827096088681
0.120940092929217
0.13733321042519
0.102493475702161
0.116682402243217
0.104946233991211
0.101935826251198
0.139729311373863
0.175446624840607
0.139960915712447
0.116948857464467
0.115769551680783
0.141290113918079
0.117836500806402
0.113279126578538
0.110526981776702
0.111767060201588
0.116320397372687
0.113487148642538
0.132101883874082
0.11752379268387
0.124672111090477
0.11917114031336
0.119880739423698
0.141244152946821
0.175727071523496
0.168853769733503
0.136317288843465
0.166697081959123
0.150106229851122
0.143199635311252
0.139479356956763
0.136240894936748
0.146318988067537
0.140984973277372
0.145336138884714
0.138592988615213
0.172731182649492
0.163508845712653
0.165132787723992
0.185832952876371
0.16340525023927
0.169815392342876
0.151486870718748
0.353176984194565
0.204386152340662
0.201423162765477
0.191901317758472
0.200925664419986
0.280644271322526
0.224166413173005
0.217920338548832
0.224249475311237
0.227925516142968
0.239971397837335
0.256459410018208
0.259804520342465
0.277576865268923
0.276284744872204
0.271751051611312
0.297635214907131
0.368254033767433
0.360170576922629
0.336864304327072
0.311799215913884
0.341228701152091
0.354746868279602
0.339430477893809
0.355595800465138
0.351384637143451
0.361473430757342
0.45258551146324
0.389521447253621
0.395257262152692
0.400127586556518
0.446928836627357
0.414148258059389
0.483537337712175
0.473695537721539
0.458538009631037
0.455953985389193
0.46668936107053
0.475167549495532
0.467148487154471
0.525897252913458
0.521231145945145
0.509647044507842
0.517573409536232
0.513768358184688
0.528633740261806
0.532224175244216
0.54501224160593
0.546288840670795
0.594913622490414
0.583352982395048
0.736265940693455
0.59804754438208
0.559866069032839
0.562147714830596
0.552947038745568
0.610532937931151
0.584565737690154
0.611839006911211
0.607599016558448
0.562162711924936
0.57156890690979
0.563025488403102
0.570825646059469
0.562619056627724
0.576016396259068
0.572226263205537
0.59793379147983
0.564395570807659
0.584578890329276
0.655357143535275
0.570343001193853
0.563149842612564
0.558273605645597
0.54630007838809
0.557295694969078
0.548075984209815
0.555350709494753
0.577079812761394
0.552313165713253
0.538728318827492
0.520901658618791
0.541044340899946
0.562811819695605
0.505516180758829
0.504423596579275
0.490765887135739
0.500319101017643
0.473795681836823
0.482912367736491
0.558629260320072
0.476417265942912
0.462615526431328
0.456243427552405
0.453500195241844
0.450933039931448
0.435354170592289
0.451740281050515
0.445430338453326
0.440142078976365
0.440052679758682
0.431847939726087
0.425460835641429
0.42615875497223
0.429297459163642
0.427885342528474
0.424293234136257
0.430070611771656
0.422413576126517
0.421182381104436
0.418376932262148
0.4202359198808
0.418901306985274
0.426530922368779
0.427468722783324
0.422912051474169
0.424208201180815
0.425051947476789
0.422170322973118
0.427202370609353
0.419441387190957
0.422805846704676
0.425602875238195
0.424821450862969
0.415238891269857
0.418899775285646
0.418645634086033
0.420542093719623
0.415318391902394
0.418876869667653
0.41398535566548
0.426706188159206
0.414770023608308
0.482537335047676
0.457130100159648
0.421099603990225
0.421529544668051
0.421370391350787
0.419063438505702
0.405303686656795
0.450250715840958
0.44736427943749
0.415814353640107
0.416577108335922
0.40626697499816
0.422475157513974
0.426438086429122
0.413183091023381
0.420692215845213
0.400881683089006
0.450473391852463
0.496563839023247
0.466588896200226
0.517592798145613
0.439807750665531
0.413738202003461
0.425594434701587
0.469925964938647
0.423256061845153
0.415523283810869
0.417214251950467
0.455608787404628
0.440314011785236
0.415797958675431
0.419725634245237
0.40826851667865
0.436571933936906
0.451165598684964
0.418194127906468
0.431919335023333
0.454874156844696
0.422333858577888
0.437606122520593
0.477056220031325
0.436901920767499
0.395229103525718
0.395225139278202
0.390714214325282
0.397252292558031
0.447238985071593
0.400712408920978
0.39676666258568
0.378276280468402
0.367476071536381
0.376200560786938
0.390934654322847
0.378235824476096
0.366401820099683
0.398452989332224
0.356390940011964
0.359072317224257
0.377541094164869
0.396692372006809
0.409290500846989
0.354186635065094
0.33517679284734
0.36341914354702
0.385883826207753
0.343470236490834
0.350071793726519
0.321262291026798
0.324292914990819
0.343734890170855
0.311303074751194
0.315821491515205
0.32692370029631
0.324943165261048
0.360877502806077
0.370027453996445
0.35551951653388
0.30645420647858
0.281998879450143
0.281921082812932
0.282182246316362
0.279277357450689
0.270721041775382
0.294882263233642
0.289088144729259
0.27029171956216
0.326613117700242
0.285548839099282
0.273049720307355
0.275987546825006
0.268424495550132
0.280327022977556
0.313763625549199
0.31477805059478
0.296486524373655
0.285326832815271
0.299145345577997
0.283382589210943
0.283369285833823
0.280647930349251
0.289977984859154
0.289776369671683
0.304195433522663
0.307087975761869
0.305265330437252
0.310657840125151
0.315230657217241
0.342014717629915
0.36062683878444
0.32648056128453
0.356036477291782
0.376144479927451
0.396283931947625
0.37567775471954
0.364051016117066
0.371376245388043
0.373591589937307
0.38218061589134
0.379644937253743
0.393696455248572
0.426738809143377
0.398430769702514
0.401494416082738
0.404314193747373
0.408654932062755
0.415758192652298
0.447990721401555
0.448113771618815
0.475435713281665
0.4932201587074
0.45046958511869
0.442053907399033
0.429338276482648
0.44461748791548
0.448504647824928
0.44057719823843
0.439756441157439
0.440696882111423
0.478493614712817
0.457919738438236
0.450747439451828
0.453373840929407
0.45421089998248
0.452118723836377
0.453791746269121
0.45910044518654
0.457910857221289
0.465385763800208
0.468707211609037
0.465062065460759
0.542752157668883
0.49793217313705
0.475158732119178
0.485473586368977
0.485379719099294
0.48733298622542
0.47982859927005
0.50365066232736
0.50380901067208
0.491092187893376
0.498536497154311
0.502725843571023
0.504698817549607
0.514609548870411
0.529444833601813
0.520780488496809
0.516795392354127
0.507731885295762
0.538485568037542
0.583425480193185
0.533164238671054
0.549909427360384
0.542789194356992
0.535683750764255
0.533391826996216
0.529299005231505
0.541252585186135
0.545337070040453
0.540468487749022
0.539280939198583
0.538508639252116
0.538039193254385
0.534599339803861
0.536946659137999
0.563676343149012
0.54808755370346
0.533138342912968
0.544324549330973
0.540274398114123
0.537978378458338
0.562541668142194
0.564148403251922
0.544940000482571
0.542446977954907
0.543876436681635
0.564844316278124
0.557767691676067
0.532910725255145
0.535134810406864
0.538421248898037
0.539583111357385
0.537309083278388
0.548967756691613
0.565975712733596
0.55075678836921
0.5389945155245
0.539150813597354
0.543188345051493
0.542196826941738
0.545054900104905
0.54930794488791
0.548336628812691
0.559136611911658
0.555284215450211
0.551576527371447
0.551958976516073
0.561300733377639
0.562232935729344
0.567647780669071
0.553814633018043
0.546477014885795
0.547922874324814
0.549610986252158
0.554601711443131
0.538123435448706
0.531038923436581
0.535433519572328
0.523714766328537
0.526606665738912
0.544433801434608
0.530451775844027
0.522230311423322
0.517003797410644
0.502305671153373
0.505943889003827
0.498489844899873
0.495918422595273
0.494037292807156
0.495642012443781
0.48915966361043
0.489820434998971
0.484458077796046
0.480805698945372
0.483797973804441
0.481938792581803
0.479170350862488
0.480502695432577
0.47443076991464
0.480331030419961
0.478227258786218
0.477120809821045
0.475749686116235
0.480834525604035
0.484610847367169
0.490111446834408
0.492756208369185
0.484265882493143
0.473235961960637
0.481238379444167
0.474334370339449
0.471307360982264
0.468287465448925
0.473972937198889
0.472931326671486
0.474580937042511
0.472642585304029
0.470622691130316
0.472200969168171
0.471601846878401
0.469090898917485
0.469375649674926
0.470135500633773
0.469628488948723
0.464114602181566
0.467713165423473
0.473572515084201
0.47845799995603
0.476064359091745
0.476282818771577
0.473843365401976
0.472113647770342
0.474001411287718
0.473007254339851
0.474651345818629
0.475301836076525
0.472880654054046
0.473246130096161
0.473508114037301
0.47281734521325
0.466584525211828
0.46936064633155
0.467954215342748
0.465167469406772
0.466328396243326
0.463624849852343
0.458330388521473
0.45734941143598
0.453583144757764
0.447836982833186
0.449681716563241
0.445065896037773
0.439583957742049
0.43754998829882
0.431138750805645
0.432915902539287
0.427867679745374
0.424006487034189
0.425310638204297
0.421455267053949
0.418424633523776
0.4172769710689
0.416567483520282
0.416762763698343
0.414625277061238
0.413701936724491
0.410954472983019
0.412208269797381
0.411247941386321
0.411310398469486
0.412661473323838
0.410758898227637
0.413407023916141
0.416603089012999
0.412696836663564
0.41276229090893
0.413660964084953
0.417660579313915
0.421497612657801
0.422401247768523
0.421749026730943
0.426122094058356
0.423550724313902
0.427094303895636
0.429591644257942
0.431948178310401
0.431263008288604
0.435013323817097
0.434546759683561
0.43428042772179
0.434773747324746
0.439038711682689
0.437086678341351
0.436069198146776
0.434725485774188
0.43876294192243
0.439906619071739
0.437860207420975
0.437040492374699
0.434457355416687
0.433523009444158
0.43430501799957
0.431668276244016
0.43410380791782
0.431104640761909
0.430240035312092
0.430882190012312
0.431826929176437
0.430175191093513
0.425379546709391
0.422960879177016
0.426969993610978
0.422684670634076
0.420535479236839
0.420567074622125
0.418969110109761
0.416706740743112
0.41529703347882
0.415011579600879
0.41446193409403
0.411309903919416
0.409573998937679
0.40882908422483
0.408206883712044
0.406066504763426
0.404420662036922
0.403264960858826
0.40182847088105
0.399263932023673
0.398360018623275
0.393348280743293
0.394095697514095
0.390277137884959
0.390471030633895
0.389874588963539
0.387274723620893
0.384069381533719
0.381565426763517
0.378773891896991
0.375900752721231
0.373849860876885
0.371823556495057
0.367533798953328
0.363632436469947
0.360492474222708
0.35980876856065
0.358092171056488
0.356706643044557
0.353928012937369
0.351349264018111
0.351206911501014
0.352023939434501
0.349826808713844
0.349842681243972
0.346981236276819
0.348193846783345
0.346089254519977
0.34381235177812
0.34253662635111
0.340276361684253
0.336680782303539
0.332380542857258
0.328615609184035
0.32614166148789
0.322156664478127
0.317905541654657
0.316143949932633
0.314137668564616
0.308990174943122
0.30889097021196
0.309247400735167
0.309231776093322
0.310952036678329
0.314116334766788
0.318482936930508
0.324139842703352
0.330277330778304
0.339223970167194
0.347888529193564
0.360127294672908
0.369447168886089
0.384016413909955
0.398354817322165
0.413432873588909
0.426270304795884
0.436077106022884
0.453093544149223
0.465758303937501
0.478983753545657
0.496319036987869
0.505230631296796
0.51839302454915
0.530350100319217
0.541758922914217
0.557409728394872
0.569984643621727
0.576446672189714
0.590787601600132
0.607606400111384
0.610339647198106
0.619398740446108
0.630560839127262
0.633046892487294
0.645015425059369
0.650815672558251
0.654566516342372
0.659401690681883
0.660730772598498
0.664999432059464
0.66615388049841
0.667765532800568
0.670223108404125
0.67291123566137
0.675106614002156
0.672208367314952
0.673369792374705
0.674714150607629
0.672798896933123
0.675110899506317
0.674812592504805
0.676785292030071
0.681142997719802
0.685134233517177
0.687660293011285
0.691788709203057
0.698519612374091
0.704241380352207
0.706426751383469
0.711895104798715
0.716555188204704
0.72749616676634
0.737191078726907
0.735607456042971
0.747500095311111
0.758721837016889
0.767379384003251
0.773789057083629
0.790658399563551
0.801285352112005
0.808320856326961
0.815278757312984
0.820793494630311
0.836128717764386
0.845381432756009
0.848806023214424
0.850766683967276
0.84456773955236
0.849969559864185
0.856252389207123
0.857161350193185
0.849286703866592
0.845282113930392
0.849793620386375
0.837441680296213
0.836509007282647
0.840649403950311
0.832307172747166
0.840903119813527
0.849877964355062
0.856987605395814
0.863792572115873
0.876344727224458
0.887335484336715
0.898491967304176
0.914292362379156
0.930341573914827
0.933916223949087
0.952296871545904
0.972451620418844
0.983242296496809
0.999216277701456
1.01165503702624
1.02296565605794
1.04179965796174
1.05436768010901
1.05558349852214
1.07346348261419
1.10307868401666
1.11249011207544
1.10976209643108
1.11841853007166
1.15006424780281
1.19046218312029
1.21214478699711
1.22283506305781
1.23550436544646
1.24986986098642
1.27591619545608
1.28194795120249
1.29734206625479
1.30828121489035
1.34912616449026
1.3595592396962
1.36074115821796
1.36247764363103
1.35163929538314
1.37476110339535
1.37979660135453
1.37493336608818
1.37328581798494
1.34557940521253
1.35670725213042
1.36404500434119
1.3619994913349
1.3462101146085
1.34684793796708
1.35964665315986
1.33784812702772
1.32171479238013
1.33540764165064
1.33701952751151
1.34796152558483
1.36821343411168
1.34564786477079
1.35825257944846
1.38364551180042
1.3762326620319
1.40238217750052
1.40054198831961
1.4259429537634
1.42841901337432
1.43117325551993
1.48145047500632
1.49270802951151
1.52124965100767
1.49764293762448
1.49065459609178
1.4993083661839
1.51181396644151
1.55012166057966
1.51058583265263
1.52105974821456
1.53880642867395
1.55684843601103
1.52968556831092
1.55773326313501
1.56069966878637
1.54893109114369
1.56166890896924
1.51830235469959
1.54374699594037
1.5680678172419
1.53833828017206
1.55459591982794
1.56621349590745
1.60498191300372
1.59614733189216
1.55649217476895
1.60198896614779
1.57051760935058
1.51465702076502
1.52337825751346
1.48426388896793
1.50943217932197
1.51034895121688
1.4466913593379
1.40472112974328
1.38185557894366
1.38575319714767
1.38514971047822
1.33526657311903
1.30957095331348
1.26726918035725
1.22305159677932
1.18848772242596
1.16774649889128
1.13480170494854
1.12553096764969
1.10233746313341
1.0660878941147
1.06900491015481
1.07928972360538
1.06153302628885
1.05830890598776
1.04819566959194
1.03998025994063
1.04563366090015
1.01986253269006
1.00878188140235
1.00901862609483
0.995263383237072
1.00011112480693
0.988465066961986
0.973570843337778
0.956330512150191
0.948905648463192
0.926920710873899
0.903022551717065
0.886475998827922
0.865860205121475
0.854367274288825
0.831441841033461
0.801002580462665
0.774783938772388
0.751413627281723
0.720821792656371
0.693266101896776
0.665538892136663
0.641849039650515
0.615302590165989
0.587651926888725
0.563242279147721
0.541010452191698
0.528045738485056
0.509045882446461
0.489858873046666
0.47484862936689
0.466379685280102
0.452222717503604
0.437534599736996
0.433829553980786
0.423811060856901
0.410422940699756
0.412280743710726
0.408376979083251
0.399737500843761
0.398504144536765
0.400946310736171
0.392811039611799
0.390997207982991
0.392850515659039
0.399574236254372
0.392716153464447
0.395932189806497
0.398960435992067
0.401627431070474
0.402512535529388
0.395207576697185
0.397048834221987
0.400146104845054
0.396768860909501
0.394555366116475
0.38828663790421
0.387647610550336
0.387521258299405
0.381750789604683
0.377176416429364
0.378287755643813
0.373420354537114
0.37452694814697
0.3744161689287
0.370986848819984
0.372986226630772
0.368157826711272
0.371250647506775
0.372500577172054
0.374825479390085
0.3736123430461
0.376852859407698
0.378687369534461
0.383978794894876
0.380487178434639
0.386888379227356
0.395438221285485
0.39223329302385
0.389176108277648
0.394218238642947
0.393759440625647
0.395132098327231
0.396961269782836
0.397789953560849
0.395652427321461
0.394600123741028
0.400378253077689
0.3942173823322
0.395182385815938
0.402544027048162
0.403640755920276
0.400380580270216
0.406257675736986
0.415733737802998
0.409994096993189
0.413470108741533
0.426175277860471
0.42815619083958
0.435962597221532
0.443287818216251
0.452918715500127
0.46211713927467
0.484450065300436
0.491469653434637
0.492670340831605
0.503642678861083
0.509660073418984
0.515362244772055
0.50901414212696
0.504597790988409
0.513675263314541
0.499176705420441
0.493209498498053
0.496775593651212
0.484501725959235
0.481582057886915
0.476333604745074
0.46699526322471
0.461815905970381
0.460509095612329
0.470978944596852
0.468109300745712
0.473813475059983
0.473820811382626
0.471301576874581
0.466361431478043
0.467892873224452
0.459293279671097
0.458554869408577
0.456978418248673
0.469223929112084
0.467219072442499
0.451706544814567
0.444036115937188
0.448955933971002
0.436656107812973
0.438307772218562
0.435298546641597
0.432039810683206
0.431756818584337
0.426816501042328
0.433346160775011
0.426612428204713
0.421074630887609
0.425920656589542
0.417542312187499
0.421133638229979
0.424579109912098
0.420618571802883
0.416973353596731
0.416905972344403
0.420836920187499
0.4107075169254
0.404736435709503
0.415715662829448
0.414086274661298
0.4052383839507
0.395852868018556
0.408034737171053
0.39657611260798
0.399699522731256
0.39139989879199
0.396210153353777
0.403553621580467
0.389617278872904
0.381594596059045
0.397211082258597
0.392189151660616
0.379282255214416
0.38726694165404
0.394184601760365
0.383282948944071
0.391116493698039
0.37749922721823
0.383071305490077
0.381102195932279
0.382434497839846
0.382875301828388
0.382852005727445
0.379493886245281
0.38705299804617
0.381050743116265
0.383741079539299
0.386786558794769
0.391535600771907
0.387050309509061
0.388257975469825
0.385938584132224
0.384727601852411
0.395674669704426
0.406152689202341
0.392250355901134
0.397705543253124
0.394920054662804
0.395115351858736
0.408077379091566
0.41154744665061
0.407426788019317
0.407149892248459
0.418209868672879
0.428860496464641
0.426202877930623
0.427489020789696
0.42267685653304
0.432049411975866
0.442403123534057
0.448537379930252
0.453716964689051
0.45836221046638
0.464622240278365
0.495621836292534
0.489185916084237
0.497393505056714
0.507670970262765
0.498214586929883
0.511717378666896
0.523854885311409
0.539429594102933
0.571119555759346
0.566112072400167
0.60079156114329
0.605094889628383
0.598368804086219
0.589900170628869
0.613792770310081
0.643215264598612
0.63728442030417
0.629323240051938
0.640398314201091
0.61287464003269
0.620337442553107
0.617541302831394
0.633843003345891
0.621437785969467
0.629345306290366
0.604685222728117
0.624133340264655
0.615072247157828
0.627147458459546
0.620535046046335
0.624187887896033
0.584763935120386
0.603845292510916
0.602534772568274
0.590212392335683
0.57340708110232
0.602794404539027
0.578726161993101
0.6063993281835
0.600388885722586
0.5867413844317
0.575598055588408
0.595258450802817
0.581726759140313
0.583153121903564
0.530810622093916
0.559574333827349
0.559131762964304
0.586044381094489
0.579104341875942
0.551139073555549
0.58511059790853
0.562815922845315
0.56252966688608
0.602377499361527
0.603222649313803
0.562473915058771
0.550983642928624
0.605171673217896
0.56326131151922
0.561306674856124
0.594439011059871
0.560685466779582
0.54756994649741
0.609402285401325
0.579587155400917
0.600533050529817
0.596905043145458
0.594312978092434
0.60608634049793
0.612793810411895
0.625374604620173
0.58622972629331
0.576416314991767
0.586000591912886
0.594535121947549
0.62630872797501
0.560540072939581
0.588635122642122
0.646781679970084
0.549402101464387
0.542267903527193
0.669207518189682
0.606488816965015
0.608961603208156
0.607487257269501
0.663284549279061
0.674859992698057
0.77003292437148
0.675938300512173
0.692611410044261
0.726811629751859
0.770518350791218
0.699957783761318
0.720265201055526
0.678220405234357
0.872788341297671
0.797764817238542
0.797916866757
0.836988817175246
0.763438144481385
0.732335893832269
0.823615687021391
0.794102131764738
0.878623106460596
0.701184678138171
0.805400112696953
0.751982145908619
0.775109121596078
0.757919067335777
0.713553499666398
0.764589611534372
0.821222364477223
0.745091690625196
0.863292390494634
0.710359650576223
0.84938586134648
0.753269861803304
0.681781694674602
0.619918070656647
0.831989208397931
0.817060691356536
0.959569816155075
0.736967958442848
0.65536776239087
0.748263589145676
0.834903515770907
0.688670814396968
0.801861282574322
0.701403257377366
0.715495415943404
0.774283078426694
0.745733763957482
0.668599090334834
0.869451116872175
0.880014894688949
0.850514309933592
0.800573943052823
0.911358000815075
0.643750559685628
0.752673774508304
0.814364676317147
0.844028411696021
0.62079580766088
0.892775361254076
0.810741097185701
0.978639042597706
0.767296867436747
1.14695409792097
0.600451446462741
0.520080389667129
0.809489034430156
0.664833329651912
0.726261211284501
0.830350009849749
0.648138717635303
5
0.705295395927275
2.20938761807281
