3596
4000.36533379555
650.420452594757
1
2
2
0.0684584421645787
0.0513763376342273
0.0661367670327206
0.0605475728904301
0.0720180663967249
0.0583851812229984
0.0712444648039393
0.0586577198316338
0.0692801501231022
0.0559351221378146
0.0717770766070076
0.0565901498327704
0.0765326039214366
0.054321131384098
0.0679770009452648
0.0559912764697862
0.0712300712939965
0.0534909156173253
0.0705824882687435
0.0575246855144367
0.0654462438684273
0.0520004114409254
0.068813484241474
0.0584168181929293
0.0649235221394232
0.0522901530271307
0.0754206991028881
0.0565423874880004
0.0747842526675863
0.0637211447232651
0.0651428784955773
0.056927351144914
0.0708813920537849
0.0620968578014108
0.0731328038893372
0.0550035163333673
0.0751562118680087
0.0501323854370114
0.0686911390695971
0.0603279928510924
0.0771349471469125
0.0590395803151458
0.068480132942235
0.0553871789146014
0.0665519627410411
0.0572477112513588
0.0698254866562201
0.0583354193061285
0.0693390281427454
0.0598656040416939
0.0748642411503635
0.0585294581073467
0.084448601258798
0.0661583295977982
0.0669861274943962
0.0737158056081912
0.0734428410934075
0.0537853217219004
0.0649751241229909
0.0482343619574449
0.0862438163577437
0.0743495011100127
0.0685981278594234
0.0560201478675572
0.0630837445262635
0.0581941567135064
0.0640765673049071
0.0628072278296414
0.0736860835132434
0.0686877784153332
0.0622275514710972
0.0754357860729625
0.0898667327504855
0.059398601894723
0.0806477310684659
0.0603617214212296
0.0667362580694861
0.0473006626999868
0.0618247050448581
0.0645159951178196
0.0787934031801781
0.0626595706427748
0.0684075753507803
0.0402471141934745
0.0669523538209975
0.078053873221492
0.059476373207266
0.0548589646874995
0.0841264104256301
0.0734009217879062
0.0677007627813787
0.0541210267520835
0.0667580834613672
0.0522416682199369
0.0625195485065172
0.0510397793135093
0.0551067624991299
0.0607766108631254
0.0538934649626848
0.0583088785923054
0.0831223897361307
0.0639150423991778
0.112743365871881
0.0455383417831444
0.136459029615377
0.0649548469357909
0.063730301452626
0.106759994079146
0.0791005794170355
0.0672706220483019
0.064339416583049
0.0504108682677907
0.0677781281875412
0.0626255342502391
0.0572374923975061
0.0815282995336677
0.105512938797521
0.0707259949313829
0.0624404555974545
0.0592869876276519
0.0476387727014145
0.0802343388814752
0.103023537766344
0.0575566052746708
0.0860287606540635
0.0575097078409251
0.0574124866175615
0.098070569978969
0.110062399054225
0.052240360330101
0.0691273323990873
0.0505651360289997
0.0608162073016696
0.0481271821001641
0.115622146216441
0.0571658274821839
0.079822800927928
0.0341608485283747
0.102478424820339
0.106292933188165
0.0790889269113202
0.0575886334672406
0.0517985845804463
0.0593806849069749
0.110047652863352
0.0597463551333242
0.0589211444451842
0.067552695791957
0.0691160326635081
0.0519630721369381
0.0690944349842272
0.0468666021966481
0.0924511878898796
0.0692862921660552
0.0335167306552631
0.121988780842929
0.129849390779658
0.0546344026837364
0.145005193424207
0.0462337776155418
0.0862087148485944
0.0582066123821217
0.0648646799940011
0.0468508492750508
0.0723974570804732
0.0357418143608689
0.0856447270515567
0.0874742480570306
0.0662522703505403
0.0618276206803213
0.108192467074973
0.0688083988654914
0.0491037107622269
0.121764249712222
0.0839061471087463
0.0468803789583293
0.100348920027177
0.072802328507915
0.0481465366881914
0.0553631048708538
0.0990636883632093
0.046354926481017
0.073238809982567
0.0476655742037045
0.0705017011507589
0.0702239116446381
0.0806223082087753
0.0474395008643794
0.0698574395896201
0.0306460204792973
0.0876006350378989
0.105008681933276
0.106307840305795
0.0495109683060499
0.0877191036138296
0.0170742008933823
0.106020884371078
0.0878617632493891
0.0672858359063223
0.0548350881743513
0.0580550398757089
0.046467658904657
0.0578420512041176
0.0510003682224227
0.0631001675835299
0.0145998121259124
0.124465739103484
0.0610821248084511
0.0705170007513801
0.0490647843289335
0.0706540931513592
0.0334334748389671
0.137356872193248
0.0868803185245871
0.0732300454822697
0.0630919367770193
0.0528399347312453
0.0669903313076319
0.0805818821023982
0.0561169845001598
0.0634576212211613
0.0516541347608612
0.060993896341002
0.0500987966507294
0.0642145547480607
0.0518927479591066
0.0683730915831202
0.05298144651512
0.0634748143351825
0.0532045723214174
0.0761956088768051
0.0539486962192534
0.059844662018023
0.0570524543667831
0.0453233654980004
0.0583780459955172
0.0892242040419558
0.0520628528330086
0.0760774054491445
0.044772510467712
0.0659374772839797
0.0519317091124659
0.0652618910507415
0.0520786768453191
0.0657792188726115
0.0316736690834237
0.113433542549717
0.0475711558188563
0.0744683147136107
0.0347599545669351
0.0970623557004593
0.0627216322870004
0.0622812451534679
0.0531828487312118
0.0652836684801968
0.0388026284230606
0.0602098148239082
0.0806480203436961
0.0792222880057689
0.0484253802961643
0.0820600730308839
0.0608736880447196
0.0559767448099977
0.0515659994718162
0.0422615651979626
0.133493298305284
0.0760036685863367
0.035387231469056
0.157601749920239
0.0650820199746604
0.0829428657965813
0.0564904286470548
0.0195988125564144
0.16433660434069
0.136569598223897
0.0598151967097992
0.0751826871607327
0.0807075794066425
0.0598657963428069
0.0602624731017048
0.0704631261051087
0.0524614323065734
0.101989602971573
0.0876467174094964
0.142259046807223
0.036463285915452
0.120550685359843
0.0784282549043199
0.0735807891505924
0.0530054130609296
0.0663951171846729
0.0476011761450224
0.0854272201656063
0.0672213513582652
0.0840144113697014
0.0661888768975736
0.0590255910863252
0.0921226082767986
0.0724699091171576
0.0541656079128122
0.0732774941208007
0.0692146093626316
0.0573324920175894
0.0621070191729871
0.060813412312581
0.0684092827204461
0.0628097128401954
0.0379778529916281
0.133913772025411
0.0744990011813602
0.0617788952334778
0.0860850009319753
0.0759961659367125
0.057896639263203
0.0618277390285034
0.0550180036115392
0.058836172576767
0.0502844236550119
0.0495983736875521
0.0896695338086432
0.0736256151829898
0.0531359481636829
0.0628291308306229
0.0515617386009201
0.0683193416516
0.0535532154514834
0.0611432487868636
0.0506173970608514
0.0748767961821112
0.0452589902618393
0.0830251915127047
0.101477229798636
0.0384481120148949
0.0978653586762251
0.108854294608585
0.060075764351939
0.0696366571813504
0.0561071612595055
0.0770863513608672
0.0525245664963547
0.071934028771081
0.0471236080340145
0.0667740083700559
0.0733707409082856
0.0776796922167384
0.0495115486217856
0.0738419145031249
0.0979482291855293
0.160900014940978
0.0764077190106321
0.0841927490087273
0.029988223156379
0.113563469449585
0.0939464683835242
0.0936207899919086
0.105204579152903
0.0689590940892852
0.0723983289793814
0.0715998249875976
0.0706931521149077
0.058777475662015
0.0662207550352462
0.0702220159596252
0.0757640219879842
0.0752540209754657
0.0720070136962413
0.0657224513652038
0.0637656113052704
0.124174627349448
0.0835619820545283
0.0824336470376969
0.0782795227075042
0.0639173526903227
0.0985263778466225
0.101620889259244
0.121387366354688
0.117085879660104
0.0923860754651893
0.152069457494886
0.0759559060319149
0.0981015764902433
0.0709804074330818
0.08569743192973
0.0774879757939645
0.0962543075367675
0.0754331890239001
0.089362592207296
0.0845291687201726
0.103099711375659
0.0786946707822227
0.10598303945961
0.0756367106671935
0.13494355558835
0.0819477231386388
0.106963254646627
0.0747101272463726
0.119045146234118
0.132319646684561
0.162148595271972
0.108267064787267
0.117250626022188
0.10020546996394
0.101672643043839
0.104542185034101
0.11106083811449
0.10622301238484
0.108697203670948
0.132463084874779
0.141365334111643
0.127248384764511
0.150315050913133
0.100355184196147
0.156494668805406
0.119152369177395
0.142141902800484
0.147257515394568
0.143220690972715
0.102129500109839
0.161729071480662
0.141006506004895
0.140091902970856
0.150443259212745
0.133193256878405
0.133803166534642
0.135829926818692
0.136909041469682
0.142067746866446
0.141428692995429
0.153646053718023
0.138860114435503
0.169432173845109
0.148851760101024
0.157956414644039
0.160697314451848
0.163365993822434
0.150252244924516
0.184468293467108
0.130581853425365
0.175792903466251
0.135524660534034
0.205720428031257
0.185463315574818
0.200561984117936
0.201797770804024
0.176115365721823
0.172057843269277
0.182793817904816
0.175727576150503
0.181302252884064
0.177386750402496
0.199254427956554
0.183110477398505
0.201423194769306
0.182699669915819
0.200401817063472
0.185476650770071
0.208709655673853
0.186981029193255
0.206129499720048
0.18971004529313
0.227001599704346
0.199855173715399
0.244407397025121
0.224103944020489
0.247750390620344
0.238601587275899
0.225386414211178
0.239599119869649
0.244247746549172
0.233212628476797
0.243264847491736
0.245438324144278
0.252259087785526
0.237485419842152
0.257665036931229
0.24492660499014
0.253634795161039
0.242441321494343
0.260372139922895
0.265430128202416
0.263918954835771
0.26789390407989
0.281043371390389
0.26394873869742
0.271610304684053
0.283984096065725
0.281790140903751
0.289816049336068
0.307505787297355
0.277711999180075
0.307114693774057
0.286960912441838
0.298861718366897
0.290390077513972
0.310268921135686
0.299523512417386
0.326276816660654
0.306736945849838
0.329292309312494
0.307006723935538
0.318298383704938
0.315102255936253
0.345237372161062
0.317606824166657
0.344676057311175
0.331873418676443
0.346738023923701
0.336119487919588
0.358328680859295
0.344122900920949
0.366829560395394
0.349883676073009
0.365474021943975
0.358521951854365
0.374878447681367
0.36114286369694
0.374636905701948
0.368587505817171
0.395716182053387
0.384834047117976
0.385147438819699
0.372280149831617
0.408711248746608
0.382198303491365
0.405812000434218
0.390473586439181
0.43127481184217
0.385312670826117
0.438308220370326
0.396102641140465
0.434613654238009
0.398476269355976
0.438084989042797
0.422072248741738
0.457647967742107
0.422014154280774
0.4548487238586
0.419028145515952
0.461961283833862
0.426119951903253
0.483543863754336
0.447277637111626
0.459136757316517
0.442031754009314
0.477197328063882
0.448830769425416
0.483802849790567
0.464348216713738
0.508634600885385
0.46947642351072
0.494955229707429
0.49300984827114
0.501361607779578
0.488620984669669
0.541117774508986
0.49240352410386
0.530791838385975
0.511819777226572
0.516003663147505
0.514228762681167
0.515075347890574
0.50665053530368
0.545978227699821
0.529321950699045
0.529289135871322
0.515150404178752
0.546987724873719
0.516335826656663
0.552813744628849
0.522706511872362
0.567066785477665
0.537361501795227
0.579654875742488
0.564115355596897
0.588165107644226
0.561271353210189
0.574281031900794
0.561736978956764
0.585491757712245
0.559140871233087
0.631166787789624
0.594728523264138
0.612505377173298
0.585964349586671
0.63531674590265
0.613542317671161
0.634339369533633
0.583927630836126
0.620733818229879
0.607841507767239
0.624003182587061
0.598581577661368
0.676853678610553
0.639123665977334
0.656239869576387
0.6123100824028
0.644208460996337
0.627841848079851
0.638355597605118
0.642987329615646
0.66311436052524
0.625442091222495
0.655067529261917
0.6388906904873
0.654624702652072
0.670600455690217
0.675104995126003
0.67491862881669
0.687722455170208
0.679603899902749
0.71618202769523
0.690080964198537
0.717548716812524
0.689550330040019
0.731060611446592
0.695199440420935
0.722064541096826
0.665055897035747
0.755899480470559
0.690362117849729
0.715979901367293
0.702501696147498
0.738939911091445
0.681092875624889
0.726917530815774
0.701031918495873
0.738688972129752
0.716925800126501
0.737075515707238
0.72531604353334
0.748023191491734
0.727204043746084
0.759154271468678
0.72309990941342
0.759355593138362
0.721715681088719
0.770969774811335
0.744089999415814
0.757077804075008
0.744957173993998
0.778515432272291
0.748228712651565
0.749724400624651
0.727504035922968
0.796717135370038
0.772762998776484
0.814620124407182
0.75370483564231
0.78122175056177
0.738805133468111
0.774801102833049
0.725025110311914
0.797288293019631
0.767829830000841
0.815959773263489
0.796961612749098
0.810524069082595
0.774730954902928
0.822244335710507
0.793086674355203
0.827713503172086
0.794567615333278
0.816905421326812
0.787960950178796
0.851855525122908
0.815803066678183
0.826388461783873
0.792726477126108
0.840832602074308
0.823323103414785
0.815923687342545
0.786092695672549
0.819690354273526
0.791996954195861
0.847232032246572
0.803904914391178
0.827639916962479
0.815041983263103
0.850485385960268
0.823880380134678
0.877980689859945
0.793606507206979
0.814603170392818
0.822891306779041
0.836303117451146
0.837166816747309
0.888464232207619
0.797509757963689
0.837906140493201
0.840777797215482
0.854078509239582
0.812439232613723
0.821608109653781
0.812967296600859
0.85137088485841
0.813189888276784
0.853075972849769
0.857437837045406
0.875074056432179
0.829947867355501
0.853511706082292
0.843261599716866
0.878876686363323
0.835028916513743
0.865381883246107
0.834580265405839
0.856402284495876
0.827027371584184
0.852657834421823
0.824905378409755
0.854699308764748
0.834215290262805
0.867555744218207
0.823650505064045
0.874433857176975
0.836934357312587
0.87727956125405
0.867114954942774
0.881686638435024
0.835478638447553
0.857650143811169
0.835722939421819
0.875026242491557
0.829785521626137
0.896114147714008
0.836476833805601
0.860293700583822
0.87010067806978
0.85871723500934
0.843993884683654
0.890885941267965
0.838669405767529
0.862098046954672
0.828876461580231
0.867570640784753
0.847549662972619
0.866806930731914
0.847104053254773
0.874733679142344
0.840346401117566
0.8630326194317
0.83061194722912
0.859050971553401
0.844851393680575
0.846429913074949
0.859505240737533
0.887239411546657
0.849701424807721
0.852778428261643
0.861567067099716
0.831149878576136
0.844417632390347
0.869060321119489
0.808001492055518
0.859424760255476
0.850548688914611
0.83673479495401
0.815588025258804
0.82821031171105
0.839292893260171
0.864067995956687
0.841173718130779
0.822466459225908
0.812684270977181
0.859416264440567
0.819441501673262
0.843890691178291
0.812350239451661
0.858616757782282
0.830377314715027
0.840458064551475
0.843672281631224
0.853589420944564
0.795666859239628
0.829718306424728
0.793500504929712
0.812712564638977
0.80056004810772
0.830434481165491
0.799050188019043
0.816997399134361
0.796292046446517
0.813566286213674
0.814035487438749
0.81947887849423
0.785000872619342
0.82233855809176
0.808333941925627
0.798944677981358
0.794906748469222
0.821869900133293
0.805294522475925
0.799198788455408
0.783206136258955
0.785606299605648
0.781116201641877
0.799532451355497
0.783560961795628
0.815574783124715
0.781286970968149
0.789070690609456
0.768740445438107
0.779899937444565
0.763418953573034
0.7739885853335
0.750176742635586
0.792343225606494
0.745053859738698
0.767413123839258
0.757396484364585
0.778255591440057
0.757793622231837
0.746558224636224
0.735853694461413
0.756221869756206
0.761414337540421
0.748358438405407
0.714926895111406
0.738804411209256
0.710204280573021
0.746443918479053
0.72875313182578
0.734357918779546
0.73237963753902
0.73561126302805
0.715084148376756
0.731395112876522
0.712734440812499
0.734975850407712
0.710255104795715
0.70234301407184
0.708589497031996
0.721205096679367
0.703757810427122
0.721560500261744
0.678999003393308
0.704108463279667
0.707091618247185
0.708571249178892
0.672194969667291
0.6784588482678
0.668008697048583
0.687849999180464
0.683804361301972
0.674757551472103
0.679702342231141
0.677801094717003
0.653279606964154
0.686327789466747
0.65436656615069
0.667142634466371
0.667816663517022
0.667238907416627
0.669349178101743
0.675744366535027
0.655653854125622
0.655656095164978
0.642904839547148
0.653439430592255
0.634269161622929
0.643124104161825
0.628925547418242
0.643314106276537
0.627092851199488
0.621871498377202
0.609422734159413
0.620957405210018
0.614992030239799
0.624345841182671
0.605224367294679
0.617905320054294
0.602249503171618
0.616405450206126
0.6043614478853
0.596004836371654
0.577033288219649
0.603796682749011
0.590707644791179
0.586990174463498
0.571050281476797
0.572453898380517
0.563935674381986
0.570352636709347
0.565453930935939
0.5758600004273
0.570372598325273
0.571095868513101
0.556325789369065
0.558194715521685
0.544193270597231
0.550874950931067
0.532529682162439
0.543752320897417
0.545263121291557
0.552990241867399
0.540881415522252
0.532204310784501
0.518285567027456
0.523564325023997
0.516994782904102
0.528604669687669
0.519880496919225
0.521515488129653
0.507057507406108
0.517995974698499
0.509416920203671
0.507515349034044
0.493331960774086
0.508011835901365
0.495602870313784
0.494934023759247
0.48629624457161
0.488155802262518
0.490509240661712
0.499406708886371
0.47724515744285
0.482207996833584
0.463304849899314
0.468189648286466
0.470223239837304
0.473116071100547
0.455706173161623
0.470911408529378
0.463282962811144
0.458852656131175
0.463394768285014
0.458806810662164
0.446978850311195
0.456456385094842
0.450433310515445
0.450534760164367
0.433625965495375
0.442534817924632
0.43538666324863
0.432351250574231
0.430232064613375
0.429280194029051
0.422820029835901
0.423474914805763
0.420251444937634
0.424306179831057
0.409124858367043
0.413444140631561
0.409972571970458
0.415544190230256
0.408347739105415
0.407457328291162
0.407762618815224
0.408281534227586
0.398756651347582
0.403628183462982
0.394478291911618
0.398371363019797
0.384330244181112
0.391943441406167
0.382905445321075
0.38081596194963
0.381984009208883
0.385332874201082
0.381481806437698
0.378086699466024
0.373493464798538
0.372566977423497
0.365842024985362
0.370864116637569
0.365456131672129
0.370557154608179
0.356521863852377
0.362658807177709
0.36223309232781
0.365630262707696
0.357279170100029
0.353518623308891
0.351243552862292
0.350307741268207
0.346309044585484
0.345167209298066
0.343872383795497
0.347239234099231
0.330605814215732
0.33747871110609
0.330926622633128
0.336753601762523
0.331828305301284
0.331917107235658
0.331386888252673
0.332101122394664
0.330115888324256
0.328486483188271
0.319061293218906
0.325398002544247
0.314431167529784
0.316876340423176
0.31544801923671
0.318890794708445
0.308040129378103
0.30884364693051
0.310914726754269
0.315590032606422
0.305443400643314
0.30826580857048
0.306249687748594
0.307163133368406
0.298107195553371
0.302257157005289
0.301230817624357
0.302842428256868
0.294175105698513
0.292565104844376
0.285058458703405
0.287661893457261
0.280794489180937
0.284751980690989
0.285324818985084
0.286082319928767
0.281510653074874
0.281771921234619
0.278562696945357
0.27263058073086
0.27424717386099
0.278261576147254
0.2703498692876
0.269991143693796
0.270655481045609
0.270067022353263
0.261778415696145
0.264435572391896
0.262812637476913
0.265102419132726
0.259921069999696
0.260720158164054
0.258718110472987
0.256502987177861
0.250689501171882
0.251886485402277
0.246441775758054
0.254872933859912
0.248883216126442
0.25438316352086
0.247588257698883
0.247336913630794
0.246281578658843
0.246436698089313
0.242151128980438
0.241446882412469
0.239348999558526
0.241582022572716
0.234718097627665
0.232750767607141
0.234342000525558
0.232447205638635
0.227283531011006
0.23250660829843
0.229227505616824
0.229442634074715
0.226056103319572
0.224809209788733
0.220371491194857
0.228143184126406
0.224027364522909
0.220685270322006
0.218580402549582
0.224380718936215
0.224999711859082
0.222858573899891
0.220060096891835
0.218350109231556
0.216893478628804
0.222746315295688
0.21672533916864
0.218172962572811
0.21680285672568
0.213617732667428
0.209700365615497
0.215434635446651
0.210659936177847
0.215704609470445
0.211688518744817
0.216553442813766
0.215603328897836
0.21205185786443
0.212154434702311
0.219982678091327
0.217163818480066
0.217078001214439
0.21359328547482
0.220076844396879
0.22026925130075
0.217652962113977
0.216923911147631
0.220925616089643
0.22345550520906
0.226442925049213
0.225153342761096
0.225990425937835
0.226208000154519
0.227328546404923
0.226895658039784
0.231024273570548
0.229486248940529
0.234314735237794
0.231486664968854
0.233058589663991
0.235037560198464
0.243232157098618
0.236436015194376
0.239769444645195
0.241476213248616
0.242119080068993
0.247748537272063
0.247128020838344
0.243794469152646
0.249846023266611
0.25154486513313
0.254622363106451
0.249411403950432
0.256212631487655
0.259541765478668
0.25906641064957
0.255138430622259
0.255231605774454
0.259603338543659
0.262550162397425
0.264801573415562
0.27181895099691
0.265765468063927
0.271245037334543
0.270475348191531
0.274724798174836
0.279532420959181
0.279497998767284
0.283108290776813
0.287128007089618
0.284697344942166
0.286812364257313
0.290503375075054
0.292925671457219
0.293260150593286
0.298350118969313
0.299022278053898
0.303980709530808
0.306924409265345
0.307928536666716
0.306463216134822
0.308837124771731
0.310701103602323
0.311883145258891
0.310770570577126
0.313050607999104
0.308003867028902
0.314045802557723
0.317177712984749
0.312662566906153
0.309187841466425
0.315786757936063
0.316673110351579
0.317873265353996
0.316450296666068
0.314953414488024
0.31098413377366
0.307972920522247
0.307439717327474
0.315201448840476
0.314091243997689
0.308724868153581
0.302781453750363
0.302988236669677
0.307525250641004
0.309882830098551
0.308476859628775
0.309657483338975
0.30580810068879
0.308807243897316
0.307803348333852
0.300322012712284
0.307261603798658
0.308026014003387
0.300528694653678
0.307874946803045
0.30871922033819
0.307916921571582
0.306293901026449
0.306569733526188
0.305795735218043
0.305160065232627
0.305651750316515
0.307683508226556
0.304630475424607
0.304567906907044
0.308777140287086
0.310541954270449
0.307238721775042
0.303463410956218
0.308833150419179
0.30838103743723
0.305243780598414
0.304546170986622
0.301515444655774
0.30428519488793
0.305254241157946
0.307686815645395
0.295813632516534
0.302627147992397
0.308476229359673
0.300452761515912
0.298076221996251
0.302129745773952
0.294565896380413
0.294611669797677
0.294476955293213
0.288498567820102
0.290924727842361
0.289059084693433
0.286102182919236
0.285551510639745
0.283941260976416
0.280352159736622
0.276961111307052
0.279589315368401
0.274145857331417
0.269496888532855
0.266259166944976
0.268542704276841
0.265299826868741
0.258118654316997
0.255314108240509
0.257317525856877
0.255444710431011
0.250201706610667
0.247680755838814
0.248495986369214
0.246850294662579
0.239242372217454
0.238566883161501
0.236528431579136
0.233682764939657
0.234476489411361
0.230410427760066
0.232662280213232
0.230334321745604
0.223663445560831
0.219427735215811
0.221642028874521
0.217989686449432
0.219575717623999
0.215674406869349
0.212737224544463
0.214744505522339
0.214161542762833
0.212582933444588
0.208345589888648
0.207261427193908
0.208099761051013
0.207400294642896
0.207244300598256
0.204200385479608
0.204132727508507
0.201949024065727
0.198206865334442
0.198380986095086
0.198499339813741
0.193010589754047
0.195780019377633
0.19496843491158
0.192335764818151
0.190341673797212
0.191408215513659
0.190039225589587
0.189372271854144
0.187694637958717
0.187930035476321
0.188529826515817
0.186082909756663
0.187227656282919
0.186454309164353
0.184958137455882
0.181299000129645
0.176215493095445
0.178838257160234
0.175198644834521
0.176807520398185
0.179527363290333
0.177031145637399
0.173687346052466
0.171568372339851
0.173741019446599
0.172477979861111
0.174327323254843
0.17192449536622
0.169905213452712
0.168895394014934
0.166551790313118
0.167461063538543
0.166637956333958
0.165795370408193
0.167064536048824
0.168410367578426
0.166647404445518
0.163017440843909
0.161159577153588
0.1605300125049
0.160386424335485
0.158940801899561
0.161388849244251
0.158929604888621
0.159269527242393
0.160849141814261
0.161045583779815
0.158720517438611
0.157523006373884
0.158397430840631
0.156199860965461
0.157671891249827
0.154899171197292
0.156355515367322
0.15975829551541
0.156304406172306
0.157150719417551
0.15553167460275
0.150169113132115
0.151230498199899
0.154157206442661
0.153338960556496
0.151765576531793
0.151196412862316
0.148253348328072
0.148149226958292
0.150888867559685
0.149122814379035
0.151582720527504
0.151036859618598
0.149387184732522
0.14699080492216
0.148231706552892
0.147192756287344
0.147597315449093
0.147583820591438
0.145415364689703
0.146686434277184
0.14638825173789
0.143927684074336
0.145497475242464
0.143955309264347
0.147011874918374
0.144402580438776
0.138260900670187
0.141036025759511
0.14146372292362
0.142087541190869
0.141362984236066
0.139592893112737
0.141692825155699
0.139824615952398
0.141086666216996
0.138733770352158
0.137419309039443
0.136488928252375
0.138567558880484
0.140091491833839
0.136855084714697
0.140068756604193
0.142631144991919
0.13838570662312
0.138765278899148
0.13991042578826
0.138794771651949
0.137081625641784
0.137788133271397
0.138986773737388
0.136392855297137
0.137721793382241
0.137356502821295
0.13521943258607
0.134866349781694
0.138581964459776
0.137832547004061
0.134726302049017
0.135225455836918
0.136017025933095
0.135854253623689
0.132795087153179
0.133539013390576
0.13463105972765
0.13430475103853
0.134027721392572
0.134524710243909
0.131867788419592
0.134312091542622
0.134227498416391
0.134233369138893
0.130651340239872
0.13103964916293
0.129485031840873
0.128746847869849
0.128015553718329
0.130142635339251
0.129407426424804
0.126851748211069
0.125536258595994
0.131188896652016
0.127094571277892
0.122882706742227
0.125756788364446
0.128187542257497
0.125932007258157
0.123806125879898
0.123357503279675
0.12027713251104
0.120072856529877
0.122784758574078
0.122132194261367
0.122515791204399
0.119594642511333
0.12032369876825
0.119234607596396
0.121218858587496
0.120649450368196
0.120903291207777
0.119555393966793
0.119034238616088
0.117328604625107
0.118469092529044
0.121840554165379
0.117802982329694
0.11853948894215
0.119348772353622
0.116075383412769
0.114319798105378
0.114377179646044
0.115098591651447
0.113275724263701
0.114139985229974
0.113670827997188
0.115575483153076
0.117077895800408
0.118393584982359
0.113383276267579
0.111200321644832
0.111365740883609
0.112599169733735
0.109852656366391
0.11123431659126
0.109737305839242
0.109798117359938
0.109903624802882
0.109427326176361
0.107270721956481
0.107407130220812
0.107854351062777
0.113153922670185
0.107834167581461
0.107132707009536
0.105517056760524
0.104150207748214
0.104243794022462
0.105570907448524
0.103106315852339
0.101941114629531
0.102414277576411
0.102219400993893
0.103405508686946
0.101768830152228
0.101005425225663
0.101974598286956
0.0981032585807131
0.0993817620755455
0.0997551392452558
0.100620195749469
0.0979510585730761
0.0974402516291851
0.0951776364941259
0.0965466420713391
0.0955962399163043
0.0959029756251897
0.0967659909099155
0.096080790261837
0.0935814331060442
0.095944939615121
0.0929860800964778
0.0927045050961544
0.0949817087127665
0.0926510831525361
0.0916893301617562
0.0944778433957955
0.0903739657659493
0.0914143837007758
0.0916517365371367
0.0935167049272694
0.0924059994341737
0.093157450303333
0.0914257529186636
0.0904966621876234
0.088278633742086
0.0897707846303202
0.0891380545319722
0.0900050263847696
0.090404168739175
0.0938147546042835
0.0892579323283998
0.0897176973795823
0.0899076976704812
0.0894008387121547
0.086165019245889
0.0888574866070591
0.0880870768607127
0.0864602005618766
0.0848065492560448
0.0857583090716166
0.0875093653062605
0.0873265791839124
0.0835280243106136
0.0880519188349904
0.0861922504331983
0.0846458151590611
0.0844490809561416
0.0840836859489332
0.084282897823895
0.0872430629703558
0.0813132574773597
0.0813796172436563
0.081808012933738
0.0844001804589465
0.0825445655771757
0.0833695425561755
0.0811991392213523
0.0813851817469615
0.0811513261678671
0.0789528465090976
0.0808375793006453
0.0795258883606488
0.0789366750836774
0.0799700872481302
0.0801741880328066
0.0819591365639509
0.0766186511022896
0.0797936197326234
0.0776655441563568
0.077147099967539
0.0795862556651087
0.0799813350431932
0.0781948186197997
0.0797645656720427
0.0792114328651949
0.0791266899651504
0.0775701171035557
0.0774050271965982
0.076120604477943
0.0775152316631492
0.0767094385639179
0.0791635033772762
0.0767189183906392
0.0778699616035585
0.0772927395337527
0.0797889281858662
0.0767356223702312
0.07662713295233
0.0772176480793242
0.0781642866874041
0.0755437456078149
0.0812240247081535
0.0776550313329859
0.0768403310862887
0.0781189180054967
0.0795776828923884
0.0744114134998958
0.0756494208191677
0.0733107954611655
0.0760620284722454
0.075122770241544
0.0763084189582704
0.0746207622108931
0.0765421096490645
0.0770548261669196
0.0755141176465962
0.073310746995412
0.0733675367597644
0.0731818577139899
0.0743062908586546
0.0697493087271928
0.0734459320761888
0.0713092240324583
0.0724824048271701
0.0716692412720984
0.0732002282071321
0.0717719497833101
0.0723213941345071
0.0687206561480258
0.0699314137241111
0.0712183178496133
0.0706815695488448
0.0684416240960369
0.0715763058466476
0.0673609270409097
0.0714434541687389
0.0671430805596353
0.0690379486303898
0.0693074036100002
0.0704139823275621
0.0674772974811348
0.0671027797407399
0.0682284060157986
0.069612980416589
0.0669892112815364
0.0703562137748935
0.0696533743187678
0.0706453261710194
0.0686880840174359
0.0678181720577655
0.0666210708663445
0.0703964305398049
0.0670788789616125
0.068381958718263
0.0675361546846657
0.0659692650477668
0.0677431103189582
0.0697618617648137
0.0662998109947782
0.0696203962331231
0.0676130339027881
0.0681201167695318
0.0666919654545109
0.066514864438964
0.0665148764833789
0.0664497778860001
0.0639720096509976
0.0658332179383799
0.0643053324779586
0.0663123971627603
0.0652476856051128
0.0649084159950011
0.0635613816557314
0.0658509162895924
0.0649452632531291
0.0666295169897296
0.0630467439199116
0.0660180905840655
0.0626317448881667
0.0605032070045314
0.0615494874896236
0.0637931371144787
0.0607614898203503
0.0622746281224383
0.0619257340848162
0.0650256384704636
0.0638370997158222
0.0606468962854825
0.0591803706584755
0.0605792512938705
0.0571119085908719
0.0578963789520251
0.0583285058554145
0.0581536257338681
0.059065975557667
0.0601072504571514
0.0570135026676497
0.0616384330674292
0.0562971932175212
0.0568113426595454
0.0572633797369775
0.0566137128738667
0.0562905617894022
0.0585536115492032
0.0566061224129451
0.058365860929384
0.0588003917563957
0.0600029852491993
0.0577988557367231
0.0549911154516104
0.0542629719094144
0.0559270303739105
0.0557701674429607
0.0578605743032168
0.0563053708211372
0.0567415392549965
0.0548763741109618
0.053831912138957
0.0534926527060886
0.0567054882431084
0.0534593698720989
0.0550719778849496
0.0543587949416098
0.0554893049167214
0.0537097863272718
0.0554772720227816
0.0546775445241473
0.0532549666569268
0.0531083145645905
0.0554749214747519
0.0544230956215219
0.0556520488559794
0.0508578424726606
0.0550754079369568
0.0563460716562401
0.0536979084155659
0.0503201539707156
0.0525601650427926
0.0527466389364614
0.0512480320150934
0.0477677056232645
0.0491257924145088
0.0481273846849224
0.0499155917029536
0.0496037848498275
0.0502872190016617
0.049816061071569
0.0511412859914229
0.049343052553163
0.0488406794520279
0.0490000968794843
0.052022089642341
0.0484916029304998
0.0484558982131768
0.0492442159711599
0.0499376839902999
0.047176548166128
0.0498015065977647
0.0474754508032228
0.0484638163592962
0.0470413065298307
0.0498259510941148
0.0478931779845818
0.0498689139230361
0.0469488928324402
0.0481971252059061
0.0452297466011512
0.0507114958148917
0.0466968411998321
0.0493385251924742
0.0438980425762642
0.0435321877527001
0.0456688838812819
0.0475346122357478
0.0464385735624668
0.0479991104220801
0.0460325242356266
0.0476279497161202
0.045612976354228
0.0489283684037036
0.0459703162933103
0.0494981337778198
0.0433292638439096
0.0486328224354332
0.0427841810541062
0.0469594038859963
0.0428814526050974
0.0474543968394985
0.0410633946757859
0.0423664112443591
0.041864920373721
0.041391229203134
0.0410133634604828
0.0438067871550008
0.0369338805049037
0.0349220153328456
0.0356614074250109
0.0406480098118019
0.0368205801070275
0.0351100067770997
0.0327152593222941
0.0373834498781118
0.039262908010185
0.0368293936492358
0.0333864051867401
0.0365899005978087
0.0305734698162743
0.0376831335545569
0.0333288609456135
0.038784448812834
0.0405629453281567
0.0406186815468836
0.0420685212731742
0.0469672502999194
0.0396092036959281
0.0375794557298403
0.0374947286299732
0.0416330858726623
0.0347563864991718
0.0427978430592024
0.0332325009685252
0.0415875201991335
0.030765043175818
0.0422356166991392
0.0318749219131658
0.0429675530105615
0.0265263620367288
0.0437942609951881
0.0282973858407445
0.0474356070900806
0.0285895921490145
0.0530538641055516
0.0214790491040712
0.0506185387351498
0.0203932958273399
0.0559484317496523
0.0208272636950663
0.0636769405567426
0.0147805230513984
0.062092427605597
0.0168884279093172
0.0727468209195805
0.0155469971720244
0.0655701339140739
0.019204522986788
0.0683107216457898
0.0238668382002998
0.0596308829929467
0.0320907113690702
0.0526861491810697
0.0377351674078007
0.0437279471557409
0.0465249824093161
0.0394256823797096
0.0493639866363462
0.0395004783819091
0.0462286186464823
0.0397264734344082
0.0480633678536927
0.0400286527429111
0.0410686018167937
0.0472381714488614
0.0415062586375073
0.0433147519573529
0.0367821110912406
0.0436247849746105
0.0379037186410916
0.0394504834277233
0.0397180319454865
0.0393372722867003
0.0410468962126505
0.0417889154098915
0.0411810821945723
0.0415123837316447
0.0365335421959062
0.0412372486678075
0.0381660813936329
0.0420515765831363
0.0391238866998877
0.0402741165624508
0.0378057807101872
0.0408007705481986
0.0390955495594441
0.0407739291862314
0.0381762790208984
0.0377654183979483
0.036556796408926
0.0397408923867902
0.0379721521881906
0.039111013696293
0.0370356705536383
0.0389288662899912
0.0393272258250537
0.0394778810847638
0.0381671577921361
0.0413198951888722
0.0373738114481649
0.0397923951787032
0.037699917435848
0.0388156930180885
0.0385005093746661
0.0391309884473201
0.0389866665676117
0.0408642299873512
0.0372722965839109
0.0412474591013334
0.0378089571451952
0.0403774888388795
0.0389126747866305
0.0421244352790927
0.038613501532436
0.037923676153374
0.0383007819284843
0.0406532322589344
0.0375474271799486
0.0392268532293288
0.037235160012069
0.038691235308727
0.0380993619940799
0.0396504069035402
0.0386999315872555
0.0387087413596727
0.038000162197759
0.0383441587561147
0.0368481518864181
0.039650457009524
0.0379561430105618
0.0388471877697333
0.0389698190847099
0.0416278438904832
0.0378520158459384
0.0362320418861603
0.0387392415011332
0.0364036154572231
0.0364581701609445
0.0395510183959933
0.0362803415538342
0.039103302714291
0.0378305545216409
0.0380651974823943
0.0385072835064332
0.0391871800812535
0.0373707629716325
0.0383703037894905
0.0382975334199849
0.0413759655797249
0.0364764020354356
0.0382094975395522
0.0372459200250095
0.0394293068796999
0.0398394437898055
0.041577754544344
0.0362415981307135
0.0395960427361035
0.0390537489620008
0.0393094564307779
0.0390721909295457
0.0409697563546954
0.0381649484496239
0.0405934054020597
0.0377717696586566
0.0386614823251176
0.0390485326545036
0.0390222648146793
0.0384760018611153
0.039899385203853
0.0394669284483101
0.0393185344978831
0.0369050832934853
0.0387536739791011
0.0376732000051399
0.0390373359287085
0.0406026747109348
0.0413306498387255
0.0398406528917908
0.0394723657174135
0.0382496484250915
0.0388911774813212
0.0388183244228355
0.0408974409466472
0.0370621852269077
0.0396411798328987
0.036372482796657
0.0378061533193447
0.0383729970694924
0.0389677836910793
0.0385467305351141
0.0394126063363368
0.0380002557346346
0.0407510890755167
0.0381116006200768
0.040174965466205
0.0370051705000458
0.040330225918316
0.0379121917772921
0.0398088041987046
0.0388759934701363
0.0387207145273318
0.0392058248282832
0.03997382856208
0.0352355131934068
0.0387504483905241
0.0378460562805528
0.0410794444060574
0.0383901977543145
0.038883953225359
0.0363816028428817
0.0389242436652825
0.038267695244045
0.039478015735084
0.0383377583866697
0.0413153965440856
0.0388591908742431
0.0398682725593713
0.0388307761442548
0.0415127595055094
0.0393954449043364
0.0393973330754488
0.0384364193027573
0.0409840927761106
0.0384464634805469
0.0407922971767175
0.0385251748869252
0.0417588496866703
0.0394001193170958
0.0418954619713449
0.038205030289696
0.0407664968409107
0.0391524310513594
0.0432128196170602
0.0422765991143853
0.0408419180314385
0.040840992060754
0.0411878955009944
0.0374429889323872
0.0404081805855406
0.0379699095706336
0.0385928956308703
0.0403557092836223
0.0402305085151779
0.0381436370018505
0.0410971835231235
0.0381878937273695
0.0398596847590486
0.0381387628616925
0.040235506560549
0.0366453232073655
0.0374886891911079
0.0376110244154073
0.0406570305266805
0.0351297344818793
0.0361210308708088
0.0355921643200472
0.0422987393496018
0.0368359980338336
0.0375739341957195
0.035740186433857
0.0379038292155485
0.036410872384764
0.0385731325218011
0.036438652233649
0.0381817742779219
0.0345273991071129
0.0380183196195337
0.0352615392929643
0.0398508619388581
0.0370780104824135
0.0364869338772711
0.0363360840339088
0.0379319748063809
0.0364674692051775
0.0370409528665428
0.0351587644625246
0.0378947416853096
0.0375565992853418
0.0374474953783607
0.0379834206763967
0.0382949812042841
0.0347771239935575
0.0376531887447352
0.0374735207203265
0.0370643593691436
0.0370400809710843
0.0393904107594128
0.0352348341867691
0.0360451287113045
0.0328709574014239
0.0378423434054819
0.0352797881612314
0.0392091814742229
0.0352823118029939
0.0395501630462118
0.0355692332983541
0.0371118203886879
0.035936012979737
0.0374379910964539
0.0361671317601935
0.0401891079232866
0.0348493832996448
0.0367664989477789
0.034173359974817
0.0364645632873647
0.0337442982637185
0.0382700137638659
0.0348797876539844
0.0367195347510812
0.0347920028255879
0.0358937637493108
0.0339863049414864
0.0384850892791845
0.0334163230364369
0.0337882145714868
0.0338086577625194
0.0367174361011535
0.0353344247144832
0.0361272630799914
0.0348592302570489
0.0373721945475586
0.0387893417101864
0.0377868225542588
0.0353220916514322
0.0368336418576944
0.0336564816026682
0.0366868501788248
0.0349686546658556
0.0380997461454222
0.0329189901938993
0.0361217267562314
0.0349220047157578
0.0367784460765476
0.0336487057462488
0.036622255279322
0.0339072016452468
0.036845415388889
0.0326321468051782
0.0370507333677292
0.0354395763773727
0.035115840015567
0.0326166504303921
0.0354297914028605
0.0329978600934813
0.0365014429037849
0.0312291432996783
0.0364912994592157
0.0375105604658072
0.0348934451618746
0.0314106847313284
0.0353759051678257
0.0340329335135929
0.0361666931121807
0.0343796410569276
0.0354619806817879
0.0329145193489153
0.0341299091630263
0.0319916305984538
0.034789223254808
0.0339530722940232
0.0354129744379212
0.0324965582214944
0.0336636554441327
0.0330847487617597
0.0346428414698304
0.0321032971225667
0.0352326108406617
0.0342475365071767
0.0358173891010515
0.0316957107629856
0.0338525838547443
0.0330136076549708
0.0296293304971451
0.0370863525579994
0.0350559942604076
0.0333319661165041
0.0327947925455759
0.0326050273596209
0.0318189850656759
0.0314502596229147
0.0336901888761594
0.0316337244237398
0.0320772324872107
0.0322482876698838
0.0306944251083908
0.0300443746143651
0.031156273112021
0.0316687148555286
0.0318947004961407
0.0282319894476011
0.0324100796869607
0.0303148088076847
0.0309058875437169
0.0299348483300697
0.0302500809336651
0.0327461853033971
0.0303564698513224
0.0316408379112534
0.0286454618221556
0.0353719916255876
0.0417092104878719
0.0330873766980221
0.0342291249415239
0.0313273763027737
0.0343866442249219
0.0301843577156272
0.0354103546702932
0.0269729830958865
0.0330925662690146
0.0290579807167551
0.0321087786225585
0.0313366694956047
0.0331609507055573
0.0287476367326304
0.0323727410916373
0.0296029727726025
0.0340098083902268
0.0297464331067149
0.0324747393578813
0.0271184782117876
0.0317766027776231
0.0294760564399428
0.031066143012792
0.0315072293944614
0.0309662705581716
0.026965200019067
0.0380568217741949
0.031054450083054
0.0352331581438151
0.0272049590560874
0.0319923287079272
0.0281287427694057
0.0326315549732449
0.0269323758050913
0.0310248743010099
0.0263947815014348
0.0304352562690386
0.0281035539287111
0.0314950910977863
0.0284087628921056
0.0316491807852586
0.0247220730607298
0.0304569759794005
0.0279702678784587
0.0320979645229108
0.0268634494987317
0.0322435263399385
0.0277068835691491
0.0311678820382724
0.0262898328936145
0.0365413716186132
0.0229580480351969
0.0362927905269963
0.0488181852701377
0.031083554688495
0.0322017329981136
0.0273578448449725
0.0282472645536203
0.0284445138601993
0.028868926147189
0.0269196947452256
0.0292766350727676
0.0296560625849993
0.0301965149378844
0.0291578822336591
0.0289853426547733
0.029084948628469
0.0280432639658303
0.0293130787323017
0.0289213875381494
0.0285564600491439
0.0293493660338153
0.0254436544121927
0.0333815477401158
0.0430160551835812
0.0321674936256863
0.031016524609209
0.0325268533076426
0.0215178943351221
0.0513981227332946
0.0319963048607813
0.0324007344607558
0.0294721519577761
0.0297401505423609
0.0260948429676095
0.0307982178326482
0.027288028641419
0.0301871930435522
0.0340903263957488
0.028904603780832
0.033413609565785
0.0278212172457705
0.0293219863475486
0.0254653083789417
0.0304862163226093
0.0251778891513048
0.028215125687575
0.0269334288945946
0.0285135971352841
0.0277515402869262
0.0273452085666819
0.0303967962837246
0.0253773883149832
0.0308595233522121
0.0336475267214863
0.029596490742313
0.0292358170391762
0.0292839503466798
0.0264180476836041
0.0340225878973384
0.0481793754641287
0.0262413805106863
0.0336616477179638
0.0238297318515627
0.0318910567987003
0.0260870516109878
0.03092583385607
0.0240755266462356
0.0309577614791383
0.0242735912927183
0.0311375562455772
0.0257685059526233
0.0294781906469583
0.0256418875317133
0.0280089344011241
0.0259190200819388
0.0289922467183098
0.0279318140372784
0.0288289619425154
0.0312728400663885
0.0265475418294735
0.0482520330177297
0.049075227934701
0.0390051941904987
0.0395491340205273
0.0350167673408388
0.0297259573971431
0.0292754097323331
0.0299281414760116
0.0255281856358244
0.0294361782796191
0.0257266355688979
0.0305647309500069
0.026684571210494
0.0301725437186726
0.0251850507616784
0.0299627910371891
0.0236009381658242
0.0312036062672849
0.0245709308084051
0.0305617104251258
0.0221866923605718
0.0347313318427041
0.0204457913959208
0.0403053465485594
0.0292461867231038
0.0398136162137528
0.0141129364948154
0.0708514400439703
0.0463840571136902
0.0387329038411796
0.0321752448432959
0.0272277959883027
0.0295519513045627
0.0283312915466725
0.0296217920245019
0.0350765948717675
0.028928510249476
0.0297946254974776
0.0271132514724669
0.0316663253359934
0.0311868343782459
0.0241297623774919
0.0366081530105368
0.0615132457277677
0.0331257574124066
0.0410668656828329
0.0217659032458842
0.0389676407522077
0.0569957635714367
0.0285773174954236
0.0364651997768291
0.0306305113389235
0.030461526476006
0.0281435541938106
0.0287346798888346
0.0284558513134005
0.0347424700381096
0.0337116336337911
0.0304371931269218
0.0298518761951072
0.0281440881836777
0.0369715659146272
0.0278021524673739
0.0408963425894207
0.0397373185588915
0.0282625680729338
0.0361296552681214
0.032743925194202
0.0293986800445738
0.0302960641276638
0.0295675432871737
0.0270155331354393
0.0394189363568768
0.0460120033099154
0.0314374057607707
0.0483462908825023
0.0415458242312447
0.0310146163468225
0.0362679706997888
0.0373262472871203
0.044536272388434
0.0216263954811221
0.0453501094968239
0.061201076261547
0.0409240312860364
0.0565821845673702
0.0279141335766345
0.0410936714800891
0.0245109389433154
0.0376918070733503
0.0203569602096511
0.056481568747828
0.0248716503237833
0.0439484403004658
0.0204118332677427
0.0506422747333374
0.0396265990373082
0.0407159945630185
0.0322608713911545
0.036279417175358
0.0275861082210887
0.0513393893722235
0.0318985005511459
0.02952427461214
0.0679769217572595
0.0610475336025458
0.0612993027157087
0.039611545380954
0.0299698947417515
0.0800764082882094
0.0342988923929723
0.0460425190903462
0.0293588390793802
0.0406156773644899
0.0279042276594445
0.0366560134077772
0.0682867427512978
0.0428732414503407
0.0371447449938607
0.0421745831572399
0.0269646883338211
0.0674561748467137
0.0460782121998466
0.0429952442953663
0.0324096484409812
0.0493760192859575
0.0232202665344504
0.0982545493039067
0.047918723831053
0.0616106954027297
0.0657764184694157
0.0579922048436518
0.0534435139104038
0.0506679530278414
0.0423951795558409
0.0558130977890423
0.0603727489063486
0.0467718834426333
0.0308011950921728
0.0649501645650229
0.0715653482624694
0.0415211000584144
0.0572300829310997
0.0412060012123609
0.0418468651513426
0.0850023786249159
0.104250056401423
0.0795065971282981
0.052147508473237
0.0509979423410847
0.0793399724994349
0.0521074514535404
0.04953983619503
0.0482963011850963
0.0447869450665139
0.0494692894554712
0.0469959879525456
0.065896005091138
0.0500439286632274
0.0586178166792152
0.0508200056088425
0.055717715001276
0.0699719118431135
0.109380318685104
0.0967357144608717
0.061875967176835
0.0990800701091831
0.075506782777566
0.0711341423618644
0.0611873647958071
0.0587722651024655
0.0700484858053013
0.0636757982441485
0.066516908318146
0.0559030164486694
0.0970496592614767
0.0747670022125002
0.0849012796347499
0.0967465995479826
0.0695084257562716
0.0780527196717022
0.0659990514100011
0.278224732057811
0.0971550668782167
0.109513811671004
0.0818552158333769
0.106784994205451
0.164808974309003
0.105922299723031
0.0987863508930786
0.102997013959347
0.0986586531355497
0.115138853757288
0.120350535978493
0.122603897084231
0.135340385398674
0.130387796027201
0.116519967411003
0.15358885556715
0.207687004851171
0.20054678548276
0.165378341108923
0.147409502921746
0.170026354991562
0.172615659142106
0.15493882276986
0.171771286183899
0.156565977554727
0.172856280959349
0.235866878136975
0.185936935341242
0.191554499236331
0.189242326426446
0.233200225031876
0.184969790973503
0.273270173081826
0.229962630395658
0.228743842649673
0.215388133531526
0.226133634270351
0.221815158998659
0.224165850530426
0.267585913213135
0.251851431951159
0.243316837785026
0.249706446423914
0.246241480118602
0.255694297194723
0.254739569518157
0.262681107439943
0.255146953685843
0.310444900699496
0.281787650263317
0.426281443852518
0.287970928590173
0.271650906548301
0.26136412074036
0.264714947530902
0.302872143722225
0.280675378114581
0.311419065489221
0.291898553443239
0.256358207669968
0.266356418333893
0.257434402203411
0.26681257797993
0.252611717214158
0.270932953342954
0.24413107484883
0.300795796762464
0.25095120066631
0.299640243555954
0.323721510509845
0.27042821038716
0.254805177435455
0.259865737214645
0.250863112146914
0.255773280372042
0.246237762043407
0.26146447677467
0.275153915299057
0.243202241016217
0.246596491323807
0.232426973187394
0.264906666764035
0.264234626543426
0.231377496605167
0.232129742540229
0.217602660658882
0.231666502150218
0.210871465268777
0.240559001509222
0.269327802622165
0.218115359230449
0.214584103665146
0.210430782414518
0.205045760477159
0.204137826204428
0.197888953843125
0.206570034802614
0.204316942963406
0.196375129521634
0.201156154831094
0.195739494365026
0.195148885619808
0.189838683361692
0.197804027905534
0.191282543670232
0.190318329901088
0.192666783887377
0.187359595113945
0.188928190870218
0.184771267541212
0.192051060720439
0.187392631933638
0.193689967978773
0.192712707043224
0.188766864075314
0.189899980879252
0.187042702933498
0.188629436835378
0.183902662482517
0.181523100896407
0.185448432291139
0.185893013653531
0.186013946862904
0.181401932557227
0.185463067742484
0.182943716039758
0.183088780332732
0.178703889411759
0.182470845855549
0.18101146100896
0.189292101941311
0.172217473755985
0.244732227048381
0.203556124959727
0.189716824080734
0.181527773116265
0.177492608799493
0.179827391393732
0.170279703089631
0.227812405207744
0.202625756707934
0.181984712219836
0.179373067690704
0.170214209352504
0.183927376754981
0.182400300625974
0.170284142321851
0.183625157510891
0.160252401788879
0.228496090156194
0.246863244349372
0.24706935583125
0.269195354943404
0.195349595690613
0.169316992190002
0.188827841853072
0.216609723496244
0.172319949398857
0.176188511294124
0.165071687095663
0.217195815496269
0.184126911943074
0.17363997121769
0.173472217667707
0.167728910836916
0.191804342975778
0.206719131554573
0.18468530660524
0.199352588234984
0.2119273413921
0.18920566212757
0.212795837087343
0.252725804192048
0.206648521133046
0.160328953880494
0.166351588648022
0.162467794512718
0.169203812296896
0.222042845141089
0.168710681978885
0.179711646751051
0.153718717965236
0.152779795420924
0.15857687647875
0.173709802628793
0.164186081126951
0.158425654314896
0.191519376316732
0.146571970438035
0.164856391071872
0.162418095352006
0.196233613801494
0.199461456962688
0.158267017594847
0.13799171753241
0.174627711810563
0.18335566100634
0.150383349931682
0.156590778734844
0.129983073450248
0.139369289778597
0.158531234425909
0.127897500703721
0.14570978981803
0.153441740240477
0.152797092435304
0.19788985688865
0.199714939526415
0.185316806426995
0.138699276230989
0.116434209934609
0.119008901478995
0.124076318339763
0.121044998615186
0.109851791172287
0.150199834098452
0.126059889080164
0.115689837366832
0.169929915345265
0.1253413128125
0.120670131896217
0.123915404628023
0.114984444553106
0.129618432309156
0.154709250204406
0.167584074344956
0.141106197206467
0.134462131045701
0.150666642913228
0.127713470592908
0.133078049457546
0.127675549520632
0.133837079183035
0.133178136358272
0.149241594678113
0.141815901174028
0.145107575765003
0.148948690661449
0.149202633747839
0.174536487330046
0.184793867181392
0.151941999568819
0.192110693232589
0.190145818161513
0.222205774576004
0.186017066784901
0.181034475670007
0.178275612106429
0.179389785369285
0.18656541151887
0.185699658052391
0.201281448401144
0.231585603046445
0.194187365875745
0.202722694576597
0.197494947504326
0.202277376064543
0.204734713094329
0.242173215921741
0.225690255826239
0.275381740247847
0.273128427055106
0.238349944587832
0.221251816038535
0.213703244721788
0.225636688449707
0.224300996649524
0.218495920804088
0.221355984112477
0.21933960206465
0.250189289985639
0.227705746598952
0.2255078444636
0.226366114443334
0.228008401302059
0.230043441524253
0.2291896352806
0.23175748966054
0.23410543188575
0.235304094368293
0.239137913243764
0.239351083794361
0.308500394526005
0.260334217021626
0.247477264879499
0.248579335089868
0.252390371322173
0.24708881667255
0.246519088810413
0.264504091389823
0.265907177357391
0.257971095692477
0.257317883745812
0.257462688335644
0.258826333894574
0.270489905776563
0.289192037862918
0.260069125308567
0.273189349535698
0.256513633599923
0.295548718838
0.324479309098924
0.287741139982393
0.290332124235013
0.280399367098659
0.2767220613238
0.276173785448649
0.270559668683291
0.279421359181205
0.284169813692416
0.277397209868051
0.283537366538691
0.279113412748772
0.2764750736578
0.276390341464524
0.277857605496299
0.30241686583097
0.279079944783564
0.272787980132561
0.277670616179753
0.273476285433473
0.272968352311976
0.301765338210446
0.291228308968362
0.278592818177626
0.28069059032643
0.289329162405977
0.300469653295257
0.293556606316431
0.268497544163545
0.276046018250626
0.273929620068182
0.276554892785817
0.271016183134064
0.282022923614262
0.299216136942037
0.284350735525066
0.27664019942739
0.275884935217663
0.276889063004059
0.277374146982221
0.279583263800331
0.282965980247967
0.283346753730226
0.284247406851726
0.289629455430534
0.286000454174839
0.284570990620135
0.294773118970876
0.296747509468764
0.297533485086371
0.280688069065107
0.276023086899246
0.277135063245612
0.276953500462358
0.284999018129637
0.272998940168888
0.26649063079451
0.26701550913993
0.264194269978608
0.267435611191536
0.28931647675873
0.266266301506543
0.266720506349684
0.261864335475961
0.251317150418031
0.252173513569721
0.246343746798214
0.24575008925258
0.243924828834633
0.247681035751192
0.242346832880272
0.241043075875585
0.236340812225362
0.238682581087392
0.238433643774253
0.23906922306398
0.23556703029679
0.235702522248397
0.232206069791993
0.233490626597782
0.2343542842717
0.233515652898185
0.231500507923635
0.236337194759633
0.244987283104014
0.251642302270239
0.249428987354512
0.240584797514054
0.23684751013697
0.238980653968205
0.228831683421673
0.23303300247536
0.229182973712721
0.230363009678192
0.228947624043958
0.230712614421181
0.229381419622667
0.22884597726599
0.23097405165315
0.233119339601899
0.228898089329887
0.230474527181686
0.226430408967724
0.229777600079486
0.231181460595251
0.232699912433134
0.23307900714248
0.237471327246415
0.22973065967577
0.232332319106047
0.23333305575174
0.231009778675865
0.232404295871802
0.231629054012164
0.233222785918737
0.232942581025256
0.226924556030802
0.231042764848474
0.232375132388633
0.232941848362555
0.228064022449979
0.229383934771382
0.226595799625851
0.223618117751202
0.223111107060157
0.224694754072199
0.221030086617671
0.219935098610228
0.21760581227538
0.215133209638613
0.214782322888561
0.214804487881323
0.211556311358209
0.209350051808819
0.206456090021101
0.205767145330473
0.203371814133491
0.203531053016611
0.201841908093457
0.200331323921188
0.201881865863579
0.198999140348376
0.194812736087265
0.196413353706399
0.195615504013537
0.197383512258265
0.193273902203268
0.193510735528009
0.193793852412151
0.19452415285277
0.196721269041076
0.195287391916511
0.193653091261793
0.196702338468083
0.195727543080362
0.198392916109224
0.198116380962518
0.198785082256214
0.20085977910889
0.203924274922331
0.203055682138449
0.204298190825064
0.202714122136801
0.203942251218799
0.206505600936609
0.208837882099213
0.206924724385837
0.206983225715979
0.207604505709002
0.21000653795353
0.210002852265869
0.209493980443004
0.21072016105501
0.211710067768618
0.209351983313061
0.2123656717907
0.210597021711421
0.21011826493081
0.208152141154402
0.20965821499786
0.208709240263247
0.208287888706915
0.208061682330821
0.207056695601862
0.204452791876797
0.205697555719303
0.207472943294191
0.207037201100983
0.205950510712032
0.203083370608931
0.200445672943728
0.203168987947431
0.201780941842296
0.201653242270421
0.201220647346949
0.200181762785849
0.19821740328694
0.197599816293254
0.19870147244696
0.197815864427011
0.196693031395764
0.196162737757531
0.195707747814854
0.194421940490849
0.193507642961032
0.194414253129735
0.191947270230805
0.190621225517565
0.190531794099862
0.189983126875587
0.187928965622463
0.189887890814564
0.188839400686279
0.187839282914572
0.186257147990795
0.186164738029691
0.185292717160258
0.183560787565459
0.182239189581371
0.183107996126336
0.179223839933226
0.177290767854737
0.177339047222755
0.176231657585832
0.173819324919678
0.171850430910117
0.171476727647682
0.170757606178388
0.169324761996552
0.169174984733854
0.169271999891598
0.170166322122631
0.168689739420465
0.170160669631707
0.169072965061178
0.166932470247238
0.165058029826592
0.167345362809611
0.166756929917295
0.166199526475413
0.162612526808111
0.162721989230199
0.159934707760764
0.159390069531811
0.158950469190718
0.155396381258975
0.153066829636692
0.15375806967071
0.152252120924672
0.151134779028378
0.152523839724661
0.153725692551148
0.155285797689517
0.157102139471567
0.16002768648149
0.164187548668507
0.167053825901605
0.175986738590516
0.182003017744398
0.187869132624982
0.193641306629661
0.204385845931827
0.211905557845974
0.223006022340613
0.231471319573282
0.238623503179979
0.247620476873347
0.256803543842718
0.263641528807102
0.273669431845047
0.282790978257932
0.288124230749769
0.294873327681377
0.30245568643389
0.313052463535266
0.320089031218234
0.325975730036668
0.331813519531491
0.337779734894329
0.342743517423834
0.347912884441713
0.354272458425616
0.356230629555967
0.36212096558387
0.363118196240382
0.368053594865161
0.373194069060606
0.374358266222203
0.372719752157229
0.375857670645733
0.377097312533012
0.378089779446889
0.379572386803653
0.379167973747296
0.380499587105139
0.379331881788713
0.380369701727016
0.38097893146943
0.381906328531031
0.384047510334841
0.38586106589701
0.387170377694899
0.389233247219481
0.392629127417551
0.396151753891859
0.39949587709641
0.400880861719615
0.402661969715881
0.410754507778598
0.41409124960578
0.415292222310839
0.421330221752122
0.423145907183411
0.431026542442531
0.437347143065746
0.441768585019652
0.450885622313692
0.459630926374383
0.46313037846538
0.46816175530098
0.475939576722681
0.480041584814336
0.484439823604099
0.488534157195029
0.490357958642634
0.49438296920696
0.49453611329819
0.494244897065605
0.493000561501722
0.489338694505295
0.489263593625861
0.493358768565365
0.488726041357114
0.486284765654267
0.485914240019133
0.48794655068925
0.490379758520427
0.494200684172964
0.499522397896488
0.50588173499674
0.508739074512048
0.52166582068396
0.528656130612228
0.535899419144469
0.543639376697518
0.553060168489145
0.563754579589074
0.573520948583753
0.583124500991278
0.595714249426861
0.602787384874905
0.609425172085679
0.615939800551585
0.628955626266853
0.638561390679798
0.646841163669437
0.658629695886058
0.668810391131745
0.679317335253283
0.69178888641667
0.700787143696503
0.711505706277604
0.727484200012746
0.740921299947922
0.754172095681762
0.764972937664416
0.764872551631893
0.774444002288702
0.79361481330487
0.797236322184977
0.798581731013528
0.808317764870124
0.814856668877015
0.818003116873631
0.825900872273217
0.827710122757829
0.83373259712906
0.83343401510921
0.82407340104208
0.826063222027602
0.822463742897089
0.816330982065801
0.812591626126308
0.808962464888106
0.808324156555758
0.800421499592743
0.796574845376419
0.792753727184641
0.788859480315196
0.799696985644563
0.799365176748085
0.794874373510386
0.803243611602385
0.820804798984092
0.817519290412322
0.818473158978678
0.828610688508756
0.837285128076162
0.841826761488274
0.839033266568184
0.845893169656824
0.853617521549332
0.858347426374739
0.864200832164393
0.865185905507217
0.873934719876692
0.881244758284421
0.875805376098424
0.872359831162971
0.866467608632429
0.876832958407861
0.870447820392104
0.868124332102945
0.864104044319521
0.862513033721466
0.864256639853631
0.858756726226777
0.860892314749343
0.859123365187697
0.852220429902121
0.845768647068408
0.841469294956111
0.836582479306751
0.824648109028384
0.821250709552679
0.814535282408014
0.800258824850159
0.796384386057686
0.78747082081057
0.792585386731547
0.780364091073349
0.754469567331837
0.737492776333587
0.717625794428787
0.699285368494142
0.680266272034692
0.656527742994811
0.633755313718608
0.60966483059536
0.579645804166855
0.557076795612271
0.534862471350108
0.516428693995111
0.491455242642205
0.470994291582346
0.454993541480962
0.443625940460887
0.432604469687046
0.432974011527046
0.424719815664026
0.416429141548893
0.413453818593582
0.407377835864405
0.404599470807446
0.401797318009787
0.395739419078268
0.386610586682414
0.38600642899575
0.385973727527826
0.376519543799979
0.368917459479335
0.365599369861103
0.359849511248789
0.350202850790833
0.343028669634166
0.331492652343974
0.322272815860595
0.316314133793664
0.306268342967607
0.294149876894681
0.282137174419682
0.271120028070222
0.258992212129735
0.246572954139031
0.233537430396075
0.220401528834098
0.214647572565628
0.199925616461988
0.19288445195259
0.18372223160771
0.172745608899651
0.164303844934115
0.159040539956611
0.154112806322763
0.149266781585679
0.140819159529857
0.135221527921313
0.131506203156884
0.130159591714125
0.127850032853922
0.12174631598054
0.120517833555401
0.119182865693408
0.118485053390201
0.115652622101334
0.11376286033542
0.118346994220409
0.119864289137453
0.115755096089629
0.115271281913554
0.115859891948513
0.118166251162909
0.115106024467019
0.116590135167611
0.117662830087785
0.11813423123221
0.120052732248085
0.123307725182104
0.120208068335367
0.121453620218798
0.124093000319552
0.115793937311557
0.118977689666418
0.119305951200506
0.117691062559199
0.116130177902743
0.112515286428147
0.114375258227585
0.112927960566572
0.112527523237344
0.11383444941592
0.113674437882035
0.115717015159422
0.111226760722616
0.115700725075425
0.115049024910183
0.120081548264241
0.116832642397005
0.11826803493074
0.119462531610699
0.124936663119668
0.122404105910993
0.12525328569235
0.128642163674696
0.12905858146274
0.125094355435776
0.130161249188209
0.130898398091919
0.129487771599202
0.131269144315444
0.133281609924194
0.131813297630714
0.131265373907826
0.133419344075251
0.132575433914533
0.137636354719242
0.136054000400504
0.135020082649117
0.137747257378719
0.140101372028183
0.143952690777666
0.141971093598704
0.144480749189917
0.14825931771017
0.151929115638899
0.152554100897532
0.156749998475379
0.157581556975182
0.167452788764228
0.177373792227482
0.180218689555685
0.185215809745035
0.183982943653803
0.189028288483912
0.191113469884238
0.188746899596237
0.188671189212097
0.189051028093195
0.186701307860325
0.175765989452484
0.175613368278621
0.177203382228565
0.170540485704592
0.169356234669309
0.165691806298637
0.164637401278353
0.162550882049504
0.164000913326256
0.164018336838616
0.163815761181428
0.160824218024788
0.161135643595252
0.161094382677308
0.160117258791953
0.161053350365136
0.160006989566654
0.156843933110322
0.158799517651262
0.153274684639983
0.15134373219972
0.151149569849362
0.148206428147437
0.143251155803938
0.139504792794557
0.144067802270653
0.142308520486507
0.137064863437667
0.1411940414442
0.143341530386295
0.136364878469969
0.141622658452306
0.141317188037647
0.136546162114943
0.129309189646047
0.135158521085657
0.134271262004425
0.128872233708185
0.127509250206517
0.13390493924375
0.129396211960907
0.127288769798844
0.125675329043686
0.126682099118174
0.128907927925089
0.120472122794242
0.122971245777425
0.121658769958765
0.122037126097303
0.118661016074309
0.115495458351681
0.124740372557509
0.122040475504639
0.118717151794033
0.12156815561961
0.121401954196973
0.115282375609267
0.110285883273513
0.112724042722626
0.1177952719897
0.119065755016187
0.111574765510514
0.109989904456065
0.110261442657588
0.114014379957676
0.112879167353545
0.113543381623098
0.113410072520263
0.112371376030067
0.114096397447768
0.112656168433948
0.112583811953628
0.117305775551857
0.113338587757979
0.121674341349607
0.118996833454648
0.119578580944765
0.12480045529584
0.122871234112459
0.124826605103977
0.12243603222205
0.121652396524348
0.126032810229597
0.127783923663875
0.127303660380846
0.129304381261082
0.132138381204098
0.134053716752743
0.133111963471315
0.145424565526148
0.13450648458361
0.128104282378417
0.132504447299341
0.152066313536777
0.151954948179329
0.153167327592451
0.155319322331882
0.15954002016688
0.169712195972336
0.174054896133588
0.172769551494589
0.174062848061031
0.180994952952784
0.19129191590473
0.194423945746497
0.203388527976804
0.207053641326013
0.224272009286452
0.216851654485315
0.221553926220006
0.234938259310682
0.2166944755673
0.232572961279541
0.243368075084125
0.232996024809124
0.231373161658869
0.233634005132273
0.21948416487259
0.218296549918064
0.237484238953048
0.224698673642119
0.212146347270599
0.227498510188653
0.214383323172738
0.218455418909725
0.210877292023565
0.218476747921626
0.219050453302433
0.220265785552714
0.207998228755956
0.199087533857954
0.209098028754705
0.206631295170022
0.204231450272293
0.208450205953196
0.198908860969015
0.199787521767402
0.206819814261883
0.195784581585935
0.176141645452817
0.194302448345384
0.191089383202695
0.1909065861694
0.191114908623379
0.196908556410522
0.178010473003868
0.184503705703563
0.180696753629429
0.165707899873238
0.186052141752148
0.176519242466186
0.180491808198245
0.177120561996866
0.204525520499251
0.188743085847415
0.198335722434369
0.200690874151634
0.197362760895989
0.182289021889419
0.196555580537608
0.187490945584513
0.178328760344622
0.211082487879912
0.201821502394451
0.194651950322725
0.190865829734885
0.178497796267822
0.186182088891308
0.190589383781234
0.200621126448279
0.211171543084618
0.203286890503526
0.199730614823126
0.186598275809145
0.21622212232941
0.214479838931658
0.216980086205995
0.189438801961192
0.197265024836665
0.189533739088364
0.224968682474318
0.220297990015064
0.214296200376785
0.223609841440032
0.23094828702266
0.241759083529298
0.231761814498975
0.245048599427397
0.246054361252285
0.240068249934487
0.277887375346333
0.233269314930427
0.258301038349032
0.277196519501138
0.269424251534431
0.277944142294291
0.272301991562544
0.290419915479254
0.285106728607579
0.305071582834334
0.294438849940768
0.273143096016035
0.281172528106382
0.276655844149042
0.298346887173923
0.275026854341342
0.273725560072308
0.292317167476188
0.278684400298706
0.25231351864542
0.285750662101758
0.283055473511694
0.252820794414874
0.228970950838718
0.262502342255486
0.248925538141122
0.23354449203404
0.285402877141792
0.274080066161616
0.317129522785946
0.263698014994252
0.23124083477465
0.23258743802609
0.281074535466139
0.275290794451786
0.264251338074114
0.259263037463499
0.264363198744541
0.228042142212325
0.267965685617836
0.228677938387022
0.249950389827259
0.243410384773507
0.293225194609817
0.280009985655634
0.25177202015025
0.260804662131812
0.175306301665147
0.25790110450461
0.265184852285552
0.238797816110076
0.317323856455417
0.32073081838889
0.231932258600106
0.41190906180469
0.198101464114494
0.231703101361641
0.248766393521421
0.277054378498361
0.341661154842455
0.389284072404205
0.172026767489981
0.363505126222881
0.353368550763678
0.351879041359533
0.416525258756729
0.17389616735434
