3596
4000.36533379555
650.420452594757
1
2
2
0.0665484877182803
0.0549209385807365
0.0660896327417834
0.0583818092978752
0.0711285838500309
0.0574163218224681
0.0691233400861448
0.0590781700830391
0.0710252772100968
0.0555633461336325
0.0745075537471501
0.0568545604039979
0.0710107098444513
0.058017235437326
0.0696315183548202
0.0569521037937036
0.0690662295669865
0.0552542683017562
0.0718509232999129
0.059566382176393
0.0659925299776783
0.051908400603315
0.0658355280055163
0.053180608562751
0.0715898692222233
0.0565945413818413
0.0690451036080891
0.0595487707304449
0.0689960092903277
0.0645630917024564
0.0673896247379068
0.0536000719524576
0.0682125413157785
0.0611572790469841
0.0671097786870491
0.0617892717398661
0.0693431027292181
0.0499767983813474
0.0614648723627203
0.0579436448783879
0.0732657507610465
0.0598875783031893
0.0683458944214694
0.0602332790173711
0.0771601879481986
0.062741616470118
0.0654565565184668
0.0612013018001219
0.0690730145802209
0.0613562453751333
0.0781677932748793
0.0623346644843822
0.0849837643865136
0.0646513549832258
0.0764087926506833
0.0752890732684422
0.0750699160617282
0.0533143402895196
0.0721486208280185
0.0509889468331516
0.083252201774531
0.0673107156151466
0.0658443613735971
0.0575277725512983
0.0642475843284812
0.057705099141481
0.0659993892562785
0.0585702786405442
0.0694183441284781
0.0604618910414302
0.0610089570869176
0.0800861020980467
0.0865158027004088
0.0642474189198159
0.0778796533796596
0.0600488917842763
0.0647059987679795
0.052329096799595
0.0673764887994021
0.0629663216535395
0.0822584184571986
0.0621297247376989
0.0722070625462545
0.0447042520712251
0.0736991211463775
0.0716129731885899
0.0583737475783062
0.0553139094614655
0.0859814457775953
0.0639600201183874
0.0625595311760685
0.0589369869182913
0.0721843098725751
0.0503001215124207
0.0654912514566722
0.0512060222756961
0.0607233264790552
0.0602763437519172
0.0603179154159078
0.0591635442681388
0.0711775392596051
0.0660044495673641
0.103254856994656
0.0585612693585815
0.133631682113848
0.0654314758418316
0.0656323032231474
0.0925270127099773
0.0863542243089603
0.0643099900526303
0.0612440552180403
0.051501991062764
0.0741971691438166
0.0615291784119989
0.058044327755284
0.0808875023216344
0.102941501615892
0.0610889848369056
0.063026853247515
0.0588340142330677
0.0528541415024291
0.0940754660051626
0.104728075402824
0.0676991950991971
0.0792341105436853
0.059291205840266
0.0583175376489881
0.0959647670650945
0.10582883011845
0.0610237885048111
0.0675715735007825
0.0493516012914421
0.0590149874065833
0.0592653251286063
0.117064977221415
0.0631468994112407
0.071632711326007
0.0322485207956662
0.0943602096259524
0.108442436244972
0.0818304389514908
0.0614205428699075
0.0508196291345425
0.064126622029069
0.103063895516546
0.0581666087959523
0.0612730909750521
0.0816893180595702
0.0712708054563603
0.053866269116846
0.064435061823026
0.0549832782820492
0.0907281706930947
0.06814945771161
0.0326782464291192
0.104198097227967
0.130300943579197
0.0735323986903957
0.129570881752883
0.0583427963903429
0.0827489280751496
0.0563620523631761
0.0645339305766764
0.044142844210872
0.0722895156887632
0.0412000627138937
0.0823870001559938
0.0838693354328244
0.067755253529425
0.0666172934847289
0.108921889897775
0.0625876447663131
0.0582454852056368
0.11702044728728
0.0775278369948288
0.0496451804226585
0.101194683910251
0.0686529142762651
0.0509971278324778
0.0647539821275289
0.0947064120750267
0.0535748247598063
0.0756008522630983
0.0454174116370822
0.0716399959028656
0.0720121124576938
0.0735309911772547
0.0543929009888152
0.0690733603595096
0.0436865793974562
0.0861909491131881
0.108096931538014
0.0979694023036888
0.0537101592132596
0.0809512941979536
0.0250773384820923
0.11387124123292
0.0833367936774221
0.0690308068168795
0.0515879537303112
0.063245955519589
0.0475714698581518
0.0614938824429489
0.0520939290595
0.0575257388770775
0.0287121712813221
0.117108995260141
0.0648158898075234
0.0644275843132443
0.0474629781630704
0.0677290359087379
0.0398821153750883
0.125958277467682
0.090151872825444
0.0645472935491182
0.0602068789418813
0.0540461986135632
0.0801952172276256
0.0826388565586027
0.0559196532661781
0.064060551414173
0.0471464501068192
0.0611361566407077
0.0517659880569722
0.0670166553967132
0.0564698375580731
0.0635082019089672
0.0523169985137259
0.0669140673078543
0.0542075161244212
0.0723176145944315
0.0586245746768806
0.0655701552766782
0.0546360743576609
0.0487790813952748
0.0636807837115421
0.0905892832794367
0.0562583784795036
0.0703138338531761
0.051640247701136
0.0594524352894309
0.0539035108847433
0.0603192573015697
0.050056178287636
0.059474098812285
0.0343332940804267
0.105131305733174
0.0540321906828478
0.0741155823334437
0.041374343821064
0.100969827097095
0.0614681266394368
0.0678495029445247
0.0538046905749413
0.0622322277985349
0.0460112409471778
0.0704809262079803
0.0805996306925966
0.079124685614387
0.0479644510314319
0.0823072825625179
0.0612024729325651
0.0677369112870413
0.0496523276240341
0.0522274340507544
0.137624292372692
0.0821583128402319
0.0428734898418485
0.147368601220975
0.0727194779538568
0.0843671418036532
0.0574700277876645
0.0330203102901699
0.157135746041844
0.137338404418868
0.058290264116173
0.0731506883356781
0.0802290288126028
0.0617088175926864
0.0627732409706029
0.0713084470105516
0.0647297245999579
0.0971715868801002
0.103274311824908
0.134990510991361
0.0344889445040645
0.113747877953445
0.0783136120519659
0.0729618088195896
0.0543453370007915
0.071287932945047
0.0484829127387256
0.0908927222268077
0.0734394525602423
0.0885411964665088
0.0603368601876927
0.0693666934574541
0.0877267940230352
0.0750845738203009
0.0520019391137359
0.0731833289928389
0.0685596443020038
0.0617710597483599
0.0597265960200753
0.0581957396918446
0.0666180640841165
0.0644037563629562
0.0526086667834304
0.132317578603444
0.0707596256871968
0.0723182542512011
0.0813279966199678
0.0751414408619455
0.0558099555136785
0.0675783649147645
0.0540786131614865
0.0619355076431485
0.0486440365704291
0.052441012407101
0.0940144459678725
0.0729895437448006
0.0567276618117907
0.0574555963225986
0.0557778254475988
0.06361806291992
0.056451550154792
0.0555555508840515
0.0518509284016605
0.0746947531656308
0.0425341622849547
0.086107746363327
0.084190901991477
0.0370565037802423
0.108045177694274
0.108787694687596
0.0648932273835624
0.0751892222345938
0.054381068673405
0.0723637338445625
0.050229585416818
0.0723216127825652
0.0537394666814335
0.0640861950872726
0.0782574371900294
0.0835573226324006
0.0549897920464619
0.069326064106111
0.0994165214080981
0.145207396229273
0.0779602718791752
0.0823402694800842
0.0335436993357357
0.115240515773576
0.0861907243323607
0.0974083682870901
0.0906119067946646
0.0731232378663598
0.0678697926043708
0.0623756526190204
0.0724689336341154
0.0641694882796665
0.0634969864394218
0.0665976825366296
0.0694610154561232
0.0687984327472747
0.0713120315709709
0.067460873977957
0.0744348522069829
0.118409748856789
0.0778888625015336
0.0780822390853855
0.0750029760966878
0.0655514442708103
0.106580188505003
0.10040497001305
0.130399207665363
0.112521777046469
0.0945174979556533
0.146350587723494
0.078443227492368
0.0897826923394722
0.0674655007597849
0.0839862814670928
0.0692674444480115
0.0866190349843506
0.0711429723486887
0.082610230228934
0.0733062850720141
0.096572684245511
0.0743463307685312
0.0921371735473588
0.0745022726915628
0.119716692663869
0.0787006291697948
0.101276325579264
0.065729544988778
0.113669410664951
0.121700047372098
0.16111315513475
0.0961808144777828
0.110401173319663
0.0835168327463988
0.0883399270383541
0.0942205112970474
0.104162713014381
0.0948799837549492
0.110173249088947
0.132886734857744
0.13133925898972
0.115024219258909
0.137190238362868
0.088855930043979
0.141967198427542
0.103591861514804
0.131896163718148
0.128886090185356
0.130334899385959
0.0884307040990672
0.148251834280754
0.125338287752591
0.131057742626756
0.134667433625269
0.114947397951611
0.115305863637991
0.122156604706596
0.126239932797413
0.129306961738451
0.133308793818198
0.143260894795548
0.121347817816
0.143889014220593
0.129890669721673
0.133154630986424
0.15211593308908
0.145414886668042
0.137139965741876
0.157219713571026
0.116333530812943
0.156257021849412
0.112179770539673
0.176945908153162
0.157226799589015
0.172537651199635
0.178795834414506
0.151647785556051
0.147029071773071
0.156274400351043
0.158784047888594
0.15472477649549
0.151611945022017
0.178700678840872
0.1545207170909
0.176276420108992
0.164753777725678
0.167498198445514
0.163275893258851
0.174415802138794
0.167789996573381
0.183483035231244
0.169772895847147
0.200552243475568
0.169254538862188
0.220511801565027
0.208328488387008
0.224242254995772
0.215560802876848
0.198037680374699
0.200037026035053
0.203018466601628
0.198501965071398
0.211878121095187
0.220668723487071
0.21695899131962
0.204892871892676
0.220721986516861
0.20796903956074
0.222158419115564
0.214209168820567
0.226645162350289
0.21385831868782
0.242719393864246
0.226003154161117
0.248350868540884
0.217173229001349
0.245586974701265
0.245101047481145
0.255179860563051
0.254332169715285
0.264666804221831
0.232140716408341
0.261886018814
0.247868744031002
0.256433728785365
0.255978614323211
0.269871961367401
0.247149803538908
0.281514348089792
0.261144988724951
0.283373118972703
0.262849124030523
0.286554582280911
0.268813206198074
0.299012212292382
0.27128405056402
0.303019662326239
0.287118160675708
0.315548206144196
0.299429637339872
0.325016288433828
0.284303080418787
0.319720786976498
0.307979986819735
0.328520864025437
0.315106162829548
0.325605770839191
0.316938326110371
0.336214822449472
0.319304898736883
0.330640146876658
0.326294146500658
0.330157521347471
0.322663380305239
0.360296862168601
0.34905321498139
0.349872892664809
0.34998409026802
0.370777895068112
0.35460769165693
0.378576288034501
0.339317164366158
0.36772451477731
0.34302792937388
0.386598653834707
0.373685706423569
0.373447504288086
0.374152548091932
0.393619600959816
0.36789293292621
0.386643322905831
0.378104122708825
0.400076023329426
0.403048959593631
0.411191204178104
0.367120998959651
0.430850955703944
0.398346675351933
0.42515638675159
0.400352900709898
0.425436360955553
0.42376688101725
0.434222084184016
0.409212338916933
0.447129112995322
0.425834709047992
0.450401441824428
0.431757783080644
0.464216820828465
0.435859653947518
0.463177209080344
0.445196345164681
0.463017228510163
0.4421399717352
0.484669849987398
0.45046800050734
0.462788652734598
0.462860463539307
0.459628342711902
0.462681785814445
0.486505838233002
0.463439375782168
0.488120168545983
0.465562828459758
0.499829554610306
0.474168910268437
0.50287440717312
0.50190722530259
0.504164693301828
0.496487365965533
0.517626310361083
0.495222515137575
0.543476186030353
0.514500022113668
0.527868661271494
0.520638028701359
0.535660698458571
0.523547100327574
0.538409377056691
0.52251003454354
0.554967867894265
0.524274750705253
0.554667691911546
0.528184396635992
0.591379584777968
0.527622715440577
0.574016395511776
0.53897679779085
0.566976323518936
0.545189014619786
0.578783315871354
0.56086257478167
0.582206336929284
0.573340694084707
0.575849483876621
0.566413360474683
0.56078486943045
0.549492064553983
0.609308378716788
0.578710067714027
0.584959348236738
0.583171298923976
0.606509126336731
0.604290446474999
0.601000474081161
0.579619941484643
0.635083992315853
0.628651999664435
0.611872974330727
0.583158500174167
0.614111684796037
0.604551472420167
0.633729956279488
0.603844565760869
0.659225748343191
0.616102609361663
0.646303994113225
0.626359440972598
0.645002859745804
0.618376166901348
0.644160562388841
0.603350085579215
0.660032889432759
0.610671789956386
0.650713817043134
0.625121790627666
0.663291513259018
0.641003090719666
0.670929644481415
0.621649261703031
0.675611881920226
0.62734715995229
0.668225515871304
0.636671568930393
0.635125680931701
0.642265582733473
0.682802219712689
0.666850811055441
0.704806722318464
0.662745871442775
0.696224926362341
0.665993444546417
0.697490901381091
0.651835121482358
0.6890025738894
0.66091549583717
0.699967684520482
0.6803936113543
0.683826392779697
0.679318611930299
0.702130859664527
0.654441640656399
0.701706218141301
0.649046833155434
0.711532780046055
0.671295698995268
0.720880869266683
0.687459606616034
0.705315480965488
0.686735585323467
0.734056941852858
0.699107600963528
0.725424033786262
0.680288480339573
0.704989618151553
0.70036432479086
0.70286589997943
0.663574541966446
0.720897009292763
0.684182966126421
0.742107053190734
0.699182782053229
0.725697149954809
0.687622555734338
0.731455896333205
0.697940060240894
0.71619253907644
0.706718775057074
0.730256288105669
0.703356812569576
0.73453310497315
0.712403635509882
0.741911306415937
0.719507884402698
0.742045606888256
0.70641315717336
0.751953370951987
0.717995619225258
0.743472512838796
0.722032548960685
0.741004557621008
0.705364754856673
0.737901207482512
0.712847775719648
0.767774651514271
0.708126488184681
0.7380214715329
0.703694287554656
0.729930511514696
0.728374992457787
0.736578112157382
0.713393939472678
0.741248926290846
0.705949673498243
0.739330156790248
0.715776956855918
0.747110165958516
0.711048144111991
0.739548104384792
0.697113158845187
0.737079841856275
0.730781566963235
0.742534617743554
0.722204116001732
0.731330752245582
0.713067093698791
0.727129996648045
0.715823836244626
0.73341141781484
0.718421240632457
0.749565697291363
0.69410435698555
0.737522066136251
0.730933848669445
0.72118515346102
0.708980694216011
0.754773601107256
0.708189939355153
0.73587146817243
0.702256560329401
0.721014407488063
0.71050115881376
0.731225143142649
0.698784761483205
0.730483767151011
0.68416261997365
0.729784284609869
0.710648873683433
0.726464254951953
0.696730574637318
0.722530814402672
0.69941891178394
0.702005279016679
0.705186915463269
0.732817351180188
0.700726783273426
0.714736578581152
0.699929402636054
0.739596410777092
0.688345997474434
0.71966919980104
0.703084291299793
0.714919240600336
0.689210039974215
0.705652926492497
0.703607949285293
0.72333918394972
0.69748358780131
0.700012589053443
0.696023678996156
0.723419863525304
0.688178775249906
0.69509988430024
0.686513071146937
0.731206709274387
0.662445115267599
0.705379083839436
0.683215997260316
0.694735613749824
0.67145878307897
0.703227617534536
0.683169874548939
0.678686041923528
0.676064397025097
0.698436522857778
0.672827330247197
0.690272572874503
0.676634613132299
0.6787881720142
0.656090101424581
0.673718788128897
0.668003371774604
0.672639967037486
0.646769315398826
0.676482582882399
0.667064032288069
0.68012360315387
0.64612992670447
0.660881727541482
0.640986798825333
0.655358669805794
0.641367919515116
0.640092157506148
0.637945132400349
0.654780453927176
0.646756724168821
0.657340635248415
0.620552320164499
0.643925638915757
0.625147645232695
0.644948793714085
0.625431681554784
0.641542003160411
0.606387879794552
0.634522072669386
0.621731114505121
0.619999322350634
0.601422183190949
0.627597819725354
0.604787471671566
0.624135821834631
0.60133402709157
0.614242727477115
0.600126868884937
0.61110600678508
0.595737728449398
0.606387360197873
0.584519426180566
0.59403563006362
0.585143158206624
0.598384133837576
0.584670695548535
0.592108492168846
0.575147555660659
0.588373329457214
0.583459820065502
0.582413455024877
0.573836588211901
0.583636889569508
0.566550587054762
0.569218281293282
0.55187986469635
0.57973115841216
0.551897871438526
0.563242953559415
0.566958472182291
0.560953597907728
0.538163510981532
0.548484232043731
0.534526243893887
0.551065690989118
0.534317620887732
0.54416678034248
0.534029507672664
0.540185047277065
0.536416598641721
0.539088782562442
0.521570828531528
0.525592414434796
0.528878163455536
0.529780960674461
0.518139977045052
0.525305003061893
0.506451348966923
0.515367997885907
0.511990063412029
0.516676199618567
0.493896760544808
0.516607403643339
0.504876775436438
0.500226139776474
0.486350935152119
0.493212024999292
0.481888453757496
0.508584937036999
0.487993131666859
0.490622209562575
0.480187960692412
0.489915922811119
0.472158319691872
0.47339791563307
0.468862081652792
0.470021601317671
0.456172041728914
0.470352944361918
0.457634478000805
0.462711474554048
0.449231831467762
0.465104021752346
0.452314221083703
0.466661844604929
0.437615370981309
0.455770620038145
0.445163419404401
0.434619745416781
0.432787232151293
0.439458916303223
0.436428519558923
0.437730901513603
0.420176122152041
0.431581635757421
0.421803101901877
0.428351339180609
0.417823336415278
0.424215422335887
0.413437260384623
0.415598492274561
0.405878060569318
0.417577335971552
0.406445209361463
0.404570269221892
0.400276669419262
0.40648710792
0.392538561212895
0.401917151946544
0.392233752864054
0.400920684205424
0.388602094501549
0.389179714744781
0.384225705299117
0.380471879427555
0.377700640274086
0.379208961510676
0.366381736080595
0.377185765235163
0.371529651813876
0.380670153421377
0.369230564914512
0.373960662312892
0.357964748191965
0.368024901944578
0.356582530310296
0.36488678053241
0.354018478336624
0.357848250905001
0.34785641860396
0.355409396103222
0.34555281253272
0.350472257397052
0.344222029359792
0.351330396596855
0.337628270302729
0.34085342346091
0.335282731306321
0.332560338740954
0.32603534450196
0.338947100634755
0.327081339089712
0.329809654756144
0.325471616877595
0.327359616572128
0.318052818478405
0.327664005299816
0.311746664758589
0.315357259274898
0.31078219462474
0.318869143799049
0.307552411953979
0.316553844598143
0.31586221685911
0.313691233979665
0.302616642162012
0.312366402092889
0.300196704775632
0.302495233161504
0.300584421880411
0.303132691440945
0.293476558092055
0.295680876148814
0.287981324168605
0.294727059961664
0.293686223174472
0.301969061221819
0.283248433635517
0.28238994052712
0.287577027809705
0.284908826597066
0.280534192676033
0.284988606347977
0.279450212144558
0.28153421835469
0.268131805519185
0.276651595014996
0.268037555732489
0.270861939883849
0.266288608092492
0.268739723624675
0.269477545173257
0.268891916007716
0.263566959007043
0.264433851911858
0.255921623502264
0.266086234157202
0.255050795666775
0.260123385610778
0.257816607951154
0.26358988240946
0.250457102350295
0.252108280688245
0.249976419854213
0.250213616049645
0.243959692542154
0.250629246710553
0.24774707369806
0.246162980639526
0.238027122808478
0.247230663119473
0.241547206626118
0.238597480705948
0.23517845539587
0.242764054313283
0.232937688522642
0.232769085298813
0.231152469045877
0.232759883732894
0.228412230468541
0.231453579584541
0.230578144758832
0.231224148460877
0.223409337137136
0.222066453480547
0.221139812901062
0.231065029531428
0.223668500142398
0.225054831037544
0.219460325023803
0.218189536043937
0.217708841212721
0.219423209892774
0.215593410709163
0.214877907866209
0.207054346098066
0.215584323808511
0.208266683150054
0.214755116256198
0.202753416667836
0.20741941259291
0.205129306086267
0.204705587728984
0.201601781143242
0.202635804451379
0.198670115573687
0.204352997583552
0.19601128516671
0.198879298487079
0.197252959458588
0.195629541582504
0.191923171052265
0.195846783779034
0.193280047785368
0.192259702522028
0.190051621902079
0.190943017442284
0.186129731646169
0.192909120021731
0.186342590796294
0.18822120595164
0.186880741552847
0.187993472970878
0.182523310722221
0.186187324622976
0.179668945824279
0.183020297142487
0.177779115142257
0.183621968171296
0.178683289266568
0.18317322343296
0.182252316565719
0.184425794317997
0.178044239986543
0.178247826908232
0.174558403008048
0.179414204951928
0.175223671161636
0.180856846107569
0.171364601704702
0.176682229995189
0.175019041559531
0.180474949753002
0.175494970076485
0.184711023624803
0.176073764088961
0.176059838195661
0.175030085768825
0.179970568843399
0.176612749348313
0.178088157258839
0.175348723128364
0.180489739064975
0.178194129405642
0.179210012510869
0.180405286717212
0.181015401393212
0.180073615196674
0.186695229538227
0.183341341140524
0.187393574470446
0.184546430100968
0.191372114536988
0.186472748657152
0.188098431998455
0.192294373245628
0.195732444934675
0.190450426475342
0.197589318644204
0.194538106900681
0.200747666416431
0.198719111364429
0.20082377741748
0.198742135769342
0.203660549976238
0.206967919368921
0.206202066914403
0.197505878067504
0.205596706238933
0.207344867168875
0.217376490024814
0.208847543854129
0.213273393593735
0.213649684985597
0.216876773920734
0.214498813118051
0.21567531279032
0.217652233625892
0.218282999803008
0.220820849109551
0.226048048063156
0.214215142724964
0.227562262472956
0.226976619363007
0.223617871500615
0.225788103671109
0.232764147633149
0.231788858421727
0.238190920763751
0.234850171402094
0.24451821948334
0.242004677492186
0.240576327815648
0.241292645246178
0.248686463215872
0.24454350042156
0.247065434228678
0.25348609762119
0.253208705312532
0.251366928069321
0.257839272415812
0.257489578796634
0.265306097609065
0.259617890101302
0.261867380066757
0.259819125091416
0.264067902713739
0.254073251380924
0.259883816169806
0.254847863744362
0.257887882602327
0.255750693715823
0.262177147652926
0.263500038797574
0.259362989847909
0.255746479210183
0.261930817661441
0.252944130533326
0.252749543931766
0.254280662769933
0.255438892914424
0.256176264454984
0.250355733576404
0.248941212832814
0.251653226377112
0.251510858371262
0.255506227988136
0.252169255744505
0.254495743680676
0.247905583422142
0.247995081214627
0.249504960182479
0.250018971098956
0.25085052970135
0.254799838764327
0.246483161842601
0.252911156866524
0.249948719044432
0.253310888055981
0.248696939452268
0.249932392473162
0.252120386396488
0.249958201934659
0.252104218747686
0.253553855267059
0.249291466613734
0.25106785334311
0.252532606956677
0.255686187217506
0.246500117544232
0.250254766117686
0.252186571741572
0.253341569110397
0.251612880814099
0.250129726902998
0.24562813507335
0.248876896582711
0.2448360896386
0.248541714797376
0.248377268855714
0.244295761762925
0.244494287895815
0.242739329827923
0.23795796018638
0.246903917039051
0.240120272271263
0.235962079686861
0.239202831296932
0.236801638692006
0.229889952527183
0.231763760277302
0.226877499326066
0.225007784926948
0.223051313017709
0.225000674529834
0.219856474657523
0.220216237695508
0.216600851711181
0.215444960200396
0.214445040583127
0.212792660321897
0.212863370854622
0.216586479327743
0.207621355855454
0.201625783637286
0.20333946875524
0.205511939262576
0.194504585439346
0.196575690224698
0.196902486467364
0.191390452952845
0.192903691994536
0.191173264950999
0.183189789052838
0.19295262643694
0.187120271797125
0.1832932841317
0.182846364584701
0.184470635515894
0.178274268527935
0.176794387562188
0.174231302597355
0.176972052647849
0.172824354165955
0.171041117953121
0.16980164464533
0.17057307885293
0.171476665756479
0.172849284565379
0.166752713925849
0.167076766148603
0.167349491476574
0.167181126581235
0.161767980724537
0.167579017233365
0.162465589646048
0.161423009135779
0.15931029032277
0.160574165896328
0.159546176560156
0.154613395516957
0.15383405981436
0.158983902292591
0.154294243055272
0.154632028797516
0.154665407347295
0.156358843035673
0.155341941334566
0.151593522166622
0.149678257063993
0.150717092909641
0.149484311935612
0.149973563963897
0.145890602982072
0.14846085462369
0.147294322878956
0.144941698035915
0.143566278011109
0.147199779225687
0.144469833399792
0.144138344586509
0.143139395482998
0.142348592099244
0.142427723112846
0.141727405363133
0.137334752949167
0.136557528314805
0.13777156575294
0.139874721635609
0.136101681892102
0.138582220320797
0.135737333032066
0.136709092601474
0.136474741786856
0.133975420159592
0.136858296705477
0.134602552860126
0.132755944811627
0.133190678725
0.128742512795206
0.132563326314003
0.133649075011294
0.132485400785189
0.128768809606399
0.128693623173247
0.128961716329459
0.13436093516653
0.130882086656199
0.130303896312155
0.130365397963378
0.131033285962376
0.130010881492139
0.129993793898824
0.123744301148271
0.125026371382714
0.126764405513586
0.126930495865843
0.126480931076399
0.126221580834226
0.125518721556357
0.125771248526367
0.121697017648975
0.121925770285636
0.121930186260019
0.124031046535123
0.125405153001243
0.125433175250434
0.123239805109863
0.122662882321409
0.124712249853057
0.118423048891867
0.117608982558305
0.122055876457506
0.119946519589347
0.123500251045789
0.119440383882784
0.115208564533543
0.116464289721084
0.118760427296216
0.120079680920626
0.117954627723955
0.115012581978685
0.120628209602111
0.119794512364482
0.116695800484638
0.117926724220046
0.117224171445248
0.117841153200919
0.118634677984314
0.11374896539237
0.117283560978957
0.116679939845179
0.115857871826795
0.115097524034811
0.119145443306272
0.11530638467992
0.113363236169417
0.116690999825148
0.116711080200923
0.114053164841409
0.115292930246206
0.11506874138888
0.111002020709771
0.113060377411881
0.114395544082977
0.111080723171369
0.11314488081779
0.112094982001078
0.114802989705723
0.113095137330449
0.113501667120792
0.114334882870656
0.116536192451392
0.113299323144841
0.112816677246441
0.113781970958188
0.110782549290953
0.1091039162065
0.112041592554208
0.111545145409687
0.111613186077624
0.112422729426028
0.113207652644162
0.111583030123899
0.110690683853134
0.108544665301713
0.109150549359781
0.109392029679528
0.108234549408738
0.10938317526481
0.106812249343877
0.104234197438278
0.1057827301142
0.105499273963815
0.107809881914716
0.109125458332121
0.103857690942226
0.102288104542383
0.107203098691788
0.107674060383372
0.10403242188178
0.103496093573831
0.102410068872809
0.100106499816619
0.101149126721036
0.0991667263480718
0.102378423599967
0.102299142933178
0.100468252757434
0.103070171030067
0.102176314252854
0.0980658192264095
0.0989477520722715
0.0997332481984729
0.0994179558915524
0.0992387334118186
0.0977578018225099
0.0994761155606209
0.100500839552396
0.0972539064986592
0.0981879156669512
0.0989170016012041
0.0981917474455083
0.0962699440289988
0.0978501622012203
0.0950111958611198
0.0950901899678201
0.0973227255010823
0.0963572091691239
0.0959580609821991
0.0980880123222041
0.0968207153856399
0.0947073425418239
0.0931575336624699
0.0935971868003718
0.0940873789600391
0.0927663691363543
0.0932860995691456
0.0935886167309645
0.0942309140087253
0.0926369054035657
0.091911795783118
0.0936540742622746
0.0919746998362572
0.0910884441788747
0.0924647981839347
0.0914937215615729
0.0904086136180286
0.0889543998795304
0.0896548330296182
0.0892439198356589
0.089648173027519
0.0907068536182694
0.0869100014322255
0.0863608516739842
0.0866376233468821
0.0858081814217552
0.0833999325679664
0.0829310981881293
0.0828260630874744
0.0828528326910104
0.0826290623253711
0.0826339478417464
0.0837851866185277
0.0828363114566505
0.0824791083724904
0.0833520185332561
0.0823489584110477
0.0789814580748601
0.0820760103334299
0.0834673036942843
0.0798608992976892
0.0814269256672415
0.0818042513721777
0.0790353387088807
0.0793647980222651
0.0799890757748002
0.0772298450530906
0.0752153359726488
0.0788506585009932
0.0790295847978253
0.0778227848059856
0.0803839927447938
0.0750176010971223
0.0753015689848827
0.078444076571026
0.0781780282989028
0.0765982300072594
0.0749376001131362
0.076978660496156
0.077550166109957
0.0770362889011491
0.0774818501912344
0.0777753331333864
0.0760520456558183
0.0769628150606517
0.0778506818752476
0.0778027482845016
0.0734191251061944
0.0732764108080355
0.0740562459511776
0.0757036414768874
0.0739912640383251
0.0734646264206739
0.0756469806771452
0.0748568118241346
0.0722070376334497
0.0746192791161227
0.0732416273948487
0.0731408572491016
0.0725838767046249
0.0702156437314818
0.0724711252811146
0.0751541942732781
0.0721687930576606
0.0694127360612864
0.0714492255947169
0.0711145019602425
0.0693465444459736
0.0694925170341567
0.0686348186316622
0.0700085447512786
0.0690392320616905
0.0677976837864683
0.0679448590223914
0.0683518458145667
0.0689549840072858
0.0678100574297492
0.0672324363923023
0.0716243555627489
0.0678730506436743
0.0674573911412037
0.0693408822436634
0.0667351848918271
0.0683725609763346
0.0682677546039695
0.0661499685977586
0.0669908186891202
0.0670554608552899
0.0684327193919497
0.0673619392370455
0.0661649288857609
0.0643455289437748
0.0655041224116115
0.0665014071214593
0.0669564916770945
0.0663424916563532
0.065462347272329
0.0674617403956112
0.0678624752554892
0.0663816639190194
0.0660281831606763
0.0656079477603939
0.0701149261668928
0.0668026167649485
0.065580469315504
0.0657863221122831
0.0669170262615454
0.0675073501366927
0.0680962119717138
0.0659206714439746
0.064067720719711
0.0638949759350876
0.0650291972868276
0.0633909194941806
0.065034374360562
0.064729439169274
0.0663200522119139
0.0657763155822623
0.0637483257351439
0.0640616643264085
0.0635342929723949
0.064342599520683
0.0648049478066371
0.0601081893890159
0.0619159358419136
0.0625343060432987
0.0633479845489955
0.0613025157828414
0.0634333670818132
0.0638435806154271
0.0610387681909721
0.0604769904207446
0.0608087520753441
0.0612338269527265
0.0587605708869707
0.0596303042416072
0.0618230698164311
0.0602886825212771
0.0609263377638986
0.0575548283750776
0.0596057632280462
0.0604096761715573
0.0617254231364675
0.0592177373116115
0.0579783677225581
0.0579183899618075
0.0585662962462908
0.0592934145552384
0.0606855935547794
0.0604084725847704
0.0612012739725884
0.0589337014458721
0.0593232217925843
0.0593143010673301
0.0603809976447691
0.059380523787183
0.0590652512966307
0.0580965570438435
0.0583090612198747
0.0577825122434168
0.0587964633857187
0.0584231356537161
0.0598704501896834
0.0575838977198921
0.0605807556206274
0.0592158285586799
0.0577768860764576
0.0588470805828387
0.0593184558768425
0.056778032340629
0.0577793922734452
0.0560494988293028
0.0581070383085139
0.0589067338137252
0.0592707423357346
0.0550025762719607
0.0573131692637954
0.0573926711513913
0.0570777065160934
0.0559697934734417
0.0539031353417158
0.0518779623754537
0.0537365359888067
0.0555812259372722
0.0565644841079328
0.0539291936163749
0.056490796623599
0.054475810965917
0.0548431351152722
0.0551557710539686
0.0514286215921192
0.050896104595113
0.0524982886867247
0.0521513563546165
0.0530358035511916
0.0510254017373664
0.0522923138738387
0.0515062380002669
0.0534447149061261
0.0517705569886099
0.0514924439579263
0.0495257958415339
0.049947878367195
0.0498190436559947
0.0507437703417789
0.048626088190317
0.0519132176725798
0.0498514890778421
0.0500430187175695
0.0506668545060374
0.0501996578026021
0.0503957481034265
0.0491089434490001
0.04683446385099
0.0506775348135276
0.0503485206285575
0.0493736422912545
0.0476919649711732
0.0488524844590848
0.049004814806265
0.0479868375082127
0.0472934117990532
0.0495024021586622
0.048303738753953
0.0499950473864852
0.0478691929637217
0.0502781562140445
0.0498533366969088
0.0500289204873156
0.0481693995739477
0.0485711923536239
0.0489328714242772
0.0482215387398938
0.0467524972376359
0.0491549841397865
0.0472299087790902
0.0469287460528624
0.0481804846848053
0.0485586790563212
0.0469166148738387
0.0471646444346626
0.04658808230541
0.0465737986475316
0.0429172277256296
0.0460704797840664
0.0433158725849156
0.0442268666931265
0.0449020242207945
0.0464097730913668
0.0440647160247273
0.0429792647975761
0.0432322885487377
0.0451032711906738
0.0443502123473276
0.0457016841843149
0.0423544300572659
0.0424772012619971
0.0441315226646288
0.042124411589453
0.0416543131044614
0.0450346534532026
0.0430582013576331
0.0425581065185011
0.0419192828979212
0.0446344775617456
0.0417440106252645
0.0427552443174815
0.0435291156493649
0.0424581552516348
0.0417123609776676
0.0427536000843006
0.0417276671532005
0.0459822165290852
0.0421776095495332
0.0403151691075089
0.0414102563874079
0.0442050565663462
0.0427089184773412
0.0416749196492611
0.0427559615090972
0.0424631937417409
0.0414193496257809
0.0430735770304594
0.0441568492660248
0.0444989985397524
0.0438991414446633
0.0419868508621543
0.0394752043252523
0.0407909483965462
0.0396586893656796
0.0396105501367371
0.0378632445527517
0.0375287221065417
0.0343860997947031
0.0324259243239704
0.0347845525297992
0.0396654902888198
0.0342947674976427
0.0296791085228345
0.02983974698321
0.0334176702423297
0.0353059489452823
0.0321688772198381
0.0289219286462898
0.0309035865592952
0.0341513120537766
0.0321942011644964
0.0279997148386841
0.032916640690938
0.0299743991077522
0.0309233259529286
0.029468081723423
0.0335179157019108
0.0372188048845868
0.0385558940902865
0.0396501925012017
0.039888999070648
0.0364413335338616
0.0302768821657724
0.0311908201662082
0.0339257530108547
0.0305817624988002
0.0354596255111224
0.0298341426220962
0.0317124803592088
0.0293787914750889
0.0328413068772082
0.0323257479289883
0.03412652463747
0.0240406815504575
0.0350503601987245
0.0279564695453948
0.0397488817583112
0.0279920527433789
0.0441705919745976
0.0243279017458503
0.0410349952334526
0.0217271523159738
0.0406791159665961
0.023648768045592
0.0523669833351997
0.0172676263376494
0.0509604727552733
0.0220208672567025
0.0626566764467716
0.01640971901925
0.0536972202895135
0.019016141921865
0.0627967683464049
0.0196278564848709
0.0531478819732949
0.0282759174065443
0.0515941527888086
0.0291079527618229
0.0436370999514154
0.0398849136625846
0.0375899304156817
0.0412820631840217
0.0374599936114759
0.0402079995466291
0.0355316333753909
0.0419239056545242
0.0374549513651602
0.0368149518516012
0.0416527413674524
0.0369611155245888
0.0422272878140703
0.0343248947314196
0.0383029858019078
0.0347649797957239
0.0383412833334855
0.0356926885359214
0.0352420723171659
0.0336028301060134
0.0366259827753598
0.0366505249806191
0.0383137962975179
0.0338016637204021
0.035457814987725
0.0349657620194768
0.0375904069075299
0.0344116487181699
0.0353393397940862
0.0328852376626769
0.0372721153113166
0.0338802611068626
0.0361104126160805
0.0340001804803033
0.0360873847757684
0.0335642935183241
0.0380119384342322
0.034130943394143
0.0356020461532529
0.0339818453052998
0.036217183634331
0.0343303519509281
0.0373922369054154
0.0338709386444724
0.0382366103386257
0.0317393310945539
0.0359807306922207
0.0336007761728124
0.0360638036934005
0.0347707110735085
0.0366639927822383
0.0334074457409298
0.0369178765872507
0.0349688921053728
0.0357344076065571
0.0335658997630054
0.0384518031945157
0.0357121192080447
0.0368377336757402
0.0351778403794746
0.0343086223652789
0.0337448998675484
0.0364746387364709
0.0324013781651805
0.0355868969509193
0.0339336114256698
0.0373641504376204
0.034591150781791
0.0364100336248998
0.0363582212927503
0.0355462380187139
0.0329500277773649
0.0324063234948426
0.0324367821658938
0.0366994277168498
0.0339356135362351
0.0341816614333559
0.0338869676429317
0.0356133835849822
0.0309060150883678
0.0327141069908949
0.0349163434742035
0.0352405356828629
0.0331586734825603
0.034261014736957
0.0320677929504413
0.0353135118583664
0.0337824546907949
0.0354714087275799
0.0341242938060591
0.0356020215354059
0.0348028864655236
0.0333104192192939
0.0339142468657307
0.0366893261136488
0.0327782742734996
0.0336920000414135
0.0330002315431008
0.0362775993892329
0.0356852408578008
0.0360040959346815
0.031693476797485
0.0337716789662013
0.0335320514152212
0.0376003197086469
0.0353274931368368
0.0343832649216611
0.0345664245806146
0.0355095823542496
0.032614569377558
0.03614466990978
0.033152360159222
0.0361885704519768
0.0347463198761636
0.0358759598789958
0.0327849495902704
0.0359268812209741
0.0347350077112013
0.0363991423395805
0.0352509426493428
0.035418824146896
0.0327318933866277
0.0357852102084552
0.0351527553669605
0.0374985763938925
0.0351818707212871
0.0361753338879231
0.0317903570418644
0.0370952102753552
0.0339353183111751
0.0338435377697401
0.0324899866852877
0.0348216569141285
0.0329744218540434
0.0339136220564785
0.035020719710561
0.0361800123763049
0.0324923421612505
0.0351036134867571
0.0353556093446004
0.0360769462115109
0.0321143138470519
0.0355928493069847
0.0345285972009939
0.0359756681050809
0.0346305634804603
0.034398586129066
0.035170574918382
0.035449823809157
0.0320530326762128
0.0334178626455554
0.0349068968195718
0.0349747921718679
0.0329947605176614
0.0347590497796335
0.0334388866656192
0.0341281884066241
0.0346813353655582
0.0348633383240763
0.0328436350725844
0.0371008331146226
0.0335934627168665
0.0358224919941558
0.0330366763449612
0.0375205101768354
0.0347130117806164
0.0375972903404136
0.0350217414704962
0.0373435088389174
0.0350477264888569
0.0362526126201641
0.0361660091196192
0.0382090254100928
0.0357000482311658
0.0363259358715291
0.0334244581007648
0.0368265660327788
0.0355033682822626
0.0367221977712604
0.0342933236174351
0.0365142923618988
0.0344312150358485
0.0344677480144715
0.0346765741750347
0.0363127074350713
0.0337361947559283
0.035223618715692
0.0344180516554732
0.0364215212823545
0.0335745197812246
0.0359761750431577
0.0328926441765386
0.0353222002038176
0.0320297437403368
0.0343395132976809
0.032970648009286
0.0338948663818811
0.033393792630993
0.0350110433067023
0.0309601017762303
0.0339789005207154
0.0340391492180028
0.0351594305524363
0.0333564940090606
0.0347448512375886
0.032097831963827
0.033132691831928
0.0321948899978914
0.0353153054560445
0.0317807550048582
0.0347487939606368
0.0317111976707959
0.0335554897705381
0.0344898713953039
0.0351433251756683
0.0326130895393987
0.0344100023546783
0.031052028531461
0.0342214920633225
0.0329438630663297
0.0337170923083711
0.0308846606663812
0.0357040290161143
0.0328895017235289
0.0331148090323117
0.0314654964119908
0.0340018810348736
0.0296794047294571
0.0333749263212952
0.0308266962540885
0.0335571124359862
0.0336530501493299
0.0355776931207688
0.0311787518957793
0.0333265904442573
0.0306342095485227
0.0329813887025397
0.0308213607934064
0.0351600651586186
0.0320866751915013
0.0353324360407603
0.03358628542659
0.0349078736814748
0.0333089938818938
0.0356610834193087
0.0307058884133255
0.0366683539309752
0.0328418360402546
0.0319748499072549
0.0306906898929474
0.0315237608917495
0.0301508402167181
0.0314866985204234
0.0310873212222732
0.0345213695975352
0.0306481739350979
0.0316005584319735
0.029895241708702
0.0338953601663208
0.0295483346173861
0.0308560837925547
0.0295366433243278
0.0321489903763708
0.0315773196424322
0.0323408006617402
0.0287951692312755
0.0347617081416897
0.0358266698285298
0.0334220283426918
0.0321256400617008
0.0321666739306839
0.0316129210977143
0.0333393756402791
0.032719962265862
0.0323087363995999
0.0286890568007931
0.0323037391861125
0.028966638608031
0.0328567281982688
0.02972931326548
0.0318747462734823
0.0279010182890416
0.0316836224917301
0.030673931125391
0.0306201477870991
0.03004664363527
0.0308919549984337
0.0298658628146931
0.031931936497399
0.0280615220606032
0.0328006012931339
0.0303499571257453
0.0341760676112693
0.0340415598073655
0.0324895918786504
0.0291812609056317
0.0332235811900313
0.030430369146016
0.0335900130282533
0.0306043691104682
0.0312670460668309
0.0299010986812386
0.0312794441488027
0.0289104420948712
0.0310030121644564
0.0291559280536079
0.0303733615052899
0.0272678791452726
0.0297964441913739
0.0293687460304275
0.0302676073754301
0.0285733604100656
0.03156349359698
0.0297380900506743
0.0333347477534929
0.0272803429753097
0.0322202423308198
0.029782535116382
0.0289666649697905
0.0355109614770438
0.0311470444883133
0.029779123599952
0.0278067104606573
0.0301381508295825
0.0307083567960262
0.0292329346862164
0.0292837543413315
0.0287182450892151
0.0297886589322038
0.0295957896322287
0.0312145224771773
0.0278132245132934
0.0277981369707272
0.0299006580450034
0.0295998267994508
0.0285899029989471
0.0268635567097436
0.0274690308209786
0.0275340091202684
0.0269375231843613
0.0289885917722059
0.0280455304251075
0.0280021469968434
0.0264272064443406
0.0254632552499305
0.0358274454846835
0.0372519803226841
0.0295678864002076
0.0304716738973195
0.0301497463244163
0.0318696685447305
0.0247446519347807
0.0305764009559099
0.02627689778079
0.0294811282809009
0.0275956785237905
0.0291702730549205
0.0274338879696147
0.0306046020132079
0.0262777220117151
0.0306157456663065
0.027072939267013
0.0277150701992065
0.0273786867635465
0.0268915810118295
0.0256174794218285
0.0289303438432159
0.0274347633610108
0.0285021082377846
0.0291427805281226
0.0260711756709653
0.0252337246849782
0.0358708206270039
0.0294311585027765
0.0316737524318311
0.0253950468409766
0.0303887989456699
0.0248951986934784
0.0292117825313749
0.0235395114776832
0.0294851590299355
0.0260764083974048
0.0272989525198621
0.0263564983839051
0.0290347603740498
0.0257291924900262
0.0287888930530274
0.0234600795787617
0.0279289288127345
0.0248083673588874
0.0269108422713227
0.0255763758842768
0.0287708027409399
0.0244759633842651
0.0282559368790086
0.0231186882844553
0.0334867584083823
0.0209234753933999
0.035684815770825
0.0454070629945019
0.03055636888899
0.0296538534903797
0.0248838415602984
0.0249938624433633
0.0261798009552255
0.0266623619069982
0.0243517389250194
0.0258752335686061
0.0271190068915756
0.0286942185164145
0.026867664309952
0.0249664206465756
0.0273214523911059
0.02694369554495
0.0264192845909875
0.0257369040441271
0.0258534911240198
0.0279248788489006
0.0231150951676516
0.0317439117413392
0.0424525524537237
0.0289007213838558
0.0292983716122091
0.0280431682340846
0.0203949035600693
0.0499312633145025
0.0285165395345802
0.029535727200488
0.0262812010920171
0.0273815013408581
0.0225559607457822
0.0280653606270345
0.0228812953252701
0.0297818712116605
0.0315154684052913
0.0263640946639404
0.0328512448195541
0.024986237411948
0.0264813915038441
0.0232276302826755
0.026731127087285
0.0216303626726114
0.0262249612289805
0.0256065450297257
0.0260396721112881
0.0243674729144162
0.0234763167691009
0.0281987301106742
0.0227126417606038
0.0293919955285749
0.0340513014288221
0.0260973426111539
0.0239092603343897
0.0274312369777044
0.0207568359147834
0.0340328538752063
0.042115358065035
0.023460273301899
0.0309859194302621
0.0203629644433208
0.0282408631023187
0.0250395046979291
0.0287563914143401
0.0215590369824365
0.0272038072941455
0.0235629430906311
0.0294800257083229
0.0226468670343971
0.0276407205652092
0.0219236905550676
0.0277603042600354
0.0221510298023347
0.0271855491849019
0.0253463619530645
0.0264549133172286
0.0282998581325513
0.0240336222068698
0.0463538855046327
0.045366009043415
0.0396677093534922
0.0365510932172346
0.032878404616567
0.0257398154062719
0.0273373531438915
0.0271926912053702
0.0235469275760355
0.0288071903372047
0.0240467802745854
0.0280621656483353
0.024739685464431
0.0263143801566579
0.0228600668428178
0.0280436514923627
0.0230972236791974
0.0261793923100164
0.0209514119894358
0.0264372486785078
0.0203024946219207
0.03095085038489
0.0172376725378434
0.0397903641175144
0.0289892337323491
0.0373997434771494
0.01300415143087
0.0742987159311506
0.0387506626515681
0.0352592720899408
0.0289749465481714
0.0268872329940055
0.0255861462527385
0.0254247939979827
0.0258116779840259
0.031950793027043
0.0243938551336375
0.0255571529265968
0.0228828887409208
0.030127746441244
0.0277934206061865
0.0215942230886431
0.0346999137479533
0.0591452294584892
0.0298216037379697
0.0373483705425715
0.0167165079724744
0.0407501989581404
0.0527147210316924
0.0278846309072913
0.0347502155356645
0.0269347316264469
0.0288654268487393
0.0244240674080407
0.0286319841326809
0.0251217623282435
0.0321988871378194
0.029059697977893
0.0267072066839934
0.0272251171381962
0.0242850101246869
0.0336739479833278
0.0260163968602925
0.0399975474779619
0.0362625085422791
0.0257384110904824
0.033843560261098
0.0305095739721297
0.026417434202065
0.0292581589223421
0.0275020455628444
0.0241285708956946
0.0380761656667732
0.042348546796666
0.0308242631760502
0.0445618795152845
0.0367583309602053
0.0278940138077924
0.0340286207182346
0.0332163935422783
0.0445854956077693
0.0161680952231522
0.0487532849150807
0.0547020951607223
0.0411489171136818
0.053307412491783
0.0267709008701306
0.0388754195041224
0.0227315125884163
0.0318521475776014
0.0182268934581911
0.0548997077964358
0.0199326373901599
0.0413521168688641
0.0160753188855291
0.0518017410979611
0.03307656469214
0.038603999498395
0.0287898683470501
0.0312974039158844
0.0218499608174061
0.0494943808166644
0.0258832143084056
0.0277874875339761
0.0639614073013039
0.0569198027274279
0.0598410852024097
0.0327958373123968
0.0276631197622531
0.0771990931313306
0.0310127018652928
0.0423793521750995
0.0237639351280953
0.0406273035222076
0.0204613252528581
0.0398992380869163
0.0646386758508232
0.0365154536742795
0.0321952864612877
0.0375495528870616
0.0255451908425791
0.0659712584827035
0.0383032901761503
0.0394748529728378
0.0290485551752041
0.0431896734798962
0.018755860513124
0.101378328913476
0.0377771030428972
0.0652825258232819
0.0562308290495999
0.0567552042083067
0.0478107382229588
0.0485040900284898
0.0358540917014384
0.0555200769572999
0.0581488464086559
0.0456328788481138
0.0270957322996807
0.0663308868375214
0.0660210614957945
0.0384667252111296
0.0513900379513908
0.0371477777841128
0.0377801365013618
0.0820145873877939
0.09843776271673
0.0757720001665448
0.0476642099533661
0.0517966121752409
0.0721974735826375
0.0472949516445163
0.0467112423509403
0.0412033111781171
0.0402907721759156
0.0418653816527078
0.0411629615036798
0.0610573919713978
0.0417702919124649
0.0532870864213225
0.0420583135716163
0.0516629728159485
0.0636145386397437
0.105165374640786
0.08964400330563
0.0601657755518142
0.0990808586805804
0.0670082602325944
0.0638733593637771
0.0529900568171881
0.0527861445113324
0.0619803511741444
0.0535603805392249
0.0572253951838655
0.0475077665808056
0.0914919771129739
0.0673134817399463
0.080096210923278
0.0832474870492505
0.0655474094781754
0.0720151129656813
0.0598757037607406
0.277368574398358
0.0829418244832926
0.106928785076012
0.0689944554733111
0.103428943048991
0.145342120704027
0.0986149034929085
0.0902410527686419
0.0890535613889481
0.0852520332148594
0.100001878534332
0.105000946450017
0.109668924071545
0.1206131201802
0.116958951511954
0.103033052144174
0.14380781943298
0.18962277088886
0.191497174222855
0.150782867792502
0.132164437101533
0.150820261051034
0.157532628745676
0.135170331539727
0.155603886998542
0.137834707738436
0.165895602129189
0.216261204894712
0.168674630043592
0.171160185191689
0.165956894479599
0.215618789055912
0.159255111804525
0.253480592285636
0.205373410385376
0.208932094164046
0.187182423638331
0.204478015446955
0.197635349434874
0.197850615611476
0.243568651111587
0.222508448033134
0.217617457362082
0.218318494596588
0.216080073106309
0.222842882763076
0.229456696544602
0.232160216345409
0.223391207308653
0.280686037591841
0.242279141645695
0.419649043948601
0.260643385961469
0.246240104845549
0.233132224947993
0.23570642530496
0.27092063258478
0.250647668733428
0.283004590126158
0.258038018356479
0.228693829844883
0.236929231841928
0.23100664187003
0.236544505660485
0.223476463277129
0.240141810024417
0.209929819107697
0.266976950833496
0.215624842148307
0.276829412652683
0.291161861124684
0.243945044785321
0.227475643281406
0.227910365529541
0.214285936091442
0.225732881128032
0.211397618907307
0.228860374667787
0.238774439534148
0.213793826679614
0.215308437645353
0.19591403438051
0.242568939887656
0.230829024367137
0.197994244432205
0.203522100871081
0.186597704228692
0.20108576882551
0.171858392662255
0.207309125200838
0.240089338145669
0.190175240163826
0.181671342366829
0.179225785446075
0.176883472579989
0.172400990158674
0.169646974759541
0.175411865913496
0.175235412037179
0.169711048105368
0.17619299813807
0.167324282677743
0.169365472127655
0.161517347998531
0.17224931524067
0.165381238578276
0.16414749844975
0.164228108627853
0.160310206829897
0.160830568710397
0.160039421803204
0.164174776662727
0.162992435847783
0.171362788684812
0.167475623441965
0.161184407450505
0.162630129751141
0.161239782783264
0.16116261685179
0.162188941112476
0.158498089308915
0.157210615013536
0.158185408196597
0.159604855592511
0.156534713263988
0.1590398784319
0.159866951475777
0.157059508085282
0.157787639613772
0.156718030424729
0.153558477596939
0.166130335236861
0.143505992414659
0.222764312276308
0.180835687149861
0.166350051797901
0.158628890430853
0.162753247244153
0.156192490904996
0.147530780477588
0.204435331290758
0.177977500130142
0.158634763344121
0.157230962518369
0.147757466031613
0.16877632746821
0.16480870425792
0.14802257172523
0.161918362863717
0.138744538176892
0.210100157776846
0.208248235475439
0.237580832626706
0.247779101267804
0.178621103940256
0.150641634721506
0.16916122624092
0.197567218666256
0.155337461089805
0.160299718973822
0.145962721635367
0.204303840959469
0.163882166736639
0.156701535084304
0.153519449125718
0.150421061071949
0.175994215150434
0.192993289499837
0.165275675455203
0.185200992500397
0.191550826120441
0.173734961488796
0.19855684915325
0.230280542823806
0.194160407815537
0.147860588277058
0.152734009555661
0.145322581158158
0.153818250061448
0.206015258380706
0.15319296773609
0.164126160817593
0.136770363963083
0.136916950798271
0.141768819441807
0.157707897316979
0.145253671055886
0.146485561278389
0.181359699226679
0.127552489467079
0.153890602357439
0.146329521035511
0.18592269798795
0.187019261636269
0.14769490563949
0.117961741555799
0.164005317278626
0.172009656797764
0.137187859313169
0.14517014167138
0.116271926577207
0.12666257778344
0.143302381443478
0.115065401748504
0.134907527770706
0.13664411728749
0.140142738560583
0.175440635293744
0.183779755919806
0.171342002500758
0.123422243251734
0.100424083634454
0.106373748307491
0.106964314210277
0.107866398287285
0.0935031260525988
0.140353536509819
0.1083507427851
0.103595979553346
0.154467504008228
0.109672699642624
0.105728276513898
0.106797491124623
0.098326916783728
0.113478544439024
0.137476729695984
0.151209930122376
0.12483864643637
0.117087507650761
0.132359447074176
0.111536620781812
0.112737227093924
0.105808678360877
0.113197264487558
0.112810872947989
0.126459219380012
0.120462847731612
0.121043014360847
0.12776434576255
0.123198602422579
0.152371483763032
0.163720176408684
0.125405431167118
0.172905684862596
0.16131479938047
0.203822247827585
0.162118195117402
0.150887149542432
0.148847008206167
0.150231986911405
0.158265310303165
0.154321804217303
0.167470268530388
0.199570558738874
0.161623171988974
0.170738563676284
0.161289653337206
0.17292071418812
0.168153782455726
0.215892001160314
0.188512326256906
0.253571230182699
0.237189691415502
0.207370872231862
0.191648118468911
0.179094509127349
0.197668685367756
0.190608639259608
0.185411468818037
0.182281589671477
0.185690011306007
0.214920715448597
0.191153394055764
0.192438417202443
0.191492774256748
0.191921933551261
0.18919685987018
0.192468307099934
0.195796741822581
0.196590286864634
0.197084141173769
0.197177388196671
0.195703747447912
0.277794798564494
0.215645306933679
0.210045097302557
0.207349428425549
0.213196444424819
0.208715253427414
0.20865616966132
0.221707135233749
0.223144646115041
0.21237186082776
0.217080692272004
0.215422834507324
0.218090277979147
0.228241055053044
0.2478913433535
0.216342650742907
0.233288210882904
0.21357159149296
0.253776970046753
0.276091082341736
0.244201302684731
0.246010240098323
0.235850746174237
0.23339225702254
0.23013080576149
0.22751690938593
0.237154604961802
0.238627389640843
0.231377608922081
0.23346579641782
0.228393115207541
0.231657809040358
0.227708448380188
0.233880923179961
0.251579783844658
0.23771458819337
0.228990101926116
0.230794651753947
0.231811599970722
0.229037457188721
0.255892063137774
0.2459837436397
0.239970843057532
0.237470701837295
0.235962501543511
0.251196050106754
0.251383263818702
0.224307322289271
0.230698084056228
0.226143898445905
0.229974317871951
0.224439558329864
0.233549449472035
0.25160295474634
0.236616163448274
0.22852450096899
0.230388880382551
0.230002218602714
0.229972050143503
0.228621858140157
0.234651299876085
0.234137631164485
0.234421170053451
0.239722445152713
0.235271383677142
0.234864266294167
0.247383337526779
0.247212657119227
0.245422388125992
0.231980107181975
0.230856943350353
0.227714266975786
0.229383167880024
0.234553792192002
0.227181198955436
0.219284828293694
0.220799081726763
0.215353407240458
0.219817699789169
0.246131636093904
0.222254174183635
0.223260447030164
0.21501942871975
0.203768654172241
0.206930167573338
0.200653864735578
0.202757114987431
0.200246226000212
0.204770683017334
0.198508254179136
0.197598075370917
0.195338507045932
0.193995122115067
0.194166751387034
0.198790235375192
0.192963754820079
0.194316731204007
0.190804271766154
0.193092079969071
0.191532591437217
0.192612458158655
0.190646151486966
0.192629906457547
0.203600187945394
0.208887382635828
0.207199716419386
0.19811119368135
0.193799384548477
0.197696932069485
0.187999936398153
0.19129790745498
0.187351701165482
0.190004471154626
0.189243325968418
0.190504834368996
0.188634357909096
0.188030897214828
0.188094967363276
0.192320500132293
0.187466815263755
0.18956979481855
0.183868352442033
0.189721230893675
0.189628439674382
0.190507844474883
0.190932928921358
0.196152041589766
0.188648834504929
0.191297918532905
0.192654314916323
0.18851582354329
0.190341185753686
0.19120063695314
0.192443743686879
0.18898316456569
0.187743362173605
0.191399885198971
0.189554004367734
0.191105614112921
0.185494837979125
0.185209783379585
0.183929378765459
0.184562872219729
0.18370986402742
0.183928950173269
0.181226236351291
0.181619547473251
0.177896513611602
0.176651675367191
0.174297859835494
0.176301587030126
0.172514112544689
0.170881028967166
0.17059240653113
0.168817224406849
0.166554479997453
0.165894514880009
0.164558091292041
0.162433489055344
0.163071122421603
0.163352602098814
0.159227630460046
0.160848760731852
0.160008751448416
0.162745315111446
0.161920869273805
0.160543475023848
0.160287067508456
0.163245063457726
0.159286934507533
0.162139182797759
0.159372942089894
0.158585015919797
0.159350823780133
0.163031128298569
0.160934836407694
0.16261942505845
0.167162863257759
0.1657142503345
0.166327815229859
0.167918089103955
0.165020142219337
0.170838592424492
0.170323879246283
0.170273554579411
0.169853223723374
0.170734563909101
0.169530804023119
0.173478155124422
0.170637392793495
0.170173749173313
0.174339648390422
0.174971263010123
0.172151334776748
0.173387309866926
0.172657180924869
0.172522336035272
0.171684414464441
0.17173855613095
0.16993200311005
0.169853339820497
0.170135491293979
0.170085237075745
0.168146052775705
0.170277209521073
0.170063953649062
0.169956074251138
0.170506301817673
0.167398829702282
0.165901730518815
0.167818640879965
0.165683114660894
0.165270727793186
0.166262286458003
0.166156446033354
0.164279470533061
0.16135480199076
0.161696391430111
0.163286489804201
0.163367010063739
0.161359073340101
0.15978780096091
0.159606056431674
0.156756507867803
0.159042264534386
0.158166134048346
0.156963244975559
0.156612606435476
0.158020439353549
0.155063847660855
0.155302792178338
0.15379160498178
0.156002100957002
0.155103700489356
0.152573641528596
0.151910333968069
0.150748479559803
0.147491749990137
0.148298614469611
0.146650119627038
0.1446940240479
0.146014288721349
0.145195904558021
0.142004979830442
0.142432667930651
0.140853036774803
0.139329070756871
0.139751920359814
0.140714868701466
0.140182957588059
0.139563764476864
0.138033983248133
0.139564328613489
0.137956317828736
0.137439338957961
0.136393671368033
0.138162155017145
0.135708088849497
0.135200723070694
0.132544450981414
0.132511048454525
0.131375190859976
0.130632543690879
0.130872989753821
0.127306672684569
0.124998942761107
0.12749853441972
0.124312137519927
0.124525112154583
0.126020431470752
0.125674327740107
0.128650703761343
0.130888517190249
0.130354142966354
0.136260773485879
0.139452465907733
0.145058894886257
0.150061652366075
0.155801139516056
0.160498633904871
0.167590502633715
0.174593311404706
0.183300830450815
0.191820725772718
0.198233328149334
0.205720381452826
0.212741208063425
0.218654928045714
0.227773483313196
0.234396368041995
0.242230370081466
0.246857189470686
0.253661488037203
0.259698309268929
0.265918672859109
0.26927088318065
0.273708445983858
0.28045892226837
0.284731428445748
0.289024868295827
0.294860978866816
0.297140254493287
0.300550122885546
0.304739838375443
0.306484807106781
0.307019451291821
0.30911520788112
0.311326427076189
0.311571906105611
0.312389437217143
0.31254572636783
0.312457459966034
0.311965342374484
0.312761474556637
0.314635208218067
0.31600595736941
0.317400445708085
0.3162362549109
0.317384763730121
0.318770705531317
0.320876890198456
0.324104413169314
0.327115375505382
0.329469898119286
0.329784675539443
0.333765734800408
0.334954900489873
0.338391914843545
0.341878376488526
0.345871038236123
0.351200650236411
0.353443597253803
0.361848946453607
0.366278877785293
0.3685144656692
0.373626159314594
0.384460296861122
0.38476538268207
0.388241912425362
0.393961166849617
0.399662509840745
0.405132378338869
0.404831228272306
0.408717739372916
0.410319584023914
0.408607314586621
0.410966289755615
0.409416112033387
0.408768711343295
0.408109817029484
0.407628892180255
0.403920992390733
0.403052598530608
0.40367699176332
0.404964764743328
0.406099937755917
0.414367066749232
0.417876666103672
0.421045128868402
0.426542168974401
0.433392037812173
0.439576474344897
0.450043908972757
0.45493980914984
0.463861367781996
0.471568369389906
0.48218706207304
0.488337142796203
0.494278436889024
0.504065146280048
0.5141331015205
0.52216319946719
0.528025139752857
0.53687848732865
0.544578468702944
0.549960774627928
0.562981099436391
0.572244302405442
0.580549481286633
0.594801012964629
0.602008663000407
0.610737602314976
0.622589895697435
0.633019207586869
0.636119723513581
0.641106115920153
0.651984894484215
0.658502190736189
0.664154387613178
0.668658518764477
0.673799039166244
0.677244944728246
0.680214989071015
0.6854614802597
0.686121700367753
0.686131652886501
0.684404212043075
0.678352338850132
0.677475673511278
0.668131991004057
0.664309428963216
0.661647506249983
0.661029907395077
0.652705311764891
0.645491866083044
0.650569347470326
0.649194717227346
0.642027793263854
0.653195756191732
0.649831017218117
0.647172549070312
0.663833759561211
0.661978091103069
0.663998618587741
0.667777056035158
0.666086869477627
0.679735482046825
0.68601281710951
0.683355415926189
0.691999911346777
0.692248818818623
0.693209984980086
0.696723517708077
0.699333041927502
0.701302629266808
0.706035196967745
0.702631612472399
0.704517150727885
0.703217996879368
0.69902160543498
0.696798099023465
0.697272813450134
0.696274745008301
0.684326535590434
0.679808136674477
0.681615761064966
0.6753041763451
0.671251671014405
0.672078708868446
0.660469465612958
0.656696494377786
0.660149044706439
0.65177448852773
0.644029955366654
0.635973862604341
0.63145730917641
0.623092120514288
0.61328859952423
0.602898236314725
0.588761558862643
0.582801031947695
0.569756871782021
0.548261409920478
0.534913153567219
0.519188737376581
0.500190368294945
0.481169234633159
0.460808234063723
0.443802480253572
0.424481941235654
0.405740016308298
0.394575224999796
0.372829666482401
0.359761208077678
0.350846832349008
0.342218955351992
0.334692448213562
0.328829258006983
0.323204514119446
0.321915450661542
0.318814800383164
0.314599375916973
0.310547280677571
0.308802533339246
0.303643407398632
0.304297967562431
0.300871154711539
0.295453851509323
0.290031454497378
0.286490163750678
0.28152341015922
0.273998230599312
0.27137862365171
0.262652124355262
0.252496624828342
0.249055822632666
0.24058158119104
0.231537467309228
0.224074157072578
0.216442756155874
0.205848239747071
0.197091518655296
0.193494036006919
0.183911461655739
0.172246475752962
0.166341724728347
0.154873249458358
0.150089428228783
0.141217714797498
0.134693959983189
0.128554808610355
0.126009135824026
0.121554684241563
0.11705718979727
0.110267516092872
0.107168873043151
0.103792826847622
0.101499544864347
0.0988614618963875
0.0967558434499318
0.0956608595579793
0.0927851862508778
0.0902128248700758
0.0911449384271272
0.093496736948155
0.0934634022408387
0.094606352340008
0.0912174490556121
0.0907181120446847
0.0919059481033006
0.0938636523286784
0.0905519326161081
0.0916265295078847
0.0939022193586832
0.093191738343277
0.0936779944122046
0.094878455171977
0.0948318195487663
0.0959040626625818
0.0953388892110059
0.0917315992364062
0.0941307497200709
0.0937397928634051
0.0913989926182599
0.0908968366645435
0.0901594607408581
0.0914218265750358
0.0893587854580169
0.0865390742687728
0.0876346532813305
0.0890397958460615
0.0920840324770109
0.0891560164269545
0.0944857207139451
0.0928736056871409
0.0930340841750612
0.0888000790202941
0.0934172313855127
0.0941953846420671
0.0994046537297706
0.0992059288856676
0.0985854496211751
0.0999685575074857
0.105446380599012
0.100623848320641
0.102889540361768
0.103464796659984
0.103764970481974
0.102657667794853
0.104429294935532
0.104916145551674
0.10359422089594
0.103295718325784
0.104320635312703
0.104581443496577
0.107014792615814
0.10769544600823
0.108493233247937
0.11011730750831
0.115298357177803
0.112998284157792
0.111154790364671
0.117242030200888
0.117289659421454
0.117792606631239
0.124879910386526
0.126733481733477
0.132502619964327
0.141546872943771
0.145820391613148
0.147495879362408
0.147045447461735
0.148891058338089
0.150702393209341
0.147273974701988
0.144974557745838
0.146485749563079
0.147667835743153
0.136400155845476
0.13360335134329
0.133545542144619
0.131018093458709
0.129761739472421
0.131298734027206
0.13061663828508
0.125955984445872
0.1284660786389
0.130308666446253
0.1251339320084
0.124352649872079
0.128931866617411
0.127790064281505
0.125442104102957
0.127894821765237
0.126637606497895
0.120427254024857
0.12740225188031
0.125638306208152
0.121967208547411
0.121546639604915
0.112908938291884
0.113343906245883
0.117034082688429
0.111831972444256
0.107706787094897
0.11029866400073
0.111408488167794
0.11294557548771
0.107669279681398
0.112336931090345
0.109650685762759
0.10792765526457
0.107819757640536
0.109394459363525
0.10341252296895
0.104114156797842
0.101876398822144
0.111914175590465
0.10648386026729
0.10321933186555
0.102843929382793
0.101667967545705
0.10106678419232
0.098843805166046
0.103245970944929
0.0949842871000651
0.0937491808172991
0.094512813571159
0.0928151356860619
0.099307268349059
0.0917353395795961
0.0936463337801799
0.100544215437553
0.0933330401255722
0.0916994715868674
0.093103618588487
0.0911815998981599
0.0954436684314983
0.0903232323630363
0.0868182730245474
0.0877438716393796
0.0868816353536473
0.0940173213538429
0.0899230762333484
0.0864485127630676
0.0932741017259504
0.0947501940212405
0.0885709493493236
0.0906566221796835
0.0905474549047002
0.0938372411749952
0.0937647830713131
0.0975371171042603
0.0942276040608091
0.0884389203511214
0.0945775471672118
0.0958199211349085
0.0997632196871446
0.103444901483795
0.100329429996694
0.0985960839548555
0.105610255336731
0.0999359605300122
0.105791788940489
0.104339276482434
0.108213608031029
0.107464597712806
0.108028678737694
0.107928096300224
0.113761645291376
0.102128032159077
0.111165187970989
0.110843949642597
0.118769143500869
0.129278982444518
0.130480852190404
0.131881528456858
0.134072338618669
0.140709525903338
0.147216991002804
0.14367489051754
0.157672024898615
0.156713531044928
0.163910763528338
0.168026701901283
0.177336100658101
0.174493671836223
0.179634809120107
0.17816317171494
0.172676985695
0.184512372723884
0.188114607815313
0.180959761315449
0.17787885734294
0.176442558516067
0.175744754574586
0.17432342887253
0.185730310387457
0.171062646268451
0.173554657579798
0.186338705324407
0.173348883730364
0.167868007790641
0.163519931538876
0.170072758010312
0.169761214165545
0.170499753702869
0.166706101430249
0.154234342545735
0.161658962800758
0.167657527367119
0.164391488375719
0.157627891890566
0.152432140640828
0.165113901828638
0.162759979754279
0.151320149051716
0.134965366862766
0.138326907020151
0.148797687201434
0.147969757281654
0.142137448839259
0.157510867953363
0.149055734065591
0.151270668801195
0.143700596750905
0.139714005700136
0.156852694424275
0.130588268925061
0.140201962948561
0.142883778435623
0.169961866506418
0.145948543556347
0.146778898981107
0.156883457916278
0.170616651918112
0.148440009402315
0.166883333828182
0.169187194268411
0.163451246585572
0.168249443651412
0.148087146287531
0.157203404023601
0.158608278018735
0.154204966769544
0.151702258841465
0.164006523840458
0.163568901780162
0.17422958283436
0.144818144428338
0.135327507704365
0.148924889826193
0.166175387226218
0.160511009198543
0.156842416376782
0.16018006220665
0.171131231768963
0.164998135327326
0.169632107376497
0.175049867468514
0.179201993377682
0.159796254414755
0.178162349494735
0.194558820780251
0.198694685992458
0.198933882358112
0.174697504173821
0.22582755516359
0.220166237061095
0.200405744844132
0.220763677709907
0.190130532395453
0.219978055157
0.229509776688477
0.214744403345904
0.249743017918534
0.218597760815135
0.210311585319987
0.253966288654257
0.221689165928029
0.229864213648742
0.257967150171404
0.207042089431503
0.193913566738441
0.210837797048034
0.229079321785657
0.233179574956114
0.215357734348584
0.205522395078479
0.189628902093573
0.212095554733488
0.205356572317059
0.240900162180328
0.213667466502443
0.185572698871122
0.211719186264669
0.173943925146312
0.190735701219698
0.178877663893556
0.237695790578762
0.222682599832522
0.204675590251147
0.21471799922091
0.237077675612136
0.250842950154626
0.195421203971511
0.197600438198663
0.213914445862082
0.208565585942783
0.260390807333561
0.210473104448593
0.267856690384634
0.221071926312347
0.17564183184479
0.20280893553819
0.1176858212379
0.193511470264272
0.315063539155858
0.271513104117767
0.127341516115955
0.105113612017087
0.217836649746258
0.261563948123021
0.180444246556437
0.1986968931306
0.194701693144971
0.104572325908268
0.193333573683692
0.186636877572618
0.175992927208167
0.188846300678918
0.172402724736393
0.2627027242329
0.276864241391228
0.134933578787002
