3596
4000.36533379555
650.420452594757
1
2
2
0.0824077535047248
0.0813506781125511
0.0873404535114806
0.0938894151989069
0.0869938308790209
0.0841260695653888
0.0759649619470111
0.0877453278600979
0.0889542868781247
0.0892826548269327
0.0936166156329328
0.0791392727317428
0.0886918150886412
0.086319614258084
0.084191288417735
0.0830377893533891
0.0887670214529163
0.0852341064471703
0.089600298197876
0.0836286797514796
0.0787027997073151
0.0828487906877313
0.0852432065364384
0.0794430234494526
0.0805641053293
0.0871979811164584
0.0909580022380036
0.0830670918261587
0.0877446149405162
0.0888552971686728
0.0883334772872021
0.0830945353677092
0.0832753318941913
0.0901749725878268
0.0890606709901174
0.0822143050585087
0.0903541855378064
0.0816881875183356
0.0827726514200542
0.0894290130809127
0.0959248198498285
0.0836179120107408
0.0867162825301607
0.0837337752787587
0.0851503267355735
0.0834982006379318
0.0837492226230885
0.0801520265950549
0.0784789496219427
0.0866906016279048
0.0940458149079602
0.083172920908439
0.0939721433111561
0.0921405613869327
0.0950280058802907
0.103603431785129
0.0942250316256101
0.0793490861538873
0.0834431722923052
0.0821528067639195
0.104677340724939
0.104512294314569
0.0805824319731113
0.090870842249242
0.0789352544934549
0.0844847994542133
0.0827072311782492
0.08179883995446
0.0857892601929086
0.0832059099579682
0.0816363774964673
0.102952049076612
0.1091899176181
0.0889626977774512
0.0949346935235254
0.0837855812198872
0.0860181777657844
0.0780005757534042
0.0845448529970134
0.0882016884853616
0.0988557394334091
0.0869458503957202
0.0883111011443513
0.0729716417899125
0.0902267599640208
0.0971933360088954
0.0776416759448621
0.0825954928415393
0.110267266088822
0.0909713212998252
0.0844909926216743
0.0814821210746437
0.0861779489735036
0.073666701500337
0.085841894526715
0.0745654079810363
0.0807751187520925
0.0754175222522677
0.0818929314698902
0.0809362973266909
0.104440810069403
0.0822906395638737
0.131539487662009
0.0931986666112064
0.127860416103573
0.104403728618163
0.0738553171068762
0.137575725920187
0.09596795475206
0.0848874884045519
0.0706947031656985
0.0789662862349363
0.0892853339227023
0.0832669297910545
0.0751284375419268
0.0956021632936931
0.123129877965418
0.0793083099909731
0.0822254412587107
0.0767257149590641
0.0769299498648644
0.100680193816144
0.134662032680732
0.0815365269065467
0.105873560014216
0.0839644206765348
0.0841143405079614
0.112447682324993
0.12548684487403
0.0782513667735078
0.0880365414304563
0.0625508466444737
0.0840808602605321
0.0738234764111626
0.129934528382515
0.0901672244686105
0.0830342030767329
0.0669942884167471
0.111321180515814
0.134282145098396
0.0912715817937172
0.0774056359352213
0.077752077847689
0.0870036363652069
0.137747859070892
0.088077790144078
0.0800162224011585
0.100359080920802
0.097999420548366
0.0692946248763934
0.0798080928521521
0.0738043790184008
0.103178638579926
0.0884528381324645
0.069856687197365
0.109964875536347
0.183094310586139
0.0759958886159175
0.162417519169267
0.0805133121359744
0.0902736990910222
0.0843022654248328
0.0767078580557278
0.0670460952251278
0.0797027239850125
0.0678192228830448
0.089275369206319
0.118719355585416
0.0823154763006585
0.0926369419310444
0.129412676962439
0.099595991501427
0.0800549389319743
0.129947282163234
0.105531339462571
0.0648449364845796
0.129017237850529
0.0874947309356574
0.0694188158246696
0.0763250309591726
0.125732115186013
0.0711976298173126
0.085147159910657
0.0727075352184646
0.0901690629192288
0.095658848902929
0.0913618279108028
0.069307354046176
0.0861764646788266
0.0650535689468684
0.109042968331559
0.12690830389532
0.129638619785631
0.0812241343925254
0.0901947011002542
0.0472501972860718
0.118561564912727
0.121785695852028
0.0814746615855767
0.0743214697918228
0.0760638672268629
0.0659175987572808
0.0777630002435473
0.0727404989313581
0.0796838256921581
0.0555323070646902
0.13100995659088
0.097136267705685
0.0753032804429847
0.0750264541571675
0.0857514571701094
0.0768150577179149
0.128612601025772
0.115351452932787
0.0773831385635941
0.085604912463489
0.0696559272904336
0.0968903644600827
0.1046931771554
0.0788998985726547
0.0754720404125767
0.0771255238031926
0.0759959920601973
0.0724322346920241
0.0777077524484149
0.0781065887830491
0.0761553185117746
0.0750152857075487
0.0854076775316614
0.0764374266606634
0.0860440577266196
0.0843769540222907
0.0808953291998977
0.0737132155988413
0.074465303339134
0.0868087459136035
0.106120943815222
0.0731905524657561
0.0874657884175403
0.0748142945101737
0.0786955094608826
0.0752548222605735
0.0820949414336551
0.0730076183811437
0.0797238230045243
0.0713766603726212
0.120179054476094
0.0822716032481814
0.0789072638346073
0.076978721004364
0.0973548759307115
0.0979333622928006
0.076996499872288
0.0781643811961642
0.0724287059611656
0.0748742476998629
0.078910334705882
0.112757846607617
0.0959777974690559
0.0774446429955314
0.0948466639412502
0.0938549148425731
0.0773447060002884
0.0755508406377927
0.0737390774185832
0.155635296082365
0.113500523130842
0.0713127753513095
0.151049921025484
0.106547450743999
0.0890773610766128
0.0866256681446377
0.0574465199348396
0.188295493550252
0.14016387028648
0.0799249819336484
0.0987809152519243
0.0947168946198581
0.0854140588784404
0.0792706481717754
0.0983326541343005
0.0860147996594352
0.142345203076626
0.156683341410847
0.147151696825991
0.0782327403766404
0.12976271635444
0.123883927280751
0.083773505797188
0.0829016004140894
0.0818660943859183
0.086259252677277
0.0992922736615837
0.100996185421154
0.102351674491308
0.0976663988632276
0.0881728508005904
0.121086060425248
0.0963842574294753
0.0773363001704847
0.0943713451554172
0.0974381575918349
0.0827949858492531
0.0813320595178672
0.0873186087051651
0.0907207619130497
0.0914405796425314
0.0821493902193014
0.145117838826293
0.109414529208267
0.0885834942364097
0.11719467421828
0.100160625606232
0.0820880653520792
0.0817244346966794
0.0837130871732279
0.0829775941297369
0.0726060409809105
0.0880970002956716
0.111689285073259
0.099312776745599
0.0789506926900572
0.0827661075807597
0.0741343974416607
0.0884088880181543
0.0837801937592129
0.0837126723902142
0.0793760758458454
0.0883983860680108
0.0811791027414712
0.116715862713804
0.116028665626035
0.0801859136101373
0.12315610711989
0.141696665417935
0.0853856351984218
0.0982251107138884
0.0885374451268027
0.100264885433639
0.0834520754294603
0.0929180608318561
0.0851258210547859
0.0979142288631266
0.112166403487499
0.111937971886542
0.0898817897827023
0.118833496972921
0.160830678335158
0.178217169764405
0.123195693715734
0.104758225885385
0.085004580589342
0.132373002175742
0.141207148830737
0.126800177753218
0.135198961048641
0.108752869093559
0.105029936799832
0.109163285010777
0.10876362330147
0.104961412970042
0.102843193194143
0.108296095242282
0.110193610792919
0.118615883167127
0.109457772371999
0.119238038160701
0.121614633198124
0.167351300605891
0.132461077644664
0.12171205474234
0.117953880082514
0.124066833422241
0.151703998064519
0.182208361949939
0.170104020054291
0.169778722639251
0.154168802786338
0.200647358264362
0.139623539901237
0.135370117327563
0.130687839156435
0.141650247540128
0.140303817130791
0.147036133132891
0.136648083353781
0.144441921977726
0.144119502917104
0.154124086619952
0.143953189182475
0.152854078815008
0.149917190126168
0.18200563808229
0.154542711141287
0.155397028346427
0.157139085440281
0.188569078504261
0.235587767879499
0.229384638469121
0.180263397588786
0.17905875638722
0.178821074265118
0.169764428686842
0.179429933269403
0.175828345035565
0.18303020476648
0.19727023206349
0.20916455796876
0.233914033509146
0.204982970585228
0.211319304395754
0.194231506403195
0.223419505035141
0.214249643848173
0.228827201305174
0.229946248481642
0.21420512961565
0.189896912149239
0.247591669795061
0.233995413464255
0.225983270480767
0.230425581658022
0.220650884280536
0.214298101766869
0.222760037935214
0.224271513240175
0.233161517297525
0.237146231934605
0.252371141197104
0.235219296385515
0.254369531138233
0.240424652516717
0.245998769395462
0.260518982406768
0.269549596994232
0.263073325830421
0.27231608934001
0.241659993638102
0.256790987970765
0.243277582567024
0.297523936367705
0.296009179134257
0.301698313226793
0.300626339217951
0.284888206735028
0.282940735691914
0.29095575906726
0.287627382285349
0.293088278661894
0.29097184080739
0.310057986836198
0.290207030354189
0.301602291986612
0.296713824271588
0.301199649545613
0.300107882950297
0.321632379172021
0.311839728526179
0.325165456424374
0.312155491963273
0.334347721319611
0.326156174802465
0.369115741655297
0.38227256814848
0.399846272765658
0.36495965158601
0.356082203885874
0.3562463108321
0.370864441801375
0.363537419194109
0.377649853393031
0.38090506938186
0.37575599395714
0.364239751122054
0.382843911862112
0.374254726463972
0.396482592000383
0.379733668460236
0.397039169156417
0.375329691796945
0.406709858694086
0.403459000768432
0.419609304907094
0.40209410003769
0.414289342506335
0.420036207336106
0.441009766390713
0.440858941130002
0.450187027165708
0.419475872449605
0.446594615240682
0.432590266312828
0.454749757501026
0.45081588559864
0.4557805445088
0.448666216990577
0.463295022998259
0.465072031414749
0.485954435572704
0.476847562543573
0.488441106303289
0.481466477236336
0.501614768488339
0.478774205495166
0.499633521527002
0.489869214406334
0.521356756561497
0.523130361762255
0.527435290049484
0.513390416863643
0.536610432183545
0.526127150305518
0.537327292661821
0.512396904818183
0.544833672170077
0.528912050814737
0.556346691461689
0.537496729875657
0.56497709434687
0.54780309124665
0.574106467575451
0.568875909109851
0.585453190540134
0.588677746294365
0.595970801329098
0.614738106635542
0.640929031460238
0.587383580051031
0.605119917224875
0.577381003195554
0.591610011788286
0.589338680760981
0.648191763899763
0.607562979401125
0.620766655409105
0.587314412466856
0.631353801617869
0.631394940855513
0.642151429250588
0.67119543430077
0.695943514370436
0.660320548060404
0.678207756199538
0.661483744610485
0.698009954138658
0.667081127761696
0.694887174022095
0.68397869143161
0.74524425221404
0.69875795470959
0.713606990213997
0.683173876455646
0.736313356656892
0.71285991805536
0.740519956005184
0.716485650999013
0.729101074784326
0.710040890583979
0.745403128289152
0.738334553211092
0.781914271205882
0.743243462553518
0.794757376357575
0.764443054524647
0.762429776396585
0.76363447482344
0.763532397867646
0.735759314561291
0.777627691205725
0.7582500733954
0.805226315274971
0.766427033037445
0.817889423554887
0.794534135825738
0.834863270417922
0.804026548497172
0.853478202263784
0.77997205724418
0.814980958451688
0.835444583674347
0.841470010238072
0.829111079143446
0.8514143896491
0.835967848444123
0.85293480036772
0.839534257043153
0.88403261095987
0.858646543955083
0.925209983644661
0.847849415351468
0.861826690618695
0.877752551759148
0.929806438920749
0.883377300132933
0.91357867003048
0.898044323642727
0.911142633262697
0.905972919385094
0.935720797224948
0.892901932825601
0.939990501521564
0.897796047484048
0.945366476113219
0.909078213298202
0.93145794451658
0.906766624638437
0.921243089434194
0.975001778131629
0.962244966756329
0.910963087867151
1.04784149285087
0.978817266990548
0.93537690771231
0.940126371751299
1.01314483075133
0.94420385373576
0.996075964551001
1.00371856203149
1.0429081704448
1.00657686337843
1.06364562826034
1.02388653549689
1.02894830721368
1.03133356701102
1.06366615552154
1.05121892970148
1.04242859075136
0.977756601808028
1.04808513911997
0.989466005509351
1.01684002345893
1.03277397434177
1.12533137800504
0.988673319367244
1.06918266810395
1.00491745502827
1.03649156612499
1.00837082659831
1.06485187752968
1.00946534735213
1.04427800659188
1.04100480412506
1.0977515208638
1.16772792682061
1.16875845736378
1.02708690520883
1.08628903713004
1.09999448166113
1.11682820014813
1.09135090721345
1.14922977687058
1.08369973315193
1.12738142199103
1.13639489306331
1.2025699442429
1.11612842159255
1.14270019568414
1.10042464893132
1.21125631894741
1.06624789804407
1.17860115930492
1.10095853136809
1.20976920153915
1.13937269636731
1.18391204557953
1.13847978771662
1.21806432463886
1.10893296387752
1.19449616022932
1.13756246088706
1.24600369740731
1.18708844654008
1.19311280497069
1.18177276475206
1.17951255000326
1.06794879402023
1.18793903243978
1.16464279946712
1.16721970118422
1.11775226675274
1.21051258213199
1.16608976599066
1.29150046874068
1.30958710632112
1.27472148628796
1.18397538603546
1.31078241094695
1.17485592469039
1.25445391164438
1.17191088462443
1.20741278347382
1.14163466075431
1.25658852186046
1.15868370746143
1.18610008579569
1.14270803589845
1.18648484350235
1.18762783683194
1.27029681460407
1.18322312672363
1.29880155271004
1.21581991475815
1.20432589975642
1.15765224237302
1.28498825247173
1.17741804658132
1.3320182503655
1.14990910730228
1.26122293491347
1.22680172488266
1.25250530602171
1.22690855594009
1.26803990830081
1.23724425474953
1.29249027381925
1.17977814751981
1.240129979585
1.16329730055037
1.28818287771212
1.22499664101491
1.26390380525159
1.19233796600631
1.32856796426927
1.18868835269512
1.24231262589956
1.25555060443293
1.31509121694052
1.22495724592209
1.27957782205815
1.22977457584178
1.28843401292273
1.28445653697072
1.26637470676344
1.16980151584933
1.23147444074114
1.221043292868
1.27869216085155
1.16345717637641
1.26473129370249
1.20385373464674
1.3103047087214
1.23673332309477
1.32661690218694
1.28530542289099
1.25470723404429
1.23850378806415
1.23835133417421
1.16933289025227
1.30709476928373
1.28145459909165
1.25101476850262
1.2381696321214
1.28262684151743
1.25855921175696
1.21817136982829
1.25491048658704
1.24610760873131
1.23241024724022
1.26804729449526
1.23965922250624
1.26329153425378
1.28561862568957
1.22493160074606
1.21715135195187
1.31849080650354
1.26175319116587
1.25661388130275
1.26140534600755
1.29871940564585
1.20362857934508
1.25283981976587
1.23567665440942
1.34081149502536
1.21738809272466
1.30211168269334
1.17446385011801
1.22667503977104
1.20274207965375
1.34870281776908
1.23573144402966
1.23359134913404
1.20844658499278
1.29788245303815
1.20276945575784
1.21220420247181
1.20305586887788
1.24493461551705
1.17637021603711
1.30945027183874
1.20074484524455
1.22251624000896
1.14367582680213
1.27015812617108
1.18193701571375
1.23879241709357
1.16939923899828
1.24202137270849
1.23270221611613
1.20916028959903
1.1973665198294
1.20580903647745
1.13790662215979
1.20433183758198
1.18839897773606
1.22070894035603
1.1719510879661
1.25942705122384
1.15898382578291
1.24674599440675
1.18276269292278
1.2190521463845
1.19852487299708
1.18922315701578
1.165873004511
1.14894995709336
1.10954228002841
1.18401910557897
1.15643946958199
1.20194286531958
1.14046971692396
1.17223983698431
1.11656586801203
1.15411900949838
1.12880974008567
1.15447322155205
1.08196323698324
1.16316379934994
1.15809062737939
1.17082207499275
1.10726212228348
1.16725120228167
1.12546555355235
1.14432411077634
1.10105250833169
1.17140266380516
1.13020986129016
1.15092135525041
1.07630982026324
1.1215792251325
1.08923339264985
1.16449016834585
1.08930558373828
1.10891016068834
1.0676306073129
1.11825482899159
1.04652764507912
1.11742785890548
1.07211496982789
1.08274499258312
1.03044501715437
1.05228192696124
1.04785649396041
1.07264477531103
1.06356771245922
1.08375140724108
1.04979931765074
1.07143057807944
1.05514769177108
1.06536527603691
1.04137172507387
1.06428455429185
1.00469517808494
1.0306242877426
1.02574102683049
1.02141762232003
1.01929510707366
1.02551077882392
0.987324165805987
1.01553871970146
1.02097372996766
1.01219776977893
0.961073252607559
0.99790233216237
0.988975506005885
1.03436253542421
0.959303277202586
0.985332761108006
0.973459778742474
1.00925606575672
0.964115346402476
0.964421885096769
0.958031468318659
0.997596837624231
0.944234826371766
0.979437812002327
0.941659257480217
0.941910349494177
0.964595747381511
0.933154889220137
0.931750605003613
0.953606442735719
0.897087622205318
0.914280112470206
0.905744412800207
0.914230013036384
0.888017303952723
0.948875271746116
0.889139244611664
0.912630157159379
0.89390078641579
0.895782997361746
0.890742387334211
0.857326202923122
0.868012667142546
0.880180600128021
0.866573131027799
0.911079803603841
0.850720754686072
0.846709398567963
0.819751800330497
0.875782069835554
0.819546922016058
0.848145611347399
0.829357549196009
0.858225334248241
0.811562424794139
0.826458341316358
0.797969022688922
0.814359677698957
0.788180167971371
0.815824033878911
0.790285133444602
0.807536295411391
0.793205820322427
0.809205781789224
0.768504976086341
0.806032725920672
0.785722448025705
0.777444488911341
0.762871693736108
0.78744624777228
0.753730799663682
0.775192339101419
0.747698551177327
0.769587596706433
0.765474096565971
0.756296898631081
0.7425552709903
0.743956371139927
0.743295584129423
0.744354632705798
0.726490880302177
0.735282573219523
0.697834170899494
0.715255655480949
0.705782373986785
0.731174305310927
0.685350280328224
0.732549619512318
0.686737699014814
0.723398052909031
0.690024305955783
0.700621609616125
0.694983249366138
0.69490622884804
0.673601722028856
0.676817018654022
0.684952188818574
0.682369225129336
0.647716106604942
0.673274013819995
0.656532086101025
0.666038020431728
0.656074948115086
0.671264413330535
0.652108052863587
0.66590469977727
0.623193406747352
0.649559278417845
0.639787936575702
0.653015216366899
0.630354925125411
0.631471959761966
0.620794676306472
0.641146362610812
0.628476064254993
0.619144381004741
0.613326304111651
0.622940256802991
0.601690527952078
0.612816487158235
0.593034634074803
0.614571144797951
0.597618508014075
0.603171695321303
0.589260337022083
0.599439692495231
0.575641598629154
0.596455525105969
0.573185487002888
0.589110013321966
0.569767365730461
0.589516012191153
0.572429894275062
0.582377471252655
0.569434525210522
0.568574690771001
0.563409579376635
0.558477521232669
0.552762526286561
0.565995871938784
0.5575752436833
0.554156409193454
0.542460049533231
0.556209059938928
0.547126174537598
0.541879666304596
0.537497977978912
0.53917215192602
0.523504161351509
0.533125282188859
0.520065330516521
0.534326564155638
0.516050169705621
0.525774543769847
0.519169054773016
0.514713247999947
0.512111257074465
0.513269904531578
0.501546795873044
0.508507057052705
0.498209960253222
0.511711131992752
0.503567881049796
0.499823426056414
0.48952184795397
0.490500935288827
0.481683156946298
0.496060098672017
0.470934150695943
0.488815962261281
0.48478823782118
0.489143931460689
0.461101661101178
0.477860873084131
0.470701982154463
0.474281567939835
0.457552473691173
0.473289743528016
0.45652565675772
0.462484213828326
0.449797123363052
0.468321866596651
0.449781978319055
0.451505628318113
0.449655633802426
0.448371063918405
0.444006687120123
0.447724663680031
0.437912463352551
0.445709836613305
0.424151209023971
0.44370127228042
0.421289863132201
0.429638389053962
0.428511168457869
0.430824755056222
0.423656378438131
0.42807587114263
0.419225362454571
0.428836869235538
0.421161318059552
0.416653659449903
0.413924870195133
0.424680662553622
0.407925069796286
0.416407897376407
0.403445110947483
0.413824821472301
0.409412896806744
0.41481872892938
0.403687298062172
0.413993239377213
0.403026469311312
0.411509717920072
0.389924951350352
0.404384977867702
0.401711993836853
0.409077705740073
0.399440046266296
0.409848021654883
0.402428147385508
0.414037081653798
0.397432685979225
0.411782084993555
0.402245453825022
0.402140846564728
0.404563127076172
0.411443583757159
0.402598488944499
0.409418040011805
0.408924944253866
0.414904144587132
0.412448256960831
0.410561777794342
0.410169974899947
0.414855909114647
0.411339809813282
0.426964504531081
0.425842118740351
0.425479448275479
0.419909928723708
0.431124832729425
0.423414111374865
0.435374968370683
0.428312334075065
0.431846275950551
0.427843394913181
0.448922428653167
0.432848848226653
0.442513399218653
0.442132637509215
0.446986159919448
0.450070678707994
0.449428915872287
0.440611717569987
0.460462979845444
0.452792821898086
0.462904120030138
0.449635108385088
0.458901932041594
0.464121607098595
0.47191985740812
0.464863847253242
0.483919728289963
0.46219375186912
0.483604084456146
0.484181053218403
0.485483378164573
0.480280460258142
0.494455544572716
0.484051869734306
0.505673280237475
0.489478166607803
0.501144325473295
0.509785719527998
0.513978049439257
0.508790774289387
0.521315048925862
0.52090156381883
0.522402017889759
0.523767215219906
0.532796774789738
0.516076195904519
0.541723560220345
0.538448240187121
0.5341302765106
0.530183672518035
0.553963403039644
0.537497689724309
0.547176041574653
0.530504342727332
0.541818732931929
0.531627858980718
0.536084974586767
0.538150721415752
0.551396509607153
0.546397020279324
0.544399066973133
0.543839505633594
0.558017068091953
0.525592378399092
0.539884075640588
0.530141450985353
0.542352535990133
0.533292749774691
0.540937941912084
0.53161635014228
0.534323388743657
0.535859417727915
0.547541751676367
0.534329311130131
0.537625479425151
0.534370829743309
0.541047834122006
0.529302191983984
0.53645938053858
0.538756037549098
0.543118827141756
0.531674643332608
0.549005845535683
0.541177209203014
0.546053991102642
0.539862823793495
0.53953117730849
0.531099232538644
0.548320018858735
0.541244580859683
0.546792876669952
0.542977616819271
0.548378965180329
0.540940758344408
0.543490462004713
0.533192486568817
0.546815133931103
0.538764497668529
0.551031921639458
0.523994595034073
0.541724544204229
0.537008532680525
0.547380151699711
0.535016787873419
0.53552749625855
0.533762378620133
0.541820963573789
0.527976591331384
0.533494072843093
0.520518135422505
0.533298997186708
0.523969061637329
0.5288119358688
0.516777099259258
0.520063680362875
0.515982018376753
0.525688422822872
0.501221977305093
0.498329393069653
0.50237651083839
0.506433025413035
0.490399011282242
0.502638764966723
0.493556122097184
0.490529295120301
0.480325163568687
0.491751726607543
0.473638116331208
0.47611516267926
0.46824211669638
0.46527150032317
0.463531133974301
0.459726976064484
0.453401216319758
0.457708659812904
0.447228194330956
0.448846080602193
0.445662492560245
0.436394704918992
0.433521159471046
0.436688834020817
0.43247738158068
0.427842843749055
0.426254112359166
0.422472036942284
0.414558588245918
0.417018669057245
0.417285238476948
0.417279962099855
0.409764976321105
0.408466031308757
0.408628205460876
0.404121678425569
0.403136437214355
0.402935855059175
0.396493500436101
0.395116442088245
0.391139228480864
0.396443299908998
0.386704160093397
0.395683988697412
0.380782391088855
0.386090438755778
0.373078174688921
0.378048572150926
0.376892774131631
0.383144214289454
0.37402389448823
0.371096092690263
0.362876504404853
0.366843997784995
0.374471480339127
0.369719247993811
0.360235404498406
0.362960377211503
0.360124377404082
0.36468693648253
0.355083319183736
0.359912159902801
0.349976103155111
0.356443827287886
0.350110138873636
0.354181633422552
0.350192946799772
0.349511992366677
0.347375331479297
0.347203564240093
0.34403593138522
0.347405251148529
0.339438989614278
0.342789489560899
0.339974988710592
0.338001553280502
0.330129095166793
0.338858113250478
0.33513669318289
0.335461918892033
0.333126765098898
0.336121660202338
0.324153372923448
0.327317372409623
0.321943952951058
0.327173966926886
0.323928745227813
0.326510299321903
0.317639810291288
0.324270576116644
0.317205455042087
0.315490336893714
0.323124974370628
0.319064853286533
0.313338797046064
0.317793407926598
0.310747282643012
0.316474992219068
0.31237928232692
0.314992043440986
0.314456720084861
0.313518525525373
0.307528335744447
0.313020487803149
0.307894331748916
0.315256083118654
0.305407676914512
0.306479227614185
0.303353826184082
0.305513187008707
0.303139756400352
0.305955648764761
0.296384401873984
0.30619485939228
0.301482874756514
0.299929748373716
0.304378663690161
0.301751402349085
0.297370829994723
0.300523776080919
0.292585244722236
0.302169690372332
0.2907088848723
0.294759717878562
0.293511802809714
0.29238410317935
0.290587939634354
0.297625834619213
0.29413109633435
0.293494204152121
0.286288740069659
0.293096879579249
0.287325560084764
0.291683633904284
0.285060311161877
0.284767829891761
0.28528201059016
0.291120221123567
0.282237724315992
0.289950927038978
0.282629804836708
0.283656425546722
0.279010421262263
0.281011986061128
0.279538240828968
0.285815916790457
0.283482498027947
0.280802846678915
0.278800077235434
0.28290543359873
0.282170632171941
0.284001809969966
0.278866822945841
0.281124108723118
0.273280103317893
0.281345672633552
0.277854380645544
0.282343347177785
0.27655200030815
0.277692867983922
0.278967624102372
0.276214965793117
0.274830436340945
0.276520207634986
0.274882292613562
0.277739654391263
0.272380060097531
0.274207787033452
0.273521993893264
0.274368927357093
0.266252487822617
0.271557899416281
0.27332914756429
0.273622729356734
0.270779754922034
0.27162730117455
0.262365560155885
0.263854284225905
0.265923712664162
0.264480743692584
0.266980357126077
0.266018418715663
0.261385410730319
0.265965733462118
0.255845693453828
0.260823555180019
0.253931246230075
0.257002183713854
0.257664490457769
0.261107746492485
0.252455041536923
0.259918867506642
0.251760277827312
0.254862429816922
0.253706260785494
0.255146874757543
0.254076455355236
0.249361898623447
0.251523564780874
0.250952109178906
0.243759794603874
0.250798168332818
0.249058242771954
0.252359835718729
0.243550951824409
0.249206818729585
0.242993398067541
0.248225079245021
0.241882792267068
0.247387553463449
0.242240242008962
0.242183106736823
0.242035977499563
0.243401550627505
0.238165786051654
0.238785774976148
0.237336381724217
0.238399161831483
0.234019721657221
0.24053462001871
0.235335604522491
0.235091267150899
0.232444432312623
0.233695924631055
0.229133430252974
0.233417370594838
0.22880071208617
0.231251423211807
0.230527176738052
0.230140961686087
0.227582068921823
0.22895056928401
0.222924534454744
0.22252816524365
0.221278611454054
0.225112739988425
0.2182019623371
0.219463664575129
0.21594466104526
0.21907343475969
0.214865751742622
0.220227796653651
0.212824702213648
0.215687674309926
0.214348993614565
0.21205978399129
0.20658011642108
0.208752094204748
0.206613332501967
0.208311386965024
0.207996212532085
0.210123320232941
0.208572475337797
0.205853455838268
0.202660607731882
0.207489891764956
0.203417616677741
0.19955367071436
0.202300099754337
0.202007728696938
0.195328415977162
0.198717074946359
0.196402660442501
0.197071968012177
0.196121403848496
0.198301451687565
0.193688438664006
0.196230470186461
0.194597907101231
0.191588075182742
0.192547708220298
0.196863111199329
0.188599823336622
0.191255937850382
0.190965458748287
0.190969120319073
0.189512663585148
0.18780084454445
0.182014462865828
0.186266517250118
0.187362487007732
0.186996477894135
0.18698927620037
0.187858754837652
0.184110747886888
0.183660989495982
0.182550371408048
0.182120608391857
0.180707235054169
0.183101825636122
0.180548060188634
0.179230494513014
0.17894445391003
0.183343653162567
0.180973333259592
0.179793456522651
0.175313686960224
0.176470431067599
0.174432405468715
0.175601505299556
0.173351137169479
0.174940761273548
0.174310294100966
0.17365825183835
0.171812510677421
0.175417952654067
0.171148684010797
0.170355132659744
0.172475107598813
0.170089029615769
0.167520415045484
0.172668831862593
0.166026225790434
0.165352232665985
0.166544728225894
0.167024688390514
0.164732896278261
0.167281885752453
0.164919460729771
0.16690693433315
0.167492210312848
0.167243776173609
0.165801644664009
0.166322236525474
0.160137464389831
0.163912319771565
0.162475872939246
0.164862226208069
0.162312708747412
0.163634616553497
0.16286735448073
0.162550578630527
0.160859715938843
0.163528471264317
0.161825970957914
0.160518668140416
0.156628052848723
0.159649042168586
0.159147877860139
0.159444924900907
0.159868470644497
0.161704204451556
0.15849218705088
0.15888679314403
0.159279050115092
0.159103834748412
0.157305802222127
0.160367602636163
0.158126120491591
0.156665633895045
0.156290563747694
0.156824405896277
0.153654880869195
0.152849375194598
0.156545030113565
0.155264769487096
0.152876368465017
0.15684106741644
0.154848266900718
0.15251718401266
0.150436866929668
0.151787070427254
0.151703336605977
0.149547560681142
0.147699661630799
0.148549788854303
0.148549961208757
0.149661642272392
0.149134033989343
0.151713831304146
0.146338906072998
0.14748234524591
0.14636907525747
0.14857557862032
0.146796408614904
0.144280844061861
0.145463576396688
0.145984566581569
0.145809994133081
0.142815729849934
0.143001427737066
0.146342481129805
0.14291167785281
0.141289264640027
0.141966659045254
0.143183337954032
0.140890456318174
0.141582446398813
0.145605750882705
0.144120177336201
0.143437956673249
0.144046255590817
0.138911317019938
0.140310976568343
0.141244854360984
0.139477903311173
0.137528237393887
0.138783514232239
0.138084719571087
0.139320083429685
0.138366172345444
0.138449879873023
0.138404036348752
0.139942999204754
0.137580014995137
0.138229082766421
0.13699109185108
0.137219706081252
0.137288367690318
0.134007998536725
0.132623551833848
0.135942356177234
0.132915753251803
0.134285429103575
0.132976327356341
0.133248314447498
0.132168550504179
0.130879310513153
0.128428360640185
0.130320373357707
0.130261529035063
0.128496589137654
0.126978415131104
0.126820030305462
0.12782816982662
0.126842082652238
0.126357219373116
0.126898834545333
0.125410308675604
0.127400394506715
0.124530075615202
0.122917593258122
0.123096920344461
0.122664944441103
0.122645079727545
0.12156874602527
0.120589570056579
0.121373710151034
0.120525202053341
0.120601868970957
0.11994625251285
0.117459792259081
0.118371695012556
0.120112380720135
0.116204311198432
0.115333316900898
0.11840307834106
0.118345591964028
0.114884353403325
0.11627570048547
0.115999471729572
0.114728700005448
0.114366235273001
0.111677523003567
0.112382355849961
0.114108564258279
0.114484011371413
0.114678219306048
0.115341264076714
0.114955890160818
0.110228042060557
0.111642644262527
0.11382222904153
0.110741234070477
0.108501993525506
0.110709496580781
0.108864720387009
0.107596684921809
0.109146380595865
0.109448280029271
0.107127466080708
0.108397345471697
0.108564930593397
0.107736645895738
0.107795760887633
0.104899534822866
0.106355023169041
0.107117083614446
0.104614292558688
0.103504139786614
0.102904026656423
0.106410531556443
0.104078427032787
0.100553862850256
0.101064928252913
0.0998243788076007
0.100282335602417
0.101311628367209
0.101046714667129
0.0997503640715885
0.0980036603162699
0.0987932726471281
0.0978398862873407
0.0987554229626336
0.100686103438776
0.0969020379112555
0.0962610510808456
0.0970505440889086
0.0955683909171958
0.0965331835265308
0.0965884486214888
0.0954252567465726
0.0941085617477969
0.0971533280285541
0.0963593389033701
0.0933858110179562
0.0944961147583787
0.0957682769673662
0.0950827986418693
0.0936628574055415
0.0947100408606047
0.0921814513175753
0.0938547994668662
0.094033901048073
0.0918329337030569
0.0934085717425227
0.0963814174739947
0.0917594264293098
0.0926055669552218
0.0936718840181847
0.0915599535299497
0.0909187033606663
0.0947870932020803
0.0949735661786798
0.096156232123835
0.0933602191149726
0.0903758673081308
0.089069430338076
0.0905741607566703
0.0898269529689453
0.0895826427692248
0.0862359639687718
0.0842211250627512
0.0815451287052213
0.0792113370806815
0.0826089468005464
0.0915209424146384
0.0854591338822057
0.080378893892343
0.0772278786752736
0.0803799841813993
0.0816933945914663
0.07925806400215
0.0740633097523627
0.0813539386276399
0.0802468993325418
0.081225269059296
0.0738524809831226
0.0744503422486897
0.0767413084781904
0.0754116514786849
0.0792401381422662
0.0782238209371401
0.0813472823285142
0.089563515788899
0.0844801947545743
0.0853749428932911
0.0808718820595216
0.0798800129942523
0.0771724421797645
0.0844608665780294
0.0780869265785854
0.0840346644623354
0.0799015601708883
0.0820236980796909
0.0798888583901769
0.0835212141170219
0.0782309137661765
0.0842870197044246
0.0756122962725785
0.0783188354930758
0.0734304013086781
0.0790479004296488
0.0805348552560128
0.0874009992743142
0.0800546594610016
0.0813249252956783
0.071270387469073
0.0727637425907034
0.0793796805098706
0.0877943651321905
0.0776637740646336
0.0726687322064727
0.0804369899319951
0.0857734466122493
0.0865531259580494
0.0745221795037392
0.0865876313581411
0.0839609988907126
0.0909332662511116
0.0731615427507547
0.0913838843534423
0.0792070169874708
0.0866493311060193
0.0750253947448744
0.0907020842330514
0.0773113717400385
0.0832965929751452
0.0812902594911277
0.0823370487156209
0.0836922290450102
0.0811450412246095
0.0837873821863495
0.0798198712786945
0.0822985261349346
0.0814578646075271
0.0807460777153266
0.0802828165043021
0.0779667522892885
0.0815374006986964
0.0782848968526281
0.0789788526151152
0.0786903290820574
0.0788698223529095
0.0780087980812608
0.0802417114753191
0.0788091699207039
0.07801967438573
0.0794486974440959
0.0793057126703764
0.0781122698872345
0.0789399239091264
0.0750628304102675
0.0767591435433941
0.0787682187950847
0.0788782977865075
0.0790581384667066
0.0783267883773208
0.0767823351591981
0.0776136392095381
0.0787615223499447
0.077236151442733
0.0761384574953919
0.0779918259923103
0.0772441373179348
0.0795136480340583
0.0784170940103845
0.0775808301594174
0.0779203307534174
0.0774695782725954
0.0776174386729797
0.077880929249529
0.077977761561843
0.077874898866424
0.0767335002927337
0.078189884850475
0.0801048831082498
0.0782511562653347
0.0789970075738967
0.0794273950592143
0.0791289161523553
0.0795442182010203
0.0780893876578212
0.0796918914020133
0.0777776452549434
0.0772601023879341
0.0783974597340203
0.0783261328907187
0.0784919656347275
0.0784051706798878
0.0795900478032513
0.0771647322191888
0.078395338348204
0.0778426871221069
0.0758740917094312
0.076008801637259
0.0754326344187119
0.075291974123631
0.0769785624607358
0.0790181698066376
0.0770223772649773
0.0761867136909828
0.0787584394727443
0.0760058984900272
0.0747337929894502
0.0771294165895153
0.0761339935247071
0.0777933233444653
0.0773696828434579
0.0752670978940767
0.0793103139059062
0.0775551853046485
0.077489428705508
0.0771006666451304
0.0787221235357137
0.0782056587738884
0.0756839364751459
0.0786434542080543
0.0795139753260333
0.0769628198193345
0.0772065068668598
0.0770813495559195
0.0797123972116583
0.078817706925135
0.0790153046154969
0.0786095266713233
0.0780792146047728
0.0778535199495641
0.0796364020556285
0.0800925646842404
0.0793473567443492
0.0807748142449826
0.0797895243765446
0.0768684262564917
0.0795107383091132
0.0783690488546558
0.0779406032284922
0.0797552736026115
0.0803048903470521
0.0771889344449428
0.0803612585706629
0.0812488220587887
0.0820250760242178
0.0798512971009003
0.0783327300599653
0.0806089999898562
0.0811344406750577
0.0810646706886315
0.0821542588979353
0.0813485718348233
0.0814642180299398
0.0791931181429383
0.0788093312012772
0.0799301716449888
0.0804184692518149
0.0790255553249998
0.0800376850178528
0.0802715437873366
0.08073015001889
0.0809108273930868
0.0812256966862547
0.0788131740322728
0.0801676169612459
0.0805555546993894
0.0811553808530098
0.0802570322988457
0.0823216831483546
0.081338592609052
0.0813159306176569
0.0811169658546765
0.0824656812561657
0.0818763165166211
0.0817129884852249
0.0807290656767305
0.0816982652331866
0.0833848152303931
0.0827700011825921
0.0802380411623696
0.0817569827159964
0.0798324576649093
0.0815711681685503
0.0825660634827561
0.0805955136379295
0.0803808846410791
0.0835641886523723
0.0834703944876692
0.083143597786654
0.0823357659363482
0.0843655003008889
0.0855015721722258
0.0847177143902241
0.0836563773354582
0.0843281872042808
0.0828140947248691
0.0859801178865522
0.0872044974875426
0.0873497539058001
0.0839859162224892
0.0845699760255527
0.0829759123503461
0.0834592502428154
0.0840625807765597
0.0841783809876256
0.0830397571128327
0.0851210237969651
0.0828560234609429
0.0816481388172015
0.082576826238462
0.084431059734967
0.0822171084200566
0.0832587589708156
0.0840502441128204
0.0846265178677967
0.0841765538473249
0.0837975438045202
0.0818529810446303
0.0830251416145406
0.0815552064758536
0.0813567853335857
0.0798320046150978
0.0804513561888511
0.0800391140302468
0.0807566941915591
0.0786598868736827
0.0794163487254369
0.0793004695847787
0.0802739270292619
0.0790250694436101
0.0799988062733155
0.0779441433441059
0.0802200457058821
0.0795658230683575
0.0795520658710632
0.0795346043773996
0.0799402546047696
0.0778787796612835
0.0797859095778316
0.0794771068058644
0.0811823786087212
0.0798587088381045
0.0792345852805801
0.0795266426605344
0.078636473510137
0.0774541258917137
0.0786021517224681
0.0765566799076607
0.0787282292165054
0.0769524629572107
0.0781590627472582
0.0774912724361042
0.0788087760464187
0.0781110307328271
0.0778542686939837
0.0766769161912929
0.0789123415200073
0.0776723329645068
0.078192081267418
0.0766759766909135
0.075963452942717
0.0759922641172422
0.0788318472033471
0.0774815651221916
0.0798668395057869
0.0763999411558815
0.0795093116614633
0.0772091306778876
0.0769863970929118
0.0772733279529112
0.078403830335006
0.0756581274224551
0.0793611948542469
0.0769956450662164
0.0755097328998739
0.074855359086275
0.0756225297115606
0.073831570135829
0.0753430510732988
0.0761560362467231
0.078392989842529
0.076068355902606
0.075048085769114
0.0747153323030824
0.077581493145518
0.0750114860695721
0.0737604392243951
0.073726516546542
0.0749556813639255
0.0742102989661411
0.0757192247745951
0.0758784671993466
0.0788750181346475
0.0766566249225139
0.0765873319939053
0.0748828349356113
0.0767818467881717
0.0754199077568602
0.0745419769979618
0.0742813715368663
0.0750835958025382
0.0737890750031242
0.0727991471853538
0.0742209772200707
0.0761910197114913
0.073420782628521
0.0745590563801357
0.073488796520061
0.074372122097474
0.0717764882990443
0.0738666287972296
0.0727178939257399
0.0735114893693075
0.0734137268944758
0.0727399587622925
0.0714226782253667
0.076152832416812
0.07201421912489
0.0751141268665249
0.0770011693000872
0.075654155983493
0.071174109649046
0.0756365839738508
0.0730857644979494
0.0726840645610137
0.0713588010819449
0.0726287404967906
0.0704616655179356
0.0713467081871624
0.070146596570839
0.0709357885405119
0.0719607598340634
0.0720832997361847
0.0698449901405633
0.071467269625721
0.0680733553950831
0.0695890642222616
0.0689641217626791
0.0708596792431969
0.0702182044993606
0.073269951404183
0.0681571391152525
0.0713909876861514
0.0679916790215434
0.0683145888192687
0.0717312939167812
0.0709997776154018
0.0675437257820595
0.0676148800217991
0.0663642294006796
0.0675974582968017
0.068198601242387
0.0682509522432772
0.066837398130855
0.0663244972815922
0.067871721239527
0.0655860419612466
0.0642740759019914
0.0653044889808148
0.0659681819176997
0.0661649215258238
0.065351137882276
0.06639716503348
0.0642715290299942
0.0653494743668777
0.0644368125113957
0.0628620336495989
0.0641919627731312
0.0651480166551671
0.0644149211972961
0.0615201180865055
0.073339264930268
0.0747166841801318
0.0661385203436072
0.0649695483129179
0.0673172984484611
0.0667469798792664
0.062960214822635
0.0653356507307439
0.0631192348498319
0.0650676094363933
0.0649463841671162
0.0644142753596496
0.0635539464486531
0.0645690090996193
0.0619189453720209
0.0646733186501687
0.0618192084671822
0.062867241415521
0.0644952687465255
0.0647241336129011
0.0618081191568206
0.0623440432418242
0.0632406791493457
0.0638722453260092
0.0629491994879815
0.060231542680551
0.0616276598626091
0.0705088310220279
0.066229886660863
0.0644297002079957
0.0618884164607584
0.0639265975094356
0.0607432981670039
0.0628476868019404
0.0590430890301793
0.0603097365534917
0.0604916061967614
0.0604888049489683
0.0601485352958512
0.0629365112133373
0.0610313889953725
0.0611524218163982
0.0570484662420626
0.0595517209729042
0.0578734102693315
0.0603646353548926
0.0571393361235476
0.0621191038747545
0.0580975313435238
0.0601734487768436
0.0580159422826427
0.0653758579305664
0.053256179071355
0.0727213977402639
0.0728470353795556
0.0642583225696388
0.0597303985636341
0.0600013419097792
0.0559400351941055
0.0587998766675418
0.0567056802812486
0.0581724125200287
0.0582953001204417
0.060368187143824
0.0584661079401746
0.0589159906825782
0.0574685811842388
0.061174094049262
0.0593125810509472
0.0584058242729932
0.0561963041330083
0.0566379197577193
0.0582172784056988
0.0557537135844665
0.0664287600279128
0.0752071031286592
0.0609138273876528
0.0653349396875957
0.0566382749607288
0.0598739157416934
0.0808944307484975
0.0634989093663135
0.0612315829924241
0.0579017278291988
0.0612424128089245
0.0538158613471021
0.0593036586532004
0.0546710020369184
0.0641998762594417
0.0642220008750111
0.0617483495105163
0.0596754692682432
0.0588262303746186
0.0581945527606678
0.0552135629993004
0.0594706959513282
0.0563357595292319
0.0573214239811691
0.0581483288281826
0.0566524935105035
0.0565607791106847
0.0546515890182612
0.05845403140052
0.054096458127653
0.0642958866674465
0.065248044291409
0.0576274979540697
0.0554317905602593
0.0594772740615223
0.0530412601832762
0.0695023448138075
0.0717002954320098
0.0610479351812173
0.0578929780781581
0.0547755963839613
0.0605885097880592
0.0570977951044401
0.057100799363498
0.0534397900607955
0.0593348844491605
0.0561140529399075
0.0579233775422497
0.0551192783532043
0.0580892811945144
0.0537893900844763
0.0587567554786899
0.0532200078552074
0.0575757289357679
0.0557414452300882
0.0585602467084801
0.0570124621387537
0.058307415687246
0.0800069402868467
0.0804699731188895
0.077247947607799
0.0671233730471845
0.0662725245528074
0.0596197133694422
0.0597164008314445
0.0564781470897568
0.0586964256038879
0.0601762000046644
0.0586521566660165
0.0578590156750502
0.0600982107517971
0.0567418176802546
0.0567007448161913
0.0553149495861608
0.0573414571564313
0.0553752057934353
0.058590397153992
0.0541689467549687
0.055053388390647
0.0581154310378096
0.0534120778670309
0.0692143609561738
0.06573129191988
0.0659479944573101
0.0519246798537503
0.105607228239029
0.0704920026584695
0.0760409214277338
0.0584454597693976
0.0625159741096157
0.0563035383226383
0.0596187135727744
0.058573507358032
0.0639013149005401
0.0554481591871887
0.0592975487500693
0.0553595559748193
0.0646172073036353
0.0610996477442833
0.0553885964931576
0.0763126479567962
0.0932866566515818
0.0698803033483789
0.0694843782891721
0.0495477796443987
0.0839918846260779
0.083604681872794
0.0633364255928817
0.0661984855490229
0.0611058096685237
0.0618259970970845
0.0585939039593568
0.0624335642316898
0.0615807116442132
0.0673135849718517
0.0626725398488365
0.0653007010375561
0.0601580102097736
0.0608884104131063
0.0673707832078926
0.063006513422594
0.078262731627531
0.0713122575665121
0.0614971379880326
0.0703650526899327
0.065648592499658
0.0633297235071224
0.062593879620234
0.0630078771221048
0.0612699518944945
0.0793192024698094
0.0762758593905908
0.0704255027358976
0.0825512294206752
0.0755497643014325
0.0655962521105146
0.070395384474936
0.0741303068018921
0.0820955358563786
0.0532256517070189
0.0978877995439743
0.0849341729223094
0.100947762701487
0.084743680526815
0.0708559903596431
0.0686216340361958
0.0664705629828139
0.0645795234641118
0.0671740413163569
0.0961018607556226
0.0650409275837251
0.0791632451200804
0.0554581491951167
0.0922967756916549
0.0764400353882111
0.0826222740373049
0.0690471473698843
0.0727493161251443
0.0652798520646807
0.0981099725121568
0.0622098458413365
0.0781296645582621
0.10243340397597
0.103694903885083
0.109797013440355
0.070346809236476
0.0814778312063083
0.110305577003638
0.0779305986653468
0.0839307153597835
0.0667352580455878
0.0851339237371673
0.0609902250741607
0.0930306037411091
0.106000622087568
0.0824227151357315
0.0809523150799944
0.0772737810914298
0.0770620127491588
0.107610158291385
0.0883886521194399
0.0830263226825802
0.0762865587414203
0.0852220585538585
0.0732415733319532
0.158342933936735
0.083458917541931
0.124109173134245
0.0981866681093324
0.118781579419582
0.0961296198280705
0.103595140578445
0.0834603363940098
0.113595003437615
0.106743535774994
0.100376570379296
0.0749675561093965
0.134423195298091
0.109973267076661
0.101744909757348
0.100845805772627
0.0949370086109488
0.0974517087916573
0.152113005058046
0.155836876595922
0.143383374362922
0.102371068487683
0.120472095942043
0.132896491128852
0.112969905911786
0.107931190598338
0.104475850471509
0.10442422146675
0.107840816454434
0.108281821700251
0.128704128142406
0.106424351906525
0.126283847311307
0.103189407111527
0.131953717333155
0.135552833254661
0.200824433183493
0.150858488808891
0.138809344786484
0.16427113081039
0.146604896484206
0.141033451021774
0.126602455821716
0.131206785938443
0.138954148033835
0.134859985480543
0.134292943741391
0.129048536051816
0.176246725927085
0.144258674952958
0.181703385675199
0.156283213472768
0.160973951710933
0.14668798510273
0.177108600998598
0.338893846243741
0.18235794942569
0.200876371332596
0.165656093073054
0.230890967359944
0.239131033076866
0.208460303760026
0.193811712737504
0.196645909417302
0.193051516390072
0.218282507110012
0.22413306037887
0.234029840649896
0.24860323361832
0.238223708789735
0.232653624807008
0.286471813133618
0.327931299093964
0.340964411668767
0.283622375289812
0.282087311894786
0.303172203487375
0.308154774397836
0.29344350170576
0.315010843707473
0.290562234976473
0.34550304989898
0.361598318320833
0.347465347502126
0.335593454420706
0.351830993589443
0.386551527827902
0.349533527488757
0.450148829874355
0.391367972986444
0.409100426289124
0.379715663706567
0.415511377864094
0.392858408762388
0.416464794755388
0.465025105348335
0.448751447307643
0.435064516895354
0.440367532955767
0.44285214020513
0.452719571429005
0.460288934271871
0.460227541401891
0.462433228107205
0.535969333022925
0.508006556663973
0.708532032617827
0.491421285000109
0.501501892707334
0.469701475332812
0.500021921871772
0.522382527797112
0.510877100168755
0.544815548426806
0.496093250480775
0.482049193140747
0.484115710546664
0.48557277025628
0.488145146520804
0.482245000035503
0.49547628625339
0.470692279636671
0.539302272781927
0.468259099271454
0.582987502252696
0.550980357156615
0.515645792392147
0.474562813597087
0.491825508428557
0.474969529767148
0.499758455440026
0.475445378571598
0.514993416755542
0.503079487221077
0.486053695979966
0.478787155545766
0.461898237768996
0.506676781702849
0.486734068926989
0.453208561024851
0.447199953175241
0.432697050522446
0.452574113539941
0.40962467376999
0.469917149601608
0.482932234939078
0.433878559269133
0.424655837131892
0.420867288308173
0.411998706025422
0.411248111060981
0.398695970254237
0.421094667556906
0.408113619647024
0.403276729883133
0.408734654396152
0.399743836497107
0.395971817731181
0.386865346939161
0.399491776760501
0.391459175484862
0.38991862883683
0.391398578881149
0.382525714208446
0.387878021648603
0.379069597900556
0.393525780268228
0.383747655386099
0.394754719309228
0.390055526764576
0.378297995082099
0.383895447955001
0.379989647067948
0.385470365307797
0.380922436593936
0.376419934157475
0.37645931979796
0.382075946048194
0.37473449903685
0.380366301799459
0.370320546359394
0.376459329162543
0.372469163851215
0.373789264441018
0.369234544797929
0.373686843200665
0.375833741100656
0.361006082633378
0.466109490820079
0.38985348466003
0.386006124606648
0.359588974538787
0.373042812390366
0.355334322675617
0.358785643184217
0.422610737472908
0.388978205754054
0.367412546283063
0.357537106120927
0.342230468841583
0.377952564915467
0.355272162551789
0.352384250061708
0.350659346968951
0.331139505293514
0.448211604739165
0.40620649445539
0.482216496988898
0.445720883073027
0.380016534721743
0.328535564613587
0.382932170734842
0.385403559057341
0.343593087273751
0.344226704879635
0.332026637928741
0.401455656956267
0.344601069373473
0.343917396214068
0.327744388042842
0.328061624329242
0.363831218368751
0.375577577445212
0.347626642437736
0.386360262958432
0.381171355052003
0.353325971374647
0.401629149621277
0.418001271325429
0.357581540846255
0.319505446648091
0.328103851303442
0.31040622519691
0.332886725873437
0.387377790954648
0.317430946790614
0.33799123444886
0.295978684863835
0.306922026965214
0.293149642418844
0.337333017077581
0.299227973535123
0.32577225171072
0.331896242448314
0.285243288893697
0.311867276093314
0.306784974607967
0.371602241504175
0.346311532479049
0.304030837623641
0.265717789276709
0.335192284614197
0.321900017544942
0.29266606364062
0.30045209018916
0.260436289852077
0.285863910038392
0.293231039776234
0.255839182446567
0.292279845529182
0.283352116109964
0.29751158111578
0.339232869780727
0.346074469087454
0.324496480741375
0.261788043529414
0.242360964335069
0.242507211882611
0.249411654880853
0.244552182845694
0.229037914429513
0.302230131243098
0.240399578073423
0.258425441248758
0.301922820531333
0.254289718683988
0.248166776250927
0.2499462091307
0.245116442675403
0.259233221633233
0.290964349076973
0.319851907903574
0.267547761848746
0.282903819270148
0.290526693593847
0.273316044392687
0.264250171837652
0.268341947838317
0.272445523241024
0.275327078922648
0.295862788487481
0.286942091326461
0.293422375375399
0.304164229234138
0.295922004299612
0.34572908210825
0.336210675059746
0.32026518686854
0.375966019416706
0.343652608878359
0.42149489998405
0.355240109625283
0.363234796347977
0.348074873501846
0.361683752223247
0.3685620401285
0.364929417486709
0.399872071859572
0.4223000945212
0.383787429135194
0.398695276645373
0.390351162322428
0.405814756492011
0.402813622461324
0.462522979180203
0.425567289947086
0.541424856357255
0.460312963809646
0.463889188131515
0.42832196378171
0.427178810710616
0.441140034444974
0.432034850877353
0.434252708161642
0.429101855468541
0.441645090436722
0.475368447517349
0.439655550478018
0.446862151865373
0.436608799163501
0.454242094696067
0.44414780593316
0.456820738585194
0.458171717143056
0.458243524381076
0.463118985380812
0.462814044363486
0.469977419947696
0.575345241012402
0.488613530790456
0.49608331830952
0.473261764330907
0.501726304254336
0.478682421855152
0.491852875925894
0.51680395258763
0.513730205345544
0.501116821762975
0.506151251647213
0.502812083002968
0.510268747861189
0.522284797358267
0.552507854301367
0.504306403615983
0.536965941413979
0.499434188988298
0.598904183915833
0.572533198288258
0.559150809848608
0.554981825025352
0.551399815560724
0.542391367756078
0.551891994402975
0.530626225029021
0.551332328662304
0.548692618294517
0.550743476150247
0.546971126618331
0.548710585667956
0.546433359879539
0.542321275257269
0.554136898153011
0.588642832475634
0.546196653752225
0.549396012402332
0.543772634354625
0.55098187908018
0.540563163202603
0.590589148275559
0.558127341977847
0.559648603989813
0.546683817483436
0.570196404769966
0.576621134424769
0.560179968381935
0.538417174669758
0.550625462080169
0.544291877563454
0.555250358741669
0.538822981319784
0.562613702374764
0.575095084659786
0.565498957399386
0.553615050369594
0.559396061363089
0.558129842854638
0.564826359069717
0.556321462503938
0.56375334424402
0.563052171545733
0.567482280454662
0.580731440802713
0.574860500753002
0.574693648603767
0.585650083245935
0.598739598692741
0.593238986219355
0.567256321135464
0.573853342904727
0.559767773592764
0.5691405950335
0.578780427662614
0.565715709984941
0.548039059643868
0.553752279055274
0.541753029557639
0.551881204911509
0.583140692449811
0.537781952326418
0.554773438748142
0.524759347235756
0.529911455642877
0.521572274789009
0.516498270053008
0.514454202558411
0.50776248577925
0.512439210270026
0.507948618340192
0.502416661251728
0.499574414373437
0.500427205409879
0.496833360905566
0.503575756927663
0.494939005059479
0.496610142255601
0.489524419731924
0.493596563470222
0.493037284881771
0.492278885753318
0.49017135195443
0.493682514667251
0.504045924926992
0.512585464352878
0.513609095856323
0.498159637614485
0.492284895962008
0.492476313548401
0.480612523194918
0.488544605579589
0.486661607533795
0.489851546837865
0.483562976003308
0.490267230035813
0.482008448854787
0.48592043218873
0.48364896872415
0.486055204492279
0.48081303207705
0.485157910158338
0.477982953495518
0.485590487913656
0.478082982487074
0.484276337414423
0.485224635595998
0.49782580139117
0.486564698628057
0.489723957908521
0.485567800595173
0.485663705014579
0.485758509288219
0.488721115279976
0.487178698229591
0.485598036526956
0.483469494046337
0.483339493380793
0.486429699650016
0.49089229651201
0.481557239677924
0.482104173157208
0.477795612599838
0.479564485952294
0.478906898986519
0.475510373117332
0.470029600862008
0.471175902774679
0.463415975513065
0.461360546495839
0.455216269673868
0.458882882587838
0.449532195978609
0.443940462672501
0.441761424377366
0.441430790072968
0.433932132951122
0.436428895959289
0.431386690784856
0.427198132016307
0.426139701847078
0.428379511171989
0.420064134562244
0.418756352835528
0.419090454130353
0.420292832242508
0.419685380271001
0.416814051678803
0.411410983309768
0.420867975439434
0.417129183183083
0.417729123141053
0.41665394925002
0.418892072365324
0.419286513033515
0.421608518517542
0.422084456529318
0.423350492319804
0.423136827271012
0.426547791153985
0.428501100904414
0.429323383578115
0.430051897279577
0.43117806007098
0.436077726730981
0.436519610888442
0.437098883893281
0.44089008826723
0.43956625600181
0.447870216664075
0.444193365501325
0.44177948456857
0.443943651881915
0.446935576568565
0.446098758171147
0.449791631746646
0.448584442597485
0.446118794435298
0.440649516824265
0.443334931473594
0.438003788985709
0.442956355947056
0.441167051324005
0.438978258475672
0.43519928013792
0.439789402192737
0.431570735965907
0.434748433295038
0.434433628729024
0.428453471764256
0.426588414828972
0.428195603050986
0.424600140686117
0.426841581660442
0.424445359671248
0.424508946712816
0.421769743311184
0.420391272830538
0.421535993064585
0.417523318483538
0.413550387720349
0.415477386664167
0.416924874247379
0.413532668461268
0.411182270387797
0.41283993176404
0.408027425084539
0.409343029197904
0.407444193097019
0.405640494020338
0.403380541270261
0.401623936366148
0.39788671688709
0.398551433243703
0.397301441189875
0.397690559650352
0.391843533698026
0.38905830204438
0.383549667872109
0.385682417219463
0.381929491603551
0.381333455238693
0.37830005016557
0.372479602481236
0.367100712710586
0.367871563673216
0.365508078824543
0.363168291532601
0.361865002711135
0.359216383590259
0.35811266350336
0.358970509989536
0.357453194235608
0.35843280180602
0.356399069626759
0.355083001508245
0.352546560959736
0.352465800400261
0.347144116916561
0.348933927596907
0.343070297040001
0.33954205796006
0.337709672189565
0.334716568505195
0.329489369691522
0.325336452953357
0.319845091352329
0.31717603431311
0.315761156134965
0.314362372699952
0.311271347701501
0.311129110226548
0.315838186394933
0.320421309469197
0.323896877379247
0.331428015274172
0.339574998808977
0.348210332403873
0.356701950746613
0.370298482088749
0.380843706314768
0.398104936208816
0.412043363160971
0.426981197063737
0.441937460762932
0.458298157294249
0.473834437869314
0.486349787990092
0.50517812853181
0.52072175601311
0.535129940972381
0.548918456253121
0.561163496293009
0.573981341615801
0.588887912698763
0.602302871486953
0.614175872147566
0.624781309935256
0.634811622128896
0.646746645910287
0.657874617391893
0.67080726434911
0.673096558443536
0.681169404325398
0.686487552071836
0.697136846611466
0.700773239160295
0.705730495711241
0.71197356035127
0.709348237895115
0.712561052191708
0.716859138006073
0.716792592043327
0.720122179266959
0.720106393577828
0.718739660401459
0.719082466913242
0.726946344919004
0.725357099329364
0.726845159377923
0.725835156329596
0.732767963875588
0.732498298191827
0.737807087723398
0.741943312342041
0.745769110685621
0.75733561095491
0.761537102906571
0.762280938035939
0.770275911269137
0.77754217924776
0.789818811359871
0.787643220655204
0.793219306196773
0.810033225562946
0.822241240314767
0.835653576631016
0.847904006040795
0.860302254768003
0.868587474302362
0.884178629116906
0.889207041308031
0.896023148331339
0.902242325101183
0.914544792130645
0.920393797716915
0.926598590200765
0.921314339400954
0.924063311583019
0.915512247824175
0.913891749438363
0.915017609848537
0.909457194733338
0.902344662905198
0.899215186819937
0.901023814709613
0.907989800281368
0.90654072045295
0.906457123565678
0.922327470148087
0.943914017912154
0.937151295186203
0.956645003130011
0.972778650170957
0.988426202771374
0.990161787617425
1.00658570755847
1.02796794970801
1.05088388349941
1.05286956326799
1.06001151691519
1.08435447341992
1.10971042744849
1.12306588135987
1.11693211890956
1.1417793300079
1.1644161029132
1.19733498716155
1.20400943869905
1.22769917693967
1.2626115245189
1.26798857967505
1.29052808178729
1.30558202792475
1.31847666019633
1.32970640087839
1.36437941615903
1.37167852408392
1.38935925172993
1.42733300333683
1.44196078516064
1.43627170913773
1.523267393184
1.49186084579033
1.46864191539301
1.49808781497772
1.51546531980141
1.4833841458539
1.57300579347162
1.52158505057619
1.48689182017786
1.51008514428389
1.54963432716138
1.51288868534823
1.47851357811953
1.4700855627439
1.49376636348189
1.50300954757389
1.49166176606059
1.50203195808925
1.55650479966412
1.5224047742703
1.52228634593599
1.49907828732018
1.55137587356542
1.5647917813821
1.61127837948469
1.62681280205875
1.58442392277528
1.60412548935329
1.66667381907173
1.66971857346725
1.64970467390872
1.67723722851589
1.70039333448108
1.72467326296083
1.66170611429465
1.72508827434614
1.75727997183883
1.72129029160018
1.72613485065065
1.67025608223222
1.73067560351813
1.68635366121638
1.70984276050339
1.75662404764287
1.72637158793401
1.78181719657444
1.79438627073658
1.68763685662678
1.71926684754409
1.79903431178573
1.81682128045919
1.69893466563244
1.74429880725174
1.75858136788778
1.78630473820905
1.73826837346919
1.73880718639039
1.71966663337479
1.78207235158211
1.70758125964299
1.74907243908554
1.70356814666384
1.67925036795988
1.67660316153766
1.62918696688311
1.57540967756319
1.59559077762072
1.50187989464825
1.4695421561387
1.38897440999389
1.39810163607645
1.35881768426027
1.32056887628472
1.27473829628403
1.22921276905742
1.19069124550526
1.17820652225487
1.14952838645728
1.15299470880247
1.14647075574846
1.14335804970195
1.11660143168902
1.10444283728433
1.12422784610687
1.11235287229271
1.07605954970227
1.08246359489367
1.07668557181901
1.05962366851052
1.03548941309335
1.01824653400848
1.01634476274723
1.00084779275187
0.961509754833184
0.951981523514004
0.918309296476316
0.897206033931561
0.865033408218274
0.845771954237112
0.810688060325211
0.778838743765592
0.762316787402748
0.727393701425152
0.678106519723016
0.650746082902827
0.626877749272584
0.597949136330295
0.565904799109742
0.537676139249029
0.521243800925826
0.497609236690861
0.477764301669518
0.459069650994643
0.444127480342636
0.428441802861567
0.413944656626682
0.404614627876336
0.388801723685542
0.382239806060958
0.378009431304861
0.370390168747027
0.364130549967073
0.354640152598498
0.351778957660428
0.356904661670229
0.358055943012946
0.354658191870872
0.353148969728969
0.353825555623454
0.356350194922855
0.353330708993397
0.356868464633511
0.356833618351989
0.361660109836491
0.363825027135578
0.359999173084318
0.361305538330895
0.36298460547267
0.3645051751376
0.355238180874622
0.356102980717356
0.356807141701066
0.350955466183355
0.34421518769274
0.344303145631862
0.342854987050572
0.33524974323095
0.338148906343073
0.33591929046288
0.330705021041982
0.334699792558086
0.333844112099982
0.336990316814586
0.33708660920288
0.341552757568674
0.33644389998495
0.340234305663552
0.344255814974217
0.351992351709277
0.356142203140353
0.360716837143366
0.359246662157701
0.364107306658949
0.363545229845684
0.369796143697241
0.36789870050827
0.36529585329683
0.369502845987205
0.37453582761767
0.376864792483263
0.374843468606148
0.376195878269471
0.374770237363336
0.379505996278353
0.385504580890788
0.380554999552339
0.384716954953074
0.387182844640195
0.397013436113137
0.398447120243908
0.397391565731002
0.406111066682928
0.416140751934997
0.422033835539849
0.43592925644648
0.444831980138677
0.460452791743391
0.473593883826935
0.486190925023016
0.500480061855267
0.506666469578682
0.509661872594065
0.519040516081833
0.520671596623986
0.517661831389132
0.507666412705933
0.509008726104679
0.490854823506099
0.486306375237125
0.480372828313129
0.473872128894968
0.472710558478626
0.472063014529132
0.458368785527389
0.4558804641983
0.447871607448517
0.455450279583295
0.45832333285418
0.458554224461166
0.457627856000753
0.463517532739682
0.463801220608613
0.459520874158921
0.451238282531502
0.440932650603815
0.440763754862602
0.443595203135583
0.437812622039646
0.42499491929172
0.421735954465677
0.419332085195888
0.417781019476567
0.413865275094582
0.400207546868234
0.403685758228926
0.398312391203764
0.40097445079318
0.39532691502474
0.398115723211107
0.392092073340546
0.386193987872778
0.383174547338834
0.38766363027883
0.38060239579957
0.380064273159438
0.379934689722467
0.388227204836253
0.381356699151642
0.37314949808752
0.367778292012513
0.366479756981273
0.362437699979948
0.365260047118497
0.362818114545382
0.366905509962277
0.367176847761188
0.354551531124016
0.354663135137457
0.35814300978354
0.343813640323133
0.34506303100301
0.354836642082621
0.350782811042695
0.337394081773375
0.337060322972899
0.337410410543326
0.348130704722145
0.346655556392002
0.337980919806281
0.337541745837803
0.325668816869002
0.325118292424969
0.33984196078199
0.348705081542743
0.343912351708053
0.34025915630201
0.336770457823729
0.328989062716744
0.341660960769595
0.340524098869918
0.344658484764163
0.339106036822348
0.346398324727014
0.351797337864371
0.352418777425786
0.343319544788082
0.355867722761564
0.355960547093702
0.352736516618008
0.361187358515358
0.3614162392827
0.366151519187916
0.370903435361505
0.371721302552859
0.387910145121927
0.374887937091534
0.378580596517493
0.393866885515706
0.409535020868999
0.39618333058643
0.411095368416359
0.423376117727415
0.440437681409387
0.432550427023084
0.431268085244311
0.442496870145943
0.461000036874157
0.466988115989231
0.485394371163198
0.50037456920989
0.531006237390754
0.542378172351233
0.557148694657798
0.565388105964451
0.580689764596544
0.578247609175968
0.58798933954133
0.603132880849565
0.617540396024686
0.611025367924352
0.599785929970093
0.593721833780884
0.610884540835943
0.612546973617389
0.611238577546277
0.620209443721687
0.616728286226388
0.580733057735208
0.583171613722412
0.583946025244072
0.593886832688137
0.597706990393288
0.597187512149974
0.58797084964687
0.58775353692806
0.586686853219851
0.580726915557096
0.593954771957576
0.600947437243053
0.54952573626448
0.569015961417739
0.568675531468746
0.549952989852094
0.57997456816575
0.584624058126316
0.557394373453801
0.530574740543635
0.560653409676398
0.550618709802674
0.533005434045646
0.548684938187429
0.556663193628644
0.540600860584876
0.531173928029012
0.539402732955995
0.515141739089459
0.524916958182004
0.517314832288994
0.521254979700823
0.525333359339808
0.558778694298689
0.540750108523467
0.546998617772532
0.55413790480553
0.568145600472238
0.526461372290319
0.527140403409133
0.521834058528586
0.541222464219985
0.56076454986524
0.555944052052149
0.555037461325259
0.54086597130697
0.552846248400183
0.559327037184209
0.548529385594834
0.570484075865655
0.543449457417637
0.550801269475745
0.567165728252624
0.571387697592426
0.567705319030656
0.564766487053505
0.58504612644194
0.535502380715627
0.542012111728115
0.574798518602963
0.610202928717174
0.604702175736349
0.595364441536783
0.591324855324993
0.596475954676085
0.644574312035613
0.642543694442131
0.645003706485788
0.686132201035461
0.747362666869696
0.746910122713809
0.711755214230145
0.705729205856138
0.726668486195734
0.80597928189696
0.708334013200699
0.686158432937847
0.746539841351485
0.748868939260644
0.802277068331225
0.781139646158538
0.761361548085549
0.745544314958729
0.693340826235251
0.754883046637759
0.780616364750207
0.740074542516617
0.888870340734794
0.806517414228269
0.67305394581267
0.747977531817218
0.700456393213404
0.671622672602147
0.69322166318858
0.692919560366832
0.658838890738334
0.75110077741935
0.749428813410151
0.703485031041169
0.715856985827464
0.643535036572013
0.628863065559671
0.708185240962198
0.741627729299536
0.677026092990539
0.622517078112943
0.754008991164673
0.769804419268653
0.878281311636006
0.74537407602486
0.672165382126174
0.764199443107874
0.741964808712071
0.67229201506013
0.73608524672668
1.20378284758717
1.07177569297751
0.674887437022434
0.778899491924483
0.733114856631673
0.8271574993218
0.868952936269998
0.666619886158156
0.662428182735877
0.692356578626088
0.659845883128872
0.755936883836005
0.884337409187405
1.026920605753
1.15234889441352
0.900015585347549
0.785635681145394
0.744988267294994
0.614430130455865
0.897806691034949
1.79056179610179
0.581311016936245
