3596
4000.36533379555
650.420452594757
1
2
2
0.0931393458201336
0.100919961615978
0.0987379738821452
0.101109490507322
0.0928875789480496
0.104466874164049
0.106167440313881
0.10246701342903
0.0970206530062528
0.10662237996448
0.0980692423690342
0.100574562449741
0.102073719767827
0.101061437820161
0.10002853627998
0.0977209486777048
0.099819984080525
0.0981503474840968
0.0999541766157719
0.0969260558574183
0.092324964417973
0.102233302851791
0.0883842935407955
0.093013139485209
0.0908186004692877
0.0999774393181357
0.099542592232864
0.0989279295497132
0.0987833062751138
0.104255613953207
0.0921610288681799
0.105092042400106
0.0970734055169375
0.0964432026607995
0.0984258928439248
0.0980766884413291
0.0987093277555906
0.100015234190246
0.0935059176932217
0.106010690327747
0.10465113513493
0.0989171460882814
0.099531614737357
0.101289306727308
0.0981853076860339
0.101272141831624
0.0992485491605779
0.101199145615997
0.096948469224546
0.103099995412193
0.104150874150371
0.100357108574793
0.10545718068777
0.110865385715865
0.104930558106974
0.11908994790133
0.102045403175307
0.100882549656317
0.10276740698086
0.0944509260143813
0.117542640519543
0.117699237190291
0.0910872716559099
0.102666034420007
0.0863293581444539
0.0983354363849268
0.0954394420744063
0.0938178077679908
0.0877859183394334
0.100040580569614
0.0881512925279224
0.125109517123063
0.113790534095834
0.103094721740799
0.107046217660769
0.0963581381204378
0.0918238682813023
0.0952317742060592
0.0955378892089179
0.112423774005839
0.100891824125363
0.100576416075556
0.0989861487226283
0.0880750119268459
0.100176952942047
0.114591785741203
0.092935621343134
0.0970331010300596
0.120524889894947
0.111039582722061
0.0919525337761302
0.0973255073088921
0.0890513669290959
0.0888411088045574
0.0853583725489369
0.0853883467289632
0.0882951332376119
0.09090106142525
0.0894678331353233
0.0977189549762923
0.114781260938202
0.100312498600225
0.143691943355567
0.0945684481132119
0.165114525086697
0.116812187795594
0.0885151562095236
0.157733356281894
0.106275946615247
0.109181409080441
0.0824296732894986
0.0948337938755665
0.0950993997533828
0.111021383622036
0.0834438216187717
0.122057690453686
0.12369781920735
0.105147553439666
0.0945614901690929
0.0938690845026297
0.0855060171802135
0.133996561755394
0.135259687359808
0.0927736354587762
0.11975222711307
0.0950535520524951
0.0978455865859276
0.13853634746721
0.135860728928724
0.0915293894644186
0.0920876486695537
0.0784463413196398
0.0891119452915739
0.0880338954159929
0.145377833547812
0.10515942197637
0.100721079248344
0.0847788296797825
0.125029906131339
0.158778690010556
0.10040386030635
0.0918162721334693
0.0848348437138235
0.0959085072380151
0.148217812123617
0.0978857919436475
0.0856139626823512
0.112133695197779
0.10610743157047
0.08646312781531
0.0894673857462475
0.0921318805979982
0.123841409646387
0.104868787575796
0.0783266674568612
0.159072572217602
0.18152162504981
0.0993161086405289
0.167537418633076
0.0877095063910055
0.112476822116924
0.0951731419364305
0.0910922379857142
0.0801245961086746
0.0932865494637913
0.0829622778915674
0.103111456759836
0.129036802624184
0.0882363075638926
0.114662081933534
0.134815413566677
0.11628603740894
0.0884794687665085
0.160393926917743
0.105843945571598
0.0821855518068383
0.141160877616605
0.0998243972481244
0.0884653719275969
0.0904556117333712
0.13316411550549
0.0793522355591156
0.0967038498629278
0.0865606406886276
0.101907295914771
0.106666698799488
0.10333491674158
0.0836917635905589
0.0998299585188127
0.0837825776286982
0.13009999807263
0.136211766619159
0.132749354966765
0.0933984384865314
0.111948016093464
0.0617100931268857
0.143129139648534
0.130256549732572
0.0918695253279972
0.0886244628478706
0.0875604675665879
0.0841006455943061
0.0891024498160844
0.0840658289897427
0.0936364237343464
0.0686371961797912
0.154072783307265
0.100054306602549
0.0956216468300196
0.0851124437688195
0.104718908895546
0.0960513006712943
0.156746221399078
0.130917380097811
0.0847362725975047
0.106028897480394
0.0843678364762168
0.118942238289384
0.113830028461766
0.0878633265914907
0.0922508699972138
0.0915931443776119
0.0908459575844521
0.0896135274256013
0.0923668755335461
0.0899726049917196
0.0866648960452118
0.0899766134196573
0.0966898904549443
0.0939592111481594
0.103727668780882
0.0954860675082974
0.0924225111068672
0.0947048797073747
0.0852871179018811
0.103249853127543
0.132131702450932
0.0920474381457107
0.100466078748377
0.0855359883339753
0.0913698524876974
0.0879043858327042
0.0985152355356284
0.0840760549606584
0.0961177801336591
0.0839096406926115
0.14565072137513
0.0924166816053756
0.0942462664519581
0.0876308778290692
0.121791022540433
0.110301686316957
0.0875414818317027
0.0976729603434659
0.0915255561228227
0.0906221976774627
0.0982245301992265
0.126444370501296
0.104709670547106
0.104298670139123
0.129091552931376
0.104065933913838
0.0856153267239016
0.100953914106359
0.0839512663390911
0.177207488584647
0.11540820089676
0.0960840782970772
0.182276602913148
0.119512889258204
0.110825931631381
0.107969692536633
0.0727348215816104
0.235638747921949
0.146928992807522
0.10227820163183
0.114017538944989
0.121432470259962
0.100655701969669
0.101391506972068
0.110823684921839
0.0997923911242485
0.156529051844048
0.164396264803403
0.180099237139341
0.082337013462958
0.157028020563695
0.136222940026985
0.101115934549297
0.101433357257335
0.0967218042008801
0.100720715101606
0.117508156682666
0.125940449933467
0.114343619697555
0.11221210575873
0.103641073610248
0.139895966993991
0.103113057962964
0.0988636927769195
0.10624941353697
0.114661302416625
0.0908138632077399
0.102889226248085
0.103437228987084
0.11102920585846
0.10321055666388
0.105475823642645
0.167379379175206
0.125590920606231
0.100938735968696
0.140136201647283
0.106511692935341
0.0985024299265033
0.0950018983542424
0.0986149891865483
0.0953373813532028
0.0916181130170839
0.0929307942587386
0.141769912199825
0.117305206094598
0.0938054106520172
0.098227760225832
0.091978256419429
0.102690213098211
0.0971141707033353
0.0958206841161076
0.101010641039465
0.108709485117335
0.0995933697389461
0.138188466195716
0.146265312990286
0.0961663579273885
0.156526606799917
0.152626862215555
0.103429665945966
0.114074036224898
0.103582870974974
0.118307860929878
0.101361758678948
0.10733110616562
0.102500306523008
0.109482707296262
0.130474104781915
0.130664935455001
0.110194996515484
0.138503877982787
0.189917785161145
0.198323459043759
0.133187694254526
0.131132281850786
0.112093180535603
0.152805444740169
0.16828381531223
0.142761764662618
0.159937921016815
0.118260758974365
0.132463093680754
0.120319309295457
0.132702147803385
0.121520312136307
0.127520829266537
0.129449048111092
0.129336173800494
0.134515357636261
0.133786078097812
0.136229007933703
0.150104396853795
0.18985711686886
0.153605935785152
0.137783663627101
0.143926799941727
0.144747150349344
0.179402923220779
0.204177226709941
0.201212811725649
0.19923521200066
0.17165420088407
0.221081028851639
0.1629342492654
0.164853548431497
0.148272261650925
0.155658648058521
0.158960707133412
0.170823255083036
0.159011528773609
0.164671807333463
0.164778623853204
0.181619372613302
0.168532797281036
0.184823601756295
0.173681134985061
0.210534630901107
0.183921260244847
0.186775287657379
0.188358272604675
0.219668014947638
0.27047034109472
0.256866424762909
0.210449459092
0.197349644966085
0.201508631130064
0.184132798330758
0.206007971198155
0.200592134059912
0.219026962587319
0.226988068185231
0.252064006555654
0.250010015768994
0.236967652493907
0.246129299203932
0.214388296263845
0.250116259762615
0.255114536027395
0.256897917467535
0.263061196260571
0.245585764855272
0.24145094725401
0.280255547997202
0.270040646810142
0.258450886530991
0.26587886308078
0.242732151424673
0.2477865512936
0.252661043391218
0.265692220318369
0.267003025902232
0.27726108016103
0.284690250187031
0.270695604851231
0.280904893923519
0.279801733747205
0.284033925643823
0.299907145316017
0.30031806547956
0.300914218716773
0.307778017158672
0.279624702456268
0.307581879661236
0.299691728323392
0.321810959951452
0.350351719833146
0.344663233715214
0.35315468553128
0.312651763669566
0.317586620902945
0.318453253689481
0.325502713680972
0.327169695464025
0.333906463165707
0.342474428772315
0.33783272510545
0.334575164292392
0.338105850817442
0.351775183960562
0.355282239392035
0.365643689302151
0.355934322579379
0.362427244600802
0.361175517938876
0.383097907108774
0.383008201250469
0.417592124544125
0.432918998292155
0.426352041194036
0.42923299701493
0.395836245532999
0.40463291946899
0.40093211513125
0.415324164428376
0.412503186207404
0.412831511542782
0.422346412796054
0.426087509084625
0.428888414891289
0.438423971698706
0.436019706738837
0.43406341892465
0.453972560147838
0.445458774231854
0.457423211067981
0.455904985379161
0.452696851875873
0.455411328699862
0.473381066745914
0.483966436371019
0.482952370709661
0.503071462166746
0.487705297388866
0.466971923156834
0.502014756212049
0.495750900741161
0.493474625921955
0.514911956710678
0.497913053549216
0.508736461806678
0.532151634594128
0.520139439548409
0.535533517022606
0.54140287095521
0.533310130663141
0.540232745227178
0.562399989834899
0.547300472111028
0.55189304191079
0.560595135442641
0.568469181272026
0.589002903294175
0.580912188116529
0.571966625121603
0.587947951795351
0.583784580068559
0.601559725701844
0.610501731454248
0.604059555732976
0.604781930485005
0.615438149989883
0.615310402678131
0.62033503071376
0.596599755215974
0.608656710259764
0.629941081286983
0.65179792973486
0.66457521859606
0.665076748373395
0.675839517178426
0.665235051657974
0.650209612096365
0.673318356242254
0.668945042222259
0.677950004619728
0.695060592254001
0.691702613409855
0.648529854609102
0.703004723666183
0.722790615998274
0.689633308384942
0.70556418553974
0.718080068093302
0.698062355662001
0.752316576966094
0.726828837928761
0.718194047464955
0.709550679927614
0.745391276959964
0.755109458621764
0.741865440533374
0.755292670483406
0.777068215555278
0.753492676175087
0.779146329300548
0.775875346354622
0.786875252345798
0.797991030380853
0.78178740384705
0.773045964113969
0.788134482692178
0.811599571535143
0.847715004451124
0.824610230292363
0.806705245941089
0.819639471572074
0.825912670313702
0.814090403975445
0.847328661698683
0.855611009149441
0.864375635749652
0.832214096283663
0.826538805806619
0.819261013637325
0.854928618615046
0.868663951375328
0.898630633008224
0.923712096259381
0.900357667263556
0.869931742320257
0.907154775172913
0.901369746959079
0.923579688411212
0.88105140464791
0.911065115576309
0.922246030177429
0.92124369237497
0.94926117562035
0.936175995874411
0.968192401042281
0.951207416441755
0.953353883987046
1.02055890948195
0.936367456326631
0.91380076108478
0.987321342340641
0.962495451720711
0.952184602246099
0.98526871054194
0.961883357224679
0.987512909591161
1.01024028483906
1.02620958881152
1.04552377005692
1.03934389028468
0.964757122555841
0.980364017503855
0.987409322607002
1.04314592541157
1.00406725414787
1.00556865299593
1.00789042770732
0.97781293705733
1.03807237544806
1.09780082396665
1.06711891765782
1.12139159921603
1.05577646026915
1.10625667333478
1.11595013805365
1.11751584158173
1.09539205129681
1.04636912769222
1.03724383293308
1.12159786312633
1.10031901895758
1.14695994086581
1.1009977907888
1.08979401983711
1.13244200404887
1.10198191459224
1.07160281419722
1.08553088135962
1.07770656499399
1.11478957477864
1.10804173329447
1.12085905480488
1.08085307130369
1.13937523627031
1.1151048021238
1.19240594573833
1.21218399821112
1.15788371000766
1.14349276568584
1.13985788368115
1.12728135353215
1.18127648268742
1.15072550283763
1.22635014156499
1.1657514241591
1.21023727412547
1.18544756995479
1.22950624524378
1.2315203824969
1.22952242331132
1.17893759471835
1.15920537791037
1.20162073303004
1.26951043956902
1.21597996491374
1.32790800609935
1.1775651693769
1.20746690807629
1.25603361851695
1.22802171083736
1.17160758662777
1.27441811884059
1.24667758134427
1.25482960114927
1.22807026919023
1.22443760954477
1.16226340888812
1.27704153901384
1.29054062471536
1.29971168460217
1.2836401612589
1.22891414169555
1.23410844539729
1.25919442413594
1.18320356676121
1.3403405955524
1.23989244163869
1.22813183707039
1.25623788599335
1.28085315366084
1.18282970637715
1.22551202734798
1.21799859741119
1.24746890880522
1.21944753146489
1.20815051709946
1.24041825699108
1.33833687140467
1.29681490951588
1.3090617936282
1.3646665893523
1.36698971760795
1.23323796530011
1.26831535856218
1.31146988954026
1.29988528417238
1.30098308658092
1.38496304849739
1.32414296116932
1.43721111474123
1.30518871796218
1.32707211915157
1.28419312672047
1.30700470158996
1.30945791519318
1.30073748895577
1.25249301581106
1.27984870599748
1.34529066907719
1.35851592307418
1.35674093583802
1.30837830157789
1.28241989679242
1.38134437825992
1.30115500272429
1.32342613443719
1.24697042589148
1.30496730329882
1.31150450529728
1.32861003151503
1.34364858637731
1.27186236970454
1.24422761459042
1.35693938386631
1.30528432524476
1.36573745786193
1.31113728107772
1.34898943508959
1.29877472985562
1.34413079049109
1.33619577945733
1.35311174825097
1.39209609351231
1.39531412568684
1.31982165289089
1.39449631564539
1.28096025827826
1.31910857146335
1.32656597952651
1.3688212538041
1.34699106123516
1.33181389341645
1.27297948736879
1.34578693854421
1.27646342845759
1.33997434738674
1.36725090226275
1.42070391045128
1.32463220410348
1.35840026238294
1.3119522154543
1.30537525686262
1.31487343463026
1.2999934105906
1.25149293834861
1.3174354654219
1.30939658747958
1.36630700064371
1.27201163261585
1.27736220801903
1.24368350494551
1.3211615721773
1.30542123998634
1.30441153536277
1.31027312059592
1.33321153759038
1.27655940201221
1.33361770708411
1.25084105891198
1.35736902984279
1.36782926192565
1.42762110494591
1.27589531464269
1.36051408655575
1.38734807695608
1.26318777173946
1.25600883823484
1.32858570372773
1.29802326067251
1.32866128829438
1.27259670908042
1.33701217249909
1.28313921907218
1.29131124071338
1.26808844482569
1.26887652441072
1.239188185697
1.25989995239897
1.24745412423539
1.28187093693725
1.25892481118288
1.31810625783648
1.29268155163368
1.27889178110013
1.23345733467373
1.27520228440219
1.22382753509053
1.33314855817613
1.308473132627
1.29215501629271
1.25289447897012
1.26427048867165
1.30926852461737
1.35025753802748
1.22911335415867
1.25179211264812
1.24047347469022
1.21141497348882
1.22601295232908
1.24431937282393
1.23893686926657
1.27911845229208
1.2938176716563
1.26404145719098
1.1771928055504
1.2574208749212
1.19350451747975
1.2593884117324
1.18817047754081
1.20812052406505
1.23442112814857
1.19960660345281
1.14096645671956
1.17292988953489
1.19071641890799
1.24093556874873
1.21691447729875
1.21962277744501
1.22068215044899
1.17165448353938
1.15934110960808
1.22965651559662
1.21036729040046
1.21283940171612
1.1492117714358
1.1984538945757
1.13171926495506
1.14924578374075
1.15707510694077
1.18747418428645
1.13108337547505
1.1891068795659
1.1306193315653
1.16478917536161
1.08522041607853
1.13324100779837
1.14711756301404
1.13178553601807
1.13009612598548
1.13479363724232
1.12401886323229
1.17995055286542
1.1664369008005
1.1063692047733
1.09053393154582
1.12531376769189
1.10599679871886
1.14123765772668
1.07854278638883
1.07786419169271
1.07810251265962
1.11568934294526
1.07836635863546
1.06017482242015
1.03679005604923
1.08017794676601
1.04625537222637
1.02224814419161
1.06194584134832
1.05774212856081
1.04105853901923
1.07836532104766
1.05124012028629
1.06150575989652
1.01989270953391
1.04549304773132
1.01903831080413
1.05854276643756
0.977249508454457
1.0323844621263
1.02627458004477
1.04318264083603
1.01193024938212
1.03696379114744
0.988365987737234
0.964210914753969
0.984599550692055
1.00352434104443
0.965926716193055
0.998987140972014
0.979045031075717
0.967522430123071
0.96389466957094
0.961854848883968
0.952885467647427
0.957243374576477
0.95549510587604
0.961488536417491
0.93322504817648
0.95289266744691
0.926924225024824
0.932569356913138
0.92216694781642
0.947599831009607
0.902244497733658
0.907052251353421
0.901625111871591
0.91190097747196
0.883875340993612
0.887159378505802
0.874909545994621
0.884728350889953
0.885499114397358
0.873240287608905
0.870044521952146
0.859677666325956
0.853692143989844
0.866896342210109
0.863969155965043
0.886573466657117
0.839981730842903
0.842119732370874
0.830135952600783
0.85633798815745
0.816179310258164
0.833453442416119
0.813727966223954
0.833105886005067
0.79505388806649
0.823341080645793
0.797705604586928
0.812006369804863
0.796585780516363
0.815813871104057
0.779772977598197
0.79868489984126
0.797551393530719
0.801338323923158
0.780692244691315
0.775063105125581
0.786448822092609
0.778051933766173
0.754359810455544
0.761005106566509
0.735197752960114
0.767317033479091
0.736813600260433
0.765469943328611
0.74483807853527
0.767875463425857
0.727284987971796
0.746171984262917
0.719371354815628
0.728628668378047
0.73148494776249
0.744021603869799
0.723969854796162
0.716342366149116
0.707009178322775
0.708820474030613
0.709379671226979
0.714036114254257
0.691911374125588
0.719870146822338
0.687909673009872
0.703939644852577
0.678544654599439
0.673389417547067
0.686166356404819
0.686422356007733
0.659579405809034
0.673845732419606
0.670592732039035
0.663487112987829
0.655798161194616
0.669282084526669
0.648540214702589
0.655555157457859
0.639760390408783
0.656823354284287
0.641146611881081
0.64421939657052
0.632678698553138
0.653700676333176
0.636633195590188
0.635426325257001
0.610460345640774
0.621542064495076
0.617940973353998
0.629021120104502
0.616881357698517
0.623814478523264
0.600804303698603
0.609871876500487
0.607953698302705
0.61561128441794
0.591697939254483
0.598552238718966
0.598764388902918
0.605462566255161
0.592854412331691
0.589886446989041
0.571532373049015
0.58635856896807
0.58749545934444
0.589184073049012
0.573933775981448
0.580726749090385
0.579574144260789
0.567533520780639
0.552160875891219
0.571059125051425
0.541619746831088
0.561762290564965
0.550715482897361
0.5543858432312
0.548027854609129
0.541378786446142
0.538465237383602
0.553876332015217
0.535418859992375
0.546526725055488
0.523741827645374
0.529975952445921
0.529774103776835
0.52405511468143
0.508260025538844
0.529523433788592
0.510580696916684
0.522397174813407
0.521212910241716
0.521297089511221
0.4979805546208
0.510698466081088
0.502659280778758
0.509198915204737
0.49547857097072
0.515204640149187
0.499085439998891
0.492805212475829
0.490389406569173
0.498504957066278
0.478965391915967
0.489424984170464
0.48303132626486
0.493324536216671
0.481169244117005
0.490570936852047
0.468271147729361
0.470862814641779
0.465502046416992
0.472446893550273
0.461517832815141
0.471371502253687
0.463458344212866
0.47235811454071
0.449270146145198
0.463429198789402
0.455047806995771
0.4559752546488
0.451485969282141
0.458975634229387
0.451012622968017
0.464386120630737
0.453723691048266
0.455416776833708
0.448397096653634
0.456818567160185
0.442197073103944
0.45362741186372
0.452033394025486
0.44443128624076
0.435709638434682
0.446222899949203
0.427820873125345
0.443962786419965
0.446708849810866
0.447988880773951
0.435246233055176
0.441633023248813
0.435506526327073
0.440102395490506
0.43736538668544
0.444257987714865
0.440525314145928
0.438788043480838
0.439728194852724
0.447734012502884
0.437527121901541
0.449567742961508
0.435024219448269
0.451147164038665
0.44038756673657
0.451853137416664
0.447887256259253
0.458255342186577
0.441001093789518
0.453470324067636
0.461245546532879
0.463257070647088
0.451905051639623
0.459401100887841
0.461650481958678
0.474933516295657
0.45840693127525
0.469586003863371
0.4692673021091
0.473030148693377
0.467952551580736
0.472054699461839
0.46884823931577
0.487517966230258
0.477596497968423
0.489481405452713
0.477604742637
0.485079635466443
0.489386959269639
0.484856682071307
0.47008350760459
0.48501550226646
0.484322741273687
0.506568918172127
0.48747445540204
0.506264261474243
0.503337359297032
0.503410982098084
0.503963853101908
0.512352938000465
0.510997188213864
0.528186769610575
0.520518789525932
0.524919408304313
0.528998919437456
0.54005901045281
0.530877261208649
0.5501819114453
0.53906576543723
0.549762478207423
0.538625826500354
0.552608450552865
0.547230187031897
0.555436089113453
0.547878586810141
0.559565402271264
0.555708511552215
0.578217821717015
0.574907685597816
0.57832305305262
0.556183094352217
0.567795456837601
0.566199307026143
0.567468544478058
0.552705419656878
0.56451927115707
0.5629903655774
0.573536577489856
0.558161006697016
0.572535507089707
0.5656964886465
0.56649743377801
0.553912644422786
0.576085040416197
0.555836330235281
0.568445677720253
0.556000000294114
0.568267840235871
0.56436712886466
0.556511386981624
0.561433460274479
0.565996991839645
0.560087216556393
0.564190334532678
0.556711342309336
0.563477395392963
0.55389606892586
0.566607088228537
0.550282634486987
0.561258089712998
0.561276692352926
0.570885302340988
0.553564927003953
0.56235805046038
0.553645940483211
0.569519381970469
0.55874710017712
0.558899679664932
0.565354921727218
0.580240462019913
0.568302855888803
0.570156536596137
0.549629134825148
0.562148389401897
0.56028153082088
0.573079482102905
0.555534303243354
0.570089601151353
0.556048963202899
0.566168150974367
0.550946288602787
0.568098925788249
0.551492096105147
0.557093356174881
0.552043201372108
0.557884852066261
0.552126459311386
0.552746373285639
0.537244963171641
0.54365870004774
0.547287425207142
0.54308221175156
0.535535371521203
0.541062276414884
0.536560723010102
0.539164402353676
0.518019539552432
0.526790023526358
0.516386008086754
0.524047034554601
0.520112563334097
0.519577857651013
0.504795962323581
0.514434253515595
0.510986795963265
0.510751408482984
0.497374803167576
0.50567289143821
0.486606585463386
0.491603684250622
0.486983637504759
0.491170550665542
0.472598518925565
0.483440920277888
0.472082886257784
0.469158730924251
0.463572233676812
0.46289310254478
0.462477228662037
0.460360053693689
0.456290721972311
0.446133217679965
0.440534732637262
0.447770159847711
0.442741112489628
0.445029574912736
0.433112526546988
0.435890226972171
0.429020018000332
0.42915999860274
0.427464542027215
0.432902657586265
0.431241978321692
0.429740978259798
0.423455866231027
0.422222875869728
0.420371509583816
0.426707946130347
0.415808787934436
0.414057504052345
0.408147119774139
0.423463756008155
0.406737339772382
0.409171212122111
0.403491290220614
0.408125594088892
0.405768762117545
0.408967680643272
0.392687855477236
0.404909355062201
0.387744609865229
0.399940052014141
0.39893197874499
0.402049007300391
0.383935351945088
0.393712775221726
0.383896590750934
0.396920854765212
0.382545289360009
0.391936715860272
0.379222674865677
0.386747836640286
0.378972225208322
0.380160747949457
0.376875498756273
0.382779066134425
0.375678217966033
0.371694647685116
0.371498911985543
0.376932802233479
0.372510523838535
0.37119033215103
0.364686661616667
0.368918680154112
0.363248562275273
0.369996787757621
0.360569927267445
0.373044933836224
0.356994005230619
0.368965817494508
0.363048150501744
0.364625397828709
0.353300889000814
0.363154118109385
0.362081670161025
0.360034951915496
0.350932193468143
0.355081681489512
0.350252536746331
0.352148076715716
0.348960027093262
0.356459543244661
0.351534038484677
0.357559313881264
0.349581262988992
0.351634596727098
0.3460566551486
0.352029310689347
0.341718721680127
0.353414080114258
0.342020694314136
0.345107627174133
0.337773780918271
0.344684943197778
0.340230478186318
0.345607226150285
0.343663019278336
0.342497473212988
0.337411867681026
0.344297583773891
0.335241435024537
0.342401917346364
0.337612802796441
0.342025224918805
0.337910319341064
0.336477371125848
0.336347765642339
0.337152153644001
0.32601255101205
0.336167329088962
0.335340815993633
0.331615310251619
0.331490902890973
0.33106832867675
0.324300110524441
0.334134424001935
0.324934750029701
0.33186351119725
0.326198100841465
0.331454663614348
0.323930092671293
0.327233953518361
0.324783079042694
0.327071207546014
0.322199193739721
0.33178324798001
0.319069491166828
0.325856717198958
0.319275000924345
0.325410499531378
0.322421153007905
0.330287860337828
0.320261787388997
0.32060143169924
0.318674530085287
0.325828786965819
0.321661725204568
0.322402646043266
0.317303422412839
0.321686557251828
0.318713435235737
0.31794315612943
0.315062779416969
0.320013991212884
0.316127346937611
0.326170114480463
0.319750432157035
0.317247956946659
0.31625976521749
0.323081115885965
0.315688676637432
0.313675076156849
0.309431111739508
0.319396869913911
0.315075523868653
0.314688090532645
0.309993343733036
0.312915945201267
0.306907997039705
0.313041235557252
0.31279822626186
0.309144351881598
0.308421517646179
0.309719061090936
0.30189650702204
0.30988244343409
0.302405594686313
0.308458651395824
0.300806575223797
0.302613380770411
0.305236435151032
0.303852408584996
0.297098773228657
0.301069009299921
0.302723913377072
0.304419647391954
0.293320786097012
0.30451213650631
0.298190779745029
0.299854532235554
0.297570808729818
0.300418462667453
0.294017445699958
0.301684462356548
0.292173231327321
0.299021065836043
0.290926538267891
0.297286938299301
0.286242506003488
0.292943856023468
0.29138441276731
0.292327107195189
0.291489668604538
0.292826890579576
0.288503130235067
0.290083852203305
0.285619542457215
0.2960200714385
0.286370561782344
0.28883769764368
0.284818133899661
0.287200735265893
0.285237075704427
0.285091679475091
0.28499249034796
0.287091949086515
0.283235022319512
0.283132703698419
0.279139933890358
0.282306053611709
0.274878905333788
0.280474119523655
0.277426596315822
0.282003862701726
0.274645247963554
0.275011617186127
0.273684084625421
0.27985125452016
0.266902587444734
0.274217240833178
0.27192108349998
0.276046256315923
0.267501939953525
0.270816770094327
0.269446151182785
0.271551152431605
0.264972730050269
0.269683789821656
0.266304462286724
0.266899798281037
0.262925712616594
0.264376578399575
0.260142972256578
0.264056127634101
0.256556531488942
0.259606380733286
0.256813805343604
0.258832794393282
0.258202158714263
0.256124918964782
0.252113081616921
0.253322229074793
0.254285362217239
0.254305790922373
0.248699029562603
0.252814710706465
0.253734183416705
0.250532214405598
0.250471356885464
0.248574309404773
0.247424295284638
0.251918439016921
0.247613965319626
0.248482852114186
0.247352078353213
0.246700703225967
0.245881845083494
0.24510253942379
0.246477298450309
0.246434387437692
0.242903128416021
0.24560973381074
0.242129970809731
0.245200276946861
0.238021068634884
0.241761865419523
0.240744737074094
0.24184395470797
0.240054469419063
0.240927499830718
0.238656594147914
0.240819439427398
0.235703427458088
0.240802000795154
0.239079847575607
0.23815616456308
0.231517711625497
0.234628962865903
0.234750298356951
0.234046938534492
0.233775041873416
0.230584091834489
0.230753164252635
0.231983264351793
0.229004776664645
0.228805576437117
0.226779844905213
0.232416813028438
0.232138187580224
0.227686225826882
0.224210865691962
0.228150218179636
0.222826926275455
0.224893798175662
0.223664061030574
0.221410863031702
0.224028135664658
0.223841557107423
0.222022389133221
0.226396312696446
0.221302648854379
0.223550893961106
0.222771285830321
0.225268828732756
0.219713373775096
0.220047857515484
0.219969744036522
0.225578571927559
0.217327925744117
0.223585317540012
0.216623551413821
0.218774996208759
0.220373029301727
0.219505812163044
0.217956181651097
0.217764861176247
0.215686886574522
0.215197927785242
0.215156546567603
0.217431701050332
0.214163610242316
0.21942436960848
0.216016044141245
0.218285033130567
0.214595754052565
0.215703136761431
0.213697860470279
0.217096698115722
0.213594406938933
0.214189140515261
0.215421943509004
0.215626687982082
0.212942813090412
0.213875835059764
0.216472134961596
0.211558405300587
0.210046272631862
0.209325361182186
0.207350356646607
0.209852263291499
0.211104424273289
0.209071973847728
0.209149023149546
0.208727810437535
0.208140172963072
0.20824296628751
0.209209041577505
0.209290003302173
0.208194703229038
0.207259204802863
0.202255553482103
0.205732003020147
0.205542275151786
0.203450170126095
0.203240442848398
0.204162586125426
0.199291723853088
0.201737586875144
0.20036482347972
0.204777149479672
0.199643565545765
0.202578095844567
0.199529094599771
0.199866635764804
0.202502676425558
0.200604195514852
0.199257379793723
0.200196174339059
0.196058164949387
0.19779810369917
0.196304333950025
0.198614687458982
0.195707344239181
0.196897696626904
0.196484287108934
0.198649563621808
0.196136617452109
0.19472023963955
0.194880686035858
0.195628815375477
0.193096207099524
0.196094732068413
0.193960687292194
0.19381307865421
0.193256938946535
0.194377768733515
0.193325839188871
0.195126028992016
0.192601253993605
0.194628800634608
0.193427059375833
0.193301271125243
0.189450259848397
0.190588371421073
0.191734260542714
0.188979814984674
0.190647225174702
0.191496562418597
0.188294523454775
0.187956802266498
0.186132146578264
0.186929349680627
0.187152738534535
0.189230872360598
0.182216400004393
0.18200765475712
0.182943239034613
0.180748409561219
0.180031200969547
0.181261516326914
0.181915329912401
0.181236674975239
0.181424303444291
0.180909813624823
0.179774363205198
0.179187967255978
0.177244590977917
0.177976274246309
0.179192282909721
0.173717181976758
0.175038022819119
0.175293303327779
0.172096730413513
0.172917381362669
0.175925914906176
0.174843356759324
0.171927190843427
0.171179311297029
0.172767130009097
0.171905678274876
0.169971622166886
0.168503861468679
0.17147765511038
0.169757453933871
0.171079972948321
0.170523397018942
0.168757561046085
0.167654891801769
0.170352455753557
0.166814914801865
0.165009885215305
0.163848451118851
0.166369114909653
0.167640791414425
0.164315833878599
0.164064650869863
0.164820279331749
0.165093472670189
0.162987799345212
0.162879868159598
0.162412673922373
0.161169554974748
0.162597268307118
0.162332151093323
0.162346980529085
0.16193427869441
0.160226672997823
0.161820133311341
0.158193152739575
0.159418972660868
0.157377637528284
0.157425917418522
0.155389960510491
0.158857383167893
0.157066375434093
0.155048421149073
0.155165922413558
0.155036189332481
0.152092714027924
0.148799598957863
0.150441040386543
0.153395173495767
0.15179691271538
0.151805590651496
0.153373379352698
0.154264984897885
0.148892270042063
0.148171843059143
0.149963584283035
0.150624358672747
0.150527709223298
0.147829204167633
0.146578265768399
0.147821698705098
0.146225831757988
0.147048773261244
0.146018558307153
0.144562110613882
0.145030860452477
0.145919255000199
0.144891252348616
0.144772948731731
0.145422195397363
0.144585709172433
0.142450886216202
0.140704656306283
0.14492623427105
0.1421348690879
0.141689416309374
0.141364249515421
0.14012111107923
0.140580619439022
0.144271126823544
0.143174670590084
0.145754211814437
0.142360742523361
0.142424438864555
0.140276942675779
0.14404660278369
0.14511085185129
0.144056281265061
0.140298851400233
0.141818129287223
0.135785654006272
0.139687515532152
0.136044306573351
0.138824139180072
0.13628155603786
0.133182410254802
0.127349579275753
0.127250547126715
0.129783879176681
0.136983606045253
0.13311844868138
0.129379159810858
0.119805996079759
0.129764211105621
0.126082134873686
0.124203582649046
0.117834869581247
0.131465100451792
0.124157554716466
0.124135572090658
0.120821109560457
0.123270103087763
0.123183595451682
0.124879389316398
0.121961628319754
0.127384225015856
0.125188709203726
0.139689459100912
0.127182125370838
0.132308205977423
0.127517892264638
0.131386528121744
0.120085330029325
0.135432813787355
0.122305743504102
0.131222714983013
0.117238139617837
0.126892045985691
0.117061409869741
0.12869942309935
0.11710139145694
0.129258977954087
0.113311268807919
0.125849180301062
0.108937934844325
0.127318092463303
0.116110270204008
0.133986416005567
0.119312419695143
0.133946234083673
0.109708756805205
0.120844878495788
0.118328455345232
0.136952590932115
0.121785036015336
0.124274681425118
0.120042634654237
0.130467156292796
0.131136153633195
0.119690884351317
0.131333158884206
0.122843732796469
0.141843367073755
0.109917759756329
0.141688680582392
0.113811269797199
0.142137404198744
0.112603118199857
0.14533110539712
0.117629321975939
0.137666364590993
0.121140474561607
0.129808726467097
0.125558275243078
0.12915196480636
0.124156561168602
0.124321983559072
0.125774360172022
0.126540976310944
0.122220632387385
0.125002368016052
0.123583734925335
0.127471147033523
0.119772230876192
0.127084554653975
0.11964513587717
0.123363444165192
0.12061076254128
0.124575663979184
0.121478919248885
0.120514449708649
0.118609257403527
0.123140358274436
0.120154701914279
0.122638216632629
0.11722751459014
0.121855728215511
0.120051122143433
0.12178666179963
0.12031438809942
0.123035442649083
0.119370595176628
0.120942266502431
0.119431177294965
0.122445913665567
0.119067694542505
0.121254082961127
0.118359735182342
0.123436981667981
0.11980487044426
0.122411466715734
0.119663938873729
0.121871327271977
0.121302959151295
0.122348543175373
0.120115398331889
0.121926868122385
0.118949409824874
0.125305621430925
0.122718995837016
0.121961728956709
0.120192579574996
0.12121493587705
0.121502687683467
0.123401101315531
0.119566165513442
0.121694746645209
0.118077384472646
0.120336678673781
0.117957097689024
0.121469757936628
0.121494270624275
0.120287528596158
0.11979542102433
0.121426914342192
0.11870091967876
0.122096144593369
0.120168766985343
0.120760274297979
0.118631099194938
0.121001371884041
0.120554559528146
0.119594174963182
0.119816066689889
0.12248860814204
0.121505435026719
0.119974416377307
0.117935886910291
0.122301316139723
0.117780871371214
0.121963092833727
0.120142583437581
0.118899503230574
0.12002025976324
0.120538123603196
0.120229901973181
0.119803321530182
0.12069837489353
0.122044713551327
0.118132573490398
0.122001604804019
0.121529805448537
0.119330096905668
0.118555742027386
0.120223160240274
0.120104381313765
0.122360281441922
0.120987806926398
0.121541307255715
0.118678208467494
0.121158599624313
0.121217041848371
0.123643410965522
0.122903589609412
0.125162352807684
0.121830478191081
0.120456288582472
0.121308369558909
0.12237286856821
0.123062065456018
0.123319415327678
0.122170838866905
0.12271534692332
0.12290712636553
0.122321413822491
0.121329999561332
0.123877905250514
0.123240398028222
0.122361678020978
0.123510141649129
0.125700139365459
0.124060380800237
0.122842985527032
0.122625650117453
0.122975280021211
0.122319550059349
0.123963838351768
0.122861052909279
0.122218247677804
0.121451202511428
0.124784441536312
0.124265679502698
0.124023081784743
0.122977142116286
0.121068996921019
0.122739386594708
0.124566772417205
0.12214533500799
0.122890644168045
0.1234823889856
0.125257077388334
0.124762587632519
0.124323723729418
0.125327305122777
0.123598720691641
0.12303645258212
0.124911255998272
0.123771044771845
0.12538699317258
0.124819908321656
0.124486100871701
0.124231895204644
0.124858349549353
0.123125005634562
0.12477425517488
0.124854357125117
0.124674467406898
0.127186669681115
0.12629247701567
0.125848827016162
0.126644476802759
0.127851798492426
0.128780680977765
0.126024128345284
0.127214877316688
0.127909561768656
0.127070611662331
0.127999834705633
0.129671477626862
0.128898386793489
0.127573074639941
0.125756816634119
0.124625606254793
0.127993445014504
0.128690573145289
0.127150491124687
0.128211927881608
0.127478408339556
0.127707407650225
0.12711674424991
0.125384804235374
0.126014059469131
0.125764598767166
0.125311073804665
0.126749408674755
0.127070018984008
0.126254779185137
0.125214855771248
0.126311487299977
0.124842480804199
0.123769713853296
0.123559972558858
0.123185945542649
0.121406844182774
0.12218872288006
0.12270517165271
0.120338190751713
0.121558060850533
0.123588652159447
0.123326875515434
0.124204491522822
0.122534842800724
0.120751149655974
0.122091992967881
0.120098565526831
0.120717151967527
0.122413819299375
0.122176367002803
0.119504984908478
0.119505688853068
0.123534336992622
0.122083602556315
0.120601683919517
0.121041562853578
0.119239088449091
0.121290525436082
0.122091757131338
0.121190754990176
0.11880770753589
0.119512932805914
0.120628463013756
0.12042195987451
0.119501409054011
0.120542483817271
0.118689973793337
0.118742008618283
0.119121505086087
0.11791848231839
0.118104622889679
0.119370020450555
0.118780159665839
0.116222446496699
0.116084248655962
0.117872943838253
0.118290559421659
0.121540193072227
0.119123478348066
0.118272346967083
0.118408181323348
0.117115416854063
0.119608082966803
0.117869919999342
0.116283188246422
0.118484480834219
0.115778666290865
0.115957941369118
0.115904444882516
0.115950493924202
0.114729919725559
0.113188942678863
0.115091272216563
0.117295106319924
0.116927380804292
0.11519532995378
0.114010960350155
0.116694833383202
0.115484588976227
0.115184952782457
0.115180243046277
0.114629247238273
0.114227408458042
0.112972141914612
0.112487172978211
0.117002472187692
0.118019529819726
0.115881781884415
0.113936539276686
0.114973066124322
0.115590700941777
0.115159228997673
0.114895791991543
0.114032294803561
0.112278699511167
0.114577431910739
0.113927220117153
0.113354032234943
0.113384033337143
0.112817916676312
0.111970112299363
0.112711501492797
0.109543887649387
0.110447463736664
0.110851312824921
0.110864332525357
0.110270078538859
0.110217314096636
0.1104349631889
0.113796803591438
0.110438568182813
0.112868503883626
0.114228920699314
0.110839852510223
0.108771673487643
0.110930630451405
0.109786189219323
0.109611467912627
0.107897228668181
0.109077420686899
0.108811626935529
0.109046987692539
0.107197384612015
0.108487781283263
0.109539220084136
0.106523071382446
0.104518075547596
0.107308540539918
0.107484095276285
0.106728861492247
0.104233193094581
0.105656151146465
0.105418994771874
0.106421304718182
0.103409111735014
0.107125300769704
0.105228274769266
0.103655240047449
0.107469815873727
0.104756061373811
0.103079168239175
0.102023912929431
0.100552752433275
0.102598586727877
0.100368661205657
0.10192507433643
0.0999076136165222
0.0992769937664252
0.0994054336288322
0.100184121233769
0.100378015718224
0.0976303363765748
0.0994502569587918
0.100223940426969
0.0966804949578024
0.0984234746021454
0.0969741305956624
0.0954286566777048
0.0949515023206846
0.0983058143825094
0.0984905516433065
0.0973903612521588
0.0958582367248132
0.0943240107935822
0.106480432744732
0.106991649310567
0.0980687746291599
0.095501346483015
0.0991644356896407
0.0987455664899645
0.0944732570689367
0.0953261705736976
0.0951050706440175
0.0944881843307482
0.0948147825711481
0.0962937103678948
0.0965353549723231
0.0945573785202124
0.0914855817037624
0.0936504820570995
0.0926106834583716
0.0940818247996763
0.0940161366023574
0.0928814954863483
0.0921079388126911
0.0932653483222157
0.0914407298098458
0.0914404392902393
0.0946001993506002
0.0899991135922244
0.0909255223474275
0.100327715661746
0.0946898387676561
0.0921943784144864
0.0909415287227235
0.0925811693453044
0.090176755918093
0.0910279025655965
0.0884138113231666
0.0898071439553604
0.0889854283991745
0.0897308845051025
0.0870860297512952
0.0889018511329214
0.0892754002379614
0.0895630877068159
0.0850272590021989
0.0859489235561431
0.0848002671664201
0.0867761537790596
0.08693534293055
0.087585303544205
0.0845575663665883
0.0874813015350292
0.0871338304389204
0.089806987186375
0.0812359148357422
0.0989444315882471
0.101359786736118
0.0932591110964685
0.0843714052562919
0.0849574312305532
0.0834956402650512
0.0859488960818468
0.0835421361083406
0.0852210818298831
0.0833983678482915
0.0853527050528571
0.0860134038628566
0.0861175824194994
0.082197470322159
0.0857321964333925
0.0821084667940147
0.0848082986823155
0.0838985665407755
0.0848936026951159
0.0830270636589839
0.0808598755336675
0.0916693709394955
0.102381543668692
0.0867269176671863
0.0875446827227038
0.0788214400228716
0.0877372732145043
0.106555283812942
0.0902890901216044
0.0836145676558699
0.082769309184004
0.0832931128609351
0.0800165572785146
0.0836671109806752
0.0788754207545425
0.087554440631312
0.0854275170940643
0.0849578451875539
0.0856918012944073
0.0817999731922735
0.0784055757157431
0.0820154320275481
0.0820197354275414
0.0776671979203286
0.0810395643751275
0.0805986892044789
0.0805868239149594
0.079671820801098
0.0790530594476744
0.080576699582436
0.0772522495305693
0.0876357036697588
0.0865490088246919
0.0803277836976416
0.0786778970492256
0.0790916424786998
0.0740169790672147
0.0936275611523136
0.0914984626810181
0.0844955598018129
0.0800454343595004
0.0803956798498408
0.0821574849811135
0.0807661375633915
0.0794140223129444
0.0773865113362519
0.0792322234085021
0.0768803626468934
0.0794383952885214
0.0795495606491674
0.0803878069362561
0.0769416146540327
0.0789009014540512
0.0746507051228155
0.0790646024612232
0.0770493341367438
0.0795038793972565
0.0779240788853285
0.0826647664676889
0.103942850971835
0.102227118210708
0.0998485127536193
0.0892834327162966
0.0867485866924833
0.0773008081061544
0.0811710662633491
0.0752239024115483
0.0776601191111492
0.0772109205318303
0.0793958939261046
0.0787069521029021
0.0806143906240637
0.0775468562164211
0.0780436139000489
0.0758903463759427
0.0782870711872958
0.0745130570621352
0.0772398007712503
0.0756688365145964
0.0765829694549219
0.0774346569918903
0.0766112101070234
0.0868994737521128
0.0907206265328702
0.0815325116544315
0.0778066121702646
0.127327338362235
0.0950988675478406
0.092757738398538
0.0777585927861226
0.0816215835595834
0.0748853887657528
0.078281629803505
0.076101551817938
0.0848199002278637
0.0761990475327063
0.0798992211218726
0.0760092325235391
0.0835026202365774
0.0759433461614802
0.0767195386882727
0.102299428228024
0.115723785295823
0.089422950708832
0.0873668081344988
0.0709018975490023
0.104201742091734
0.103287476690171
0.0850073712751753
0.0826206798920074
0.0809004297713449
0.0819545528674516
0.0801660071701216
0.0809295516587532
0.0795537850111982
0.0861614872346601
0.079412314666294
0.0828020948609901
0.0777710859212005
0.0793379931275047
0.0857521306335829
0.0833884155847117
0.0960245537759233
0.0906637971056214
0.0814013018266232
0.089175648808539
0.0855224717017367
0.0821863422823912
0.0812057388773233
0.0810435290888358
0.0790566022404961
0.0969071441096599
0.0965333082209271
0.0938884620749098
0.102108974440443
0.0941487241560452
0.0867441353304898
0.0882122686424641
0.0957080942152672
0.0959533581184592
0.0733889560496503
0.119268568045879
0.102680206769038
0.122918453966469
0.0966194472819213
0.0937940338308136
0.0830298383599818
0.0879433317535513
0.0781471342772916
0.0911377245661659
0.110710369490965
0.0887790869046433
0.0929114912997767
0.0762078283464135
0.108690217825957
0.0956375948254203
0.0987464346652386
0.0904267549999066
0.0900807618859092
0.0862358885847518
0.116186261618154
0.0814862491273408
0.100873619368921
0.121616552309579
0.127086933590229
0.126601527558209
0.0886324464834841
0.104497868332113
0.125049821197444
0.099676841105389
0.100058913311466
0.0868464941856702
0.0998414132202919
0.0802652204257728
0.117116115789173
0.126795241550989
0.0993345537171383
0.102224387547454
0.0959274206404666
0.101824498966566
0.12702180823831
0.107489554001052
0.0994168752514102
0.0977701660815711
0.100147134260404
0.0990723956574511
0.173135207190117
0.107171435988493
0.143275777860122
0.122216763686117
0.139972481293806
0.113606395184815
0.122787468319714
0.102612175936659
0.135064237614179
0.127755834707576
0.117101313083968
0.0982685801459598
0.155468662509723
0.12699736971384
0.126249454736008
0.119644907390431
0.115575897344985
0.120581794355054
0.188403434570301
0.184847739966778
0.163808508487896
0.121645023979481
0.143092027328919
0.15548282437995
0.134682071420776
0.126882154732688
0.124622385781905
0.126673107368665
0.127360887437123
0.132869180138017
0.147650618012665
0.129906926548132
0.14984539183292
0.128231182709749
0.154287322535028
0.165383882562208
0.227596543894024
0.170519715256775
0.172212138592888
0.185017497185882
0.175252605588098
0.165687703729518
0.150776706516915
0.153611683200616
0.162421189828122
0.16235174057441
0.160096411803134
0.158439687038556
0.201250402466226
0.167693916539461
0.213961995476919
0.178389258022962
0.185551728391906
0.173953900963617
0.233130832436488
0.337828106427032
0.217271374393463
0.221311184008203
0.194660941757991
0.261229973565245
0.256051576452745
0.23447970563608
0.218552759495592
0.222326100963654
0.222054990104324
0.243099827127771
0.247504370359268
0.258871970822312
0.272557701940489
0.260404559573483
0.258235034899264
0.306966518735954
0.36756986368795
0.367607234270498
0.304590212581714
0.30149866193974
0.322090089689391
0.331390714502335
0.31026830446621
0.33075208105169
0.308222919446291
0.375458652572247
0.376401982191307
0.368529538425644
0.348859390520373
0.385156795399558
0.393506946814787
0.378597358869435
0.470184921485457
0.417045370434154
0.429808506497275
0.396114036503139
0.432421444404624
0.408563640071358
0.432649884535517
0.461135186950021
0.462265428660837
0.454266529465503
0.461342292198022
0.454043893587996
0.464226770899812
0.474157770712385
0.479845082781529
0.485620374320287
0.53779072501412
0.561294457494172
0.723889583223165
0.508573334153826
0.519623173206876
0.482862247745321
0.5307447452571
0.529895264658971
0.541581936579616
0.587116436555367
0.538278932595311
0.514054577969519
0.506265411365069
0.512065528950549
0.512485427580358
0.514923855291607
0.523010127046314
0.508982596500295
0.568921748304702
0.498082073963168
0.628391154052846
0.572415393625642
0.555617444519552
0.512125740388633
0.523107141305801
0.502972423289622
0.533030314307857
0.497207110586233
0.550070234507165
0.530383908645177
0.521705852935664
0.501012390504107
0.50288011867529
0.550605451985157
0.522399765174023
0.48895016079986
0.491952937787029
0.473732574345016
0.4935220756956
0.451193048842902
0.51701093819397
0.517520874161658
0.48268644454221
0.462600860736986
0.45959892217931
0.448921355183086
0.460366497162054
0.441436543590082
0.469086591513195
0.445376114525329
0.447379571766189
0.448508329135381
0.443087136958302
0.438752281023263
0.441457823662239
0.442150050503481
0.440791305744223
0.444030751426768
0.434007685561143
0.433740049623223
0.437464120750213
0.435324580914022
0.434635718850286
0.436024957919322
0.451297786173849
0.437993007577661
0.437814946295267
0.432989959062152
0.436780968260584
0.434377780625753
0.434982262898421
0.433135730038728
0.438199112096458
0.435860010597439
0.429095083021688
0.434131129657548
0.427741548010131
0.431030648530358
0.429663797690593
0.427951604676952
0.422267325546652
0.426357639621061
0.425519369089627
0.422139086779578
0.544593900226651
0.438011690130619
0.439422287551478
0.411655401735228
0.425383470942702
0.401682771636227
0.421056977673023
0.478740788450657
0.441354021924487
0.41476650210039
0.404099286003922
0.392335732240565
0.42811543130562
0.399572334752194
0.399130179085216
0.395094677733875
0.377714715523751
0.485598087071638
0.451352815676747
0.558782007577058
0.475910586076833
0.417830633427112
0.369061467862591
0.426072654740268
0.422874787668375
0.384809425917983
0.374759549379953
0.366988275928866
0.438739336913976
0.379425076090878
0.376044577142428
0.362679347753607
0.366357754711605
0.409903936697629
0.408807731930422
0.380546268651878
0.414986158968923
0.394816821795907
0.393797840415013
0.42072438927233
0.451566466289339
0.381792783595454
0.34392691042256
0.346972058661619
0.338168131568007
0.359926024771392
0.405476588462572
0.340762421345939
0.364156030465056
0.312332557580447
0.331520577220242
0.32336822983681
0.366488269452608
0.319030852815031
0.356102995628085
0.34829405840583
0.316467007893443
0.346407705922203
0.337290746500176
0.394394544519543
0.374227969549024
0.325722521529232
0.29412621033983
0.378630161930152
0.340558008832865
0.324473498459128
0.324222208169074
0.283493616717192
0.316634516960193
0.31864534994308
0.285771870469658
0.323415284073404
0.313585604012168
0.338583210551546
0.364225549222011
0.383463601978292
0.354881090679002
0.285072422901193
0.27467970170528
0.27352618866947
0.278619200523975
0.274027541970897
0.258201673181525
0.334264024781688
0.262334367204638
0.297056765348592
0.326335686489709
0.282520795781375
0.276643312783175
0.280520613964175
0.272990111622177
0.291676534980425
0.323086370759296
0.352163233058856
0.297008950515542
0.323095455856037
0.314358013445656
0.305351215298351
0.297191920536339
0.299017755295758
0.303079153140328
0.309667831524078
0.3287913606995
0.322405475169584
0.320894714827742
0.330421699207729
0.324052346003676
0.389440412172515
0.363598924408873
0.355256885374873
0.408711133993484
0.390469675152914
0.458613285479417
0.382923034247606
0.39472795738816
0.384039239010762
0.399903851805278
0.400490260705801
0.398117797240355
0.432211029489079
0.451664100311802
0.421663839920223
0.434187248416416
0.424566902129081
0.434917791571564
0.432688461296715
0.500913558702636
0.453146778710112
0.586001255603152
0.494561762875355
0.500479980899315
0.459776484345468
0.458985609694937
0.471170885789339
0.465730201400792
0.465009200600831
0.459731891146916
0.475704997479218
0.507518736198398
0.472563113566975
0.482678811846992
0.473828946156413
0.486367509597683
0.477215521707483
0.490177148785646
0.49423484195749
0.489869088239541
0.500830364792287
0.492742008741991
0.51256837959524
0.618135328176697
0.517561361334485
0.524989489581614
0.512681371637161
0.529104130400409
0.509561605121776
0.538411769915711
0.555189964148501
0.551049146196027
0.539649010496371
0.542562477016462
0.543560007143476
0.553802600453589
0.562107261453404
0.574509066375191
0.554139267461006
0.583285587133368
0.530151154837111
0.656272339732889
0.602707296998859
0.615293686971617
0.583586748252097
0.587990072624981
0.57893997671715
0.585260549007569
0.572873645599078
0.597482594542244
0.590058699508886
0.587856417214554
0.590870283627728
0.588634108073369
0.595071248162502
0.589763538750791
0.588158597554504
0.626562149440518
0.596323187098909
0.583916023924076
0.579355673207938
0.584155993366444
0.580732696402958
0.630801068792773
0.604851504612526
0.608491526076568
0.586015393739652
0.604784907234952
0.621132551985297
0.61068462255972
0.582796242098264
0.598966109055425
0.575289979333204
0.602168654744295
0.571437742292111
0.616876191487404
0.624044505196693
0.606290073855711
0.595256603435302
0.605500879812405
0.595009905523007
0.607019684127901
0.600427861781883
0.616310607830316
0.603843090440399
0.617882611549888
0.62303693341542
0.613308062852607
0.612304297738001
0.636413400426324
0.641239746900527
0.636398601204528
0.608415374937471
0.615311536037967
0.602874314826769
0.61623796702221
0.609515394717118
0.614012844741613
0.590515683797274
0.604239558925208
0.584697144457329
0.600664513133735
0.624721386611095
0.586433542296278
0.609589568347161
0.575418028522132
0.571509105268771
0.572239042412398
0.568885283770767
0.555898144551765
0.55599347240874
0.559953211324029
0.548766970767456
0.553266850972734
0.546118324728486
0.537881225951083
0.546218459524543
0.54816456238387
0.538208606740868
0.541605091765547
0.534666853978263
0.534827010850695
0.532277558076513
0.540038911513678
0.537148287547187
0.528945356561153
0.557094363511346
0.554908458297373
0.556326474097485
0.538858374075987
0.538958148983338
0.53942354911046
0.533823536752753
0.538662219537752
0.525813700428693
0.529930322295695
0.532713362706631
0.532309503659064
0.52840156004089
0.536811141681443
0.527504213597221
0.528325591620369
0.529754777313536
0.531353054242025
0.52222912462877
0.531306988501717
0.523636820527418
0.526692079506772
0.527563952197027
0.542786222044706
0.520436359853489
0.536091687975171
0.530272126942279
0.531572713296245
0.5280119242294
0.533792482857899
0.539943681948027
0.527487776651249
0.52492657370179
0.528501760761967
0.526679188647433
0.531080899337221
0.519867737802673
0.528618499925309
0.522610941223666
0.524909391511908
0.520303047661214
0.520294458608912
0.513252539214057
0.518671202413289
0.504884824562227
0.506226318460811
0.501554218369545
0.501296128481321
0.496840317051029
0.491831867080601
0.485241997654243
0.483446775206744
0.476834026491319
0.474284238163765
0.474410696903099
0.475336811480132
0.470713382535836
0.470014277403896
0.467643378862006
0.465223843008922
0.461030208844163
0.46865858829117
0.459953416181477
0.461261810955976
0.455328077447063
0.460392759786134
0.45837301989183
0.45793899046169
0.455886027320222
0.463098934164503
0.4568419795818
0.464854607299954
0.463966339414615
0.464752139246517
0.472034106456484
0.471632621878265
0.469607244408486
0.473973604474863
0.475048204357227
0.471715940333986
0.476153536975761
0.478808917485257
0.483002093978835
0.480247077357256
0.477817678967236
0.484303585438966
0.483753601344473
0.485624418671732
0.485198491144501
0.488376891829457
0.484050958989911
0.487409452420258
0.487888369235964
0.483675940464719
0.483438800252926
0.485032347067788
0.478761557953877
0.481335311760605
0.482764319997237
0.4797817900435
0.474310696872183
0.477238539819757
0.47622040206456
0.477495591266859
0.471041223025356
0.468872380928158
0.469455642876872
0.468075618236362
0.467398579157533
0.463950023940558
0.46563934231041
0.461915522615182
0.46112544781034
0.462676173904093
0.457087469818948
0.458209625185812
0.456111277915144
0.453543817915608
0.451071851629895
0.451209009233318
0.44881030748206
0.448849661224984
0.448725830193617
0.449847629872595
0.449764379701927
0.445609219249515
0.44202703545155
0.441339004391832
0.435992347016368
0.436881453100183
0.433762912596003
0.435782318514676
0.431013972135749
0.427419376180148
0.423665157442898
0.42100976921524
0.417277643195996
0.417223334763313
0.412400633180223
0.410306783867277
0.407284644428952
0.407057351443635
0.403432092574762
0.3999466850999
0.399051772242277
0.399469281284764
0.394634549437419
0.393190269749319
0.388381570450523
0.395174805606746
0.392047486265921
0.389719270581176
0.388453766818413
0.386686298063705
0.385369814930304
0.382445457208451
0.378023590433408
0.375108400952481
0.369184079632531
0.363292572994782
0.363041451177887
0.358254032969198
0.352000664951458
0.348915383449276
0.344082290303774
0.343755251194728
0.344091739209839
0.343835036735103
0.345573524209773
0.349740382347204
0.35230759348546
0.359988195819032
0.362544877323645
0.376571571503205
0.387365666317957
0.398029183602736
0.406328725436295
0.422057822710009
0.434274207095215
0.449455453863874
0.468158445189676
0.485315858329286
0.49782792700946
0.512521386212112
0.526996549087153
0.54527310277743
0.561404952396188
0.578867025531259
0.588052057922489
0.60200879944499
0.620367579618634
0.630664440821682
0.640811528217067
0.65927946645219
0.666223893614846
0.67398989944317
0.688990857502883
0.695422369988186
0.708875465010942
0.718196906022761
0.721402134768457
0.733877949549459
0.738675018300465
0.741396291319873
0.74708363359099
0.751534191805757
0.745402906594117
0.742749727489731
0.749219560362849
0.753998356384113
0.750039919939864
0.753056983637047
0.748118805714659
0.75183298284456
0.75447339924084
0.761180655789923
0.759108993966948
0.761753023967471
0.763760782960207
0.766966483262312
0.77373119484082
0.785131046336381
0.782652514094098
0.789975224055318
0.794852934199644
0.802894424748705
0.813914424625867
0.811318519508407
0.828033247992459
0.838451215111353
0.845882448025805
0.852082026070623
0.867952556761657
0.878720556365241
0.890027212827737
0.899010685621464
0.909246394149656
0.916724762233998
0.9317085138937
0.942050743792844
0.947248540047109
0.948147940177701
0.956882082814847
0.964108112915472
0.952472019364103
0.956395587584868
0.952152882874102
0.947960309964269
0.944194493740745
0.933265326400044
0.930672975482995
0.929972315967946
0.934689604573455
0.937836296912233
0.950253891349543
0.953649775657179
0.970012219561053
0.976184916501368
0.985780283665917
1.0017067529737
1.00814573992396
1.03488972565935
1.04066125426339
1.05825228917594
1.0653476219363
1.08738895128148
1.10293603892402
1.12548269139174
1.13208155007615
1.15095611986075
1.16371324694144
1.16673623999028
1.18628453441255
1.20552483142853
1.23048599888963
1.25784008287796
1.27075027147261
1.29566643657117
1.29948436792425
1.34002485878178
1.35522555668634
1.39569569791027
1.41149409378816
1.40326415024733
1.44629592942514
1.41562947773245
1.47130180801347
1.46669242959592
1.49489853474372
1.49585180736067
1.54221497767224
1.5860725281073
1.53773382827836
1.53363229810488
1.52892531440045
1.50083954806019
1.60442006399747
1.56343594362157
1.53984408878687
1.52606140993238
1.56800076890537
1.53795244631519
1.52915963109073
1.5147473887408
1.53282269810737
1.51468079516296
1.58151153364622
1.5650876263002
1.55639998022592
1.57659761247087
1.57784067589829
1.57714382295675
1.61890306526577
1.61043881170318
1.64379192513751
1.62942943529035
1.66679914326937
1.68727928262541
1.70347536474182
1.63258909123581
1.60497865413951
1.74306291692364
1.85704659854078
1.76226789363383
1.76732743188599
1.71904623381509
1.72645270841376
1.75153515452833
1.88333934632095
1.83743605643399
1.74636220376746
1.80199392736893
1.8321173946208
1.74927602050918
1.77078245637065
1.83698434873516
1.89858598930544
1.7733274188729
1.89028898790463
1.91942581157218
1.84494203044664
1.82503382829528
1.97908290543627
1.87056249171502
2.00944605554263
1.91040957487017
1.93246181331266
1.81347273866986
1.78429839127879
1.81438141436505
1.92807318973871
1.7911103655104
1.75735542126792
1.81553854313819
1.68063131579302
1.67388598873549
1.70024647565427
1.65804964438059
1.72563960234111
1.49822619558571
1.55797042383423
1.48152257727402
1.4925351040736
1.47833582563702
1.45804598271634
1.44339686574983
1.45483805245552
1.39369196080201
1.42497092246997
1.39471546051462
1.38050168918406
1.31025921483236
1.36311475263838
1.37078773799054
1.33917213456393
1.30823628012805
1.364442765366
1.31656467393499
1.31730679565024
1.33507184492613
1.31704158635302
1.2700213610705
1.24439021723696
1.2270883342589
1.23993153171534
1.18926716011406
1.1831949348045
1.16924045249018
1.1395258950181
1.10181365423523
1.0516232403552
1.01638424087379
0.998333777985996
0.965079958879805
0.927332601472473
0.88035327961281
0.845485296820165
0.812310213864362
0.783591724289352
0.751330408247487
0.728396890524711
0.702070715817958
0.68293710345728
0.652379058021828
0.632261934146074
0.619464645154552
0.600903042695048
0.587563418505741
0.577636345955628
0.57321936434165
0.565738623686809
0.550639377732577
0.549424079495017
0.540122280658884
0.54058955153464
0.535285996133019
0.536039683148988
0.538981770005321
0.528465284712993
0.52985136095296
0.536984257465601
0.532236015738339
0.534650095541256
0.537012528654199
0.535501227656554
0.534739747069622
0.53217609262819
0.521657346117594
0.522276975072112
0.517466852829681
0.519388062403023
0.506813574849341
0.506017632865102
0.505610721652973
0.496641914814146
0.494476502239461
0.497959123762743
0.493183238212975
0.492655777147873
0.489022353835955
0.493614107025446
0.486769250774221
0.491493892770883
0.492091321140624
0.498252027180885
0.498380144960559
0.508621725411918
0.500224766457925
0.500065647888711
0.50592419750271
0.509638574396528
0.507056152361616
0.514162489774409
0.518579103758259
0.514422011114456
0.514230652386743
0.519881171316786
0.513897794541499
0.520998883424037
0.52152849299452
0.526517157614844
0.519338180950245
0.52407339671843
0.521199363432927
0.521242854198018
0.524110012003445
0.532823126964807
0.531907311893088
0.536233392505094
0.5411742464196
0.553599730118771
0.55969363465827
0.56744505545693
0.577516454507974
0.594970038886079
0.613284665359254
0.633679346933654
0.644944163797689
0.651462382317164
0.657485762117029
0.678784520824146
0.664155460204385
0.657365836485187
0.669201257723823
0.674282109079801
0.653163316117947
0.650299641724781
0.642529317494987
0.630131772849524
0.624640796631371
0.620312339624244
0.610635782880197
0.612377863245376
0.61020607673268
0.612263155317781
0.61386755172675
0.62723679502975
0.621624881289849
0.614770343343197
0.619886005029605
0.616432377253774
0.605696976837813
0.607022399992267
0.604897431198932
0.595481918197756
0.592223994615342
0.587842132442736
0.572365198458621
0.587484427663522
0.576768111530054
0.570550786488957
0.575639225947383
0.573022845251416
0.561176221386228
0.570133814816759
0.552772290036815
0.552168262522361
0.546180946793091
0.547015796651976
0.548082561472244
0.545310778438609
0.547327619111154
0.540626414354393
0.528071181841327
0.540598348943076
0.533788551137665
0.529273536692695
0.516523786545163
0.531002316253425
0.523869408999308
0.511762365043188
0.522461518017231
0.521073859980125
0.507887511862128
0.500327428228701
0.503276146309451
0.513840402248629
0.517552784611304
0.516773024871218
0.50515786686962
0.499498801588394
0.494901858363298
0.505284507153172
0.49095496708677
0.506987105927485
0.484573069338588
0.473493429162706
0.486839747650424
0.485159839477561
0.484831797207149
0.490608891006718
0.479381199671026
0.49268768567769
0.486786785142059
0.481156558216101
0.488843849148358
0.491678742478072
0.500492556788479
0.491629903394333
0.494260773517175
0.506998661138491
0.478325321617546
0.490622093051934
0.497605472427602
0.504676204309372
0.508392043090876
0.518365958744248
0.52169922554496
0.516532812490859
0.51477685104094
0.523423411127771
0.5130014338533
0.523025449596368
0.523073685947781
0.524472736679844
0.534285160789068
0.545671998989892
0.532268034044676
0.552631145140183
0.556231239082458
0.573366292603591
0.570469917762503
0.569075955331914
0.587755585400227
0.590981527994923
0.613712169307851
0.65693814015981
0.629139208272694
0.661423443992129
0.681815820938504
0.715379652792899
0.702619112075961
0.704595876744097
0.709443378731901
0.731887129273864
0.768796615006005
0.780411792616253
0.772917313741239
0.795407481151794
0.785973446250969
0.80741878940067
0.796628707356758
0.807849770971304
0.772240600871309
0.78056162654974
0.783189351576835
0.775899403637588
0.800258290569315
0.769006236404519
0.75410892282519
0.773019493717719
0.800514214926742
0.782674518104254
0.782862028809904
0.798669234208965
0.740578047007377
0.771935429605457
0.781988383885298
0.798711856007346
0.762485912122016
0.751087377893998
0.725616519286197
0.704946106118097
0.743159953890543
0.727186671383927
0.752311957064357
0.782918809222138
0.704560966997394
0.693761176562665
0.755087819365229
0.780891306997809
0.697922368784748
0.73729827012449
0.701360998136592
0.735300531076671
0.725142166431143
0.675816561949035
0.712256580186343
0.747409513388344
0.73985368370549
0.767530681306384
0.690532774340162
0.770926760190965
0.727056950587278
0.720397059533425
0.759291160581694
0.750169366753019
0.744048175342306
0.705546643613069
0.726313337005581
0.748893557048604
0.730149374309046
0.726095948055069
0.727756053124489
0.74193758132903
0.744887480967948
0.745347162522222
0.7364597405172
0.746132492811103
0.689860672085921
0.768809579995104
0.790126273184305
0.798810676335063
0.727175511367644
0.745295819748031
0.892798696062
0.852072856684643
0.869683495466424
0.917276666410189
0.818868297452387
0.804175815349169
0.892326406507693
0.983223764490628
0.947221206752843
0.895349155538725
0.871014543794466
0.837043110628384
0.877773069336137
0.959423148555752
0.951153982762726
1.0235476878701
0.991216160572602
0.926177392223775
0.966291348948332
0.951097302717725
1.04571645405064
1.0111591233715
0.819238186856833
0.995456944007482
1.08675930369488
0.91748968981127
0.906214226132202
0.98532555406935
0.91901210782891
0.845976924399027
0.902830570158502
1.1091896382407
1.02506491823942
0.818152287053143
1.01766080349936
1.08271659501577
0.948821022461816
1.01126067590155
0.857658703452559
0.87373480473751
0.908383834228865
0.949936550403772
0.972623571508488
1.18456355823084
1.10020414749012
0.905106540063287
1.04072786402482
1.11527408288999
0.926906507847142
0.868556435886854
0.730260158014417
0.823001437804005
1.08291584793453
1.3153270194442
1.28752838912648
0.791365256783592
0.621101507725248
0.988715016265064
0.770530499616707
0.784133540313039
1.25110421698166
0.935928018289537
0.768645592736419
0.98793758734096
1.09217349671543
0.839234436263624
5
5
1.6821823754366
1.1530998945848
1.55400547552108
5
1.66011470813234
0.971979188882375
5
1.00288041837728
0.783215872038349
