3596
4000.36533379555
650.420452594757
1
2
2
0.105918532557013
0.102245358922168
0.110824851483849
0.118092802721282
0.109268213584485
0.107450793113473
0.111204168956612
0.117073977383932
0.111477021888604
0.115283017556801
0.114591412625693
0.11610855574801
0.106312697163497
0.116258023000697
0.102329222535719
0.111474052208245
0.107159910492571
0.111112144017274
0.111661199047861
0.112287369608065
0.0987083068759561
0.107558494876516
0.101049565212464
0.110263481714926
0.101857447603609
0.114457685095961
0.110989623337538
0.110923755910481
0.114828900561553
0.118871668123426
0.107054189067786
0.10894691908431
0.105779049551105
0.111191763213522
0.109208348972736
0.111274413632563
0.11437243300785
0.114534024046689
0.104431480416654
0.117198914691303
0.113466444476105
0.114073467575505
0.109605186400621
0.117264436700452
0.11111039797374
0.114905022922735
0.108629974700131
0.109922499301886
0.105143397416046
0.115371092727074
0.107797321433658
0.114317924840274
0.121605525668399
0.118189862259356
0.112453394691181
0.130109533449463
0.112435436859273
0.104416509807344
0.110201671462753
0.110113090450711
0.127209086587419
0.125845612040356
0.0969415135521668
0.116505550776513
0.098906527452311
0.115039908856586
0.0979121960998831
0.111366560626146
0.102418959047168
0.11496913919138
0.101765370551835
0.142192365712942
0.125576453692764
0.111904300431883
0.108226478642098
0.111264567056507
0.098514506487584
0.103049446655126
0.105768501351571
0.122456457382957
0.112896398730852
0.114612966951514
0.109296023827949
0.0980942664397396
0.111598300927715
0.127388784311597
0.0935816442512915
0.11396243912934
0.121491390972387
0.114601032278993
0.0997409740324244
0.106045288869693
0.0993476600046514
0.100020747642836
0.10498289581591
0.105441563470567
0.0917377130821974
0.104573788099506
0.0931785177256732
0.112030786479562
0.119029782356045
0.114816457906336
0.152692089104121
0.110155160781276
0.181695665087266
0.132515360366391
0.097597059943
0.164042461634427
0.117482459863744
0.117671601716704
0.0924700391012879
0.104937594214776
0.103532647981468
0.120648322519004
0.0875219497065468
0.137872191033291
0.129540831465121
0.104831395957695
0.0921857317162266
0.102999471808817
0.0887967457434975
0.14454383615206
0.143715073897325
0.104631109347161
0.121852584426391
0.105143927940584
0.102091661718725
0.147949974432279
0.13893168006579
0.102905908353636
0.102822172098358
0.0965752184737693
0.102488900385976
0.098976356960896
0.151962351678514
0.111211406882501
0.108309017286567
0.0922259343757806
0.132288386305623
0.168863549108555
0.101066753683039
0.098200703095815
0.0951019205498196
0.113114334936488
0.150105271007322
0.112001072128613
0.100319308014619
0.120088838094428
0.115081005919652
0.092641526931463
0.102862075955617
0.100095263179137
0.121138918274962
0.112371179901327
0.0788841281422055
0.176857901345481
0.200380989787911
0.105859731171693
0.178562053452883
0.0928870290280252
0.116929070525748
0.100160948997655
0.1050028972219
0.0875736057445919
0.104011446958137
0.0873608883315171
0.115339205813597
0.137804124647606
0.0993101765694388
0.114802880755292
0.141564133212047
0.122656901119699
0.103528420290445
0.176927867295432
0.119735667520818
0.100018047015076
0.147453213940743
0.106957463567404
0.0876295286688452
0.104751985968919
0.138476851433874
0.0873927432175966
0.102702618365974
0.0970315446175065
0.104352949815952
0.120813323692352
0.113098976492023
0.0958120656895275
0.109663948660289
0.0860417616018948
0.145602772918556
0.157192230059471
0.140048363479879
0.100307624963565
0.117191294050095
0.0626882470701566
0.148560826089313
0.137126508499658
0.0982785681205773
0.0962064683115747
0.0925336305491503
0.0876998295594957
0.0970954675807596
0.0932477396866774
0.0993545780028361
0.0714162655460047
0.159409629960001
0.110421290710387
0.103906104859363
0.0894419129452705
0.114970419596394
0.105574489096451
0.154700894831192
0.133611570278277
0.0926521203287007
0.115070896823372
0.0893988256568051
0.124379983396235
0.123586259492376
0.0922965313767392
0.0947291641774091
0.101749196459969
0.0961162265026905
0.0944658220114015
0.102637915049337
0.102482479089863
0.0967534930942043
0.0941452102854485
0.101691639770201
0.10004693960152
0.109559501501289
0.102599740648252
0.0976451176754423
0.101105849009233
0.0951597260936564
0.114129649646309
0.137261846576982
0.0999750995205301
0.103702359844218
0.092485327867234
0.0970395037988948
0.0926969407466914
0.101018918003533
0.0936351461941552
0.104948219201272
0.08359968154873
0.154131106710751
0.0986549066125545
0.10660442378645
0.0923089389437259
0.135151568932292
0.115120469199686
0.0982989988194083
0.103059657410166
0.100522732305978
0.0939720407585788
0.101711511932135
0.142506944442134
0.114355012441257
0.100037913226232
0.12555666641637
0.114242177495168
0.087617932128673
0.108253668144422
0.0952276637341725
0.20324465964976
0.121467557631432
0.104047897931254
0.195591916793065
0.121811914665931
0.111502394043095
0.122135458858583
0.0828297877895615
0.231449276180908
0.159956566306338
0.11165369517441
0.120396831459867
0.128678999075833
0.10250939616238
0.110111671101008
0.11737613778427
0.113536901350293
0.162931993141996
0.172811873359535
0.190415899522272
0.089632486067776
0.160202921840829
0.14405845894622
0.109200038759559
0.106478998988005
0.104915019968525
0.112040634911539
0.13755428242357
0.135118852404663
0.121339783617582
0.12291029718924
0.107105888165992
0.155296201213052
0.110711523949261
0.10882255460843
0.115733082056731
0.128845209297215
0.101295734469769
0.11326172752515
0.106531009047004
0.119691100992631
0.11619395991712
0.113899118299329
0.176970201983035
0.13248653870302
0.112072077956074
0.157845957229148
0.118671352821359
0.111544472954602
0.105954264261593
0.11379667562882
0.10033278464984
0.109478833760525
0.102628195493619
0.154911800024848
0.123527337167091
0.108825473336485
0.115112761133384
0.108607520846824
0.115346773282575
0.117078064161107
0.109457418390966
0.112381853481995
0.11983241244388
0.116961601615487
0.14853038731032
0.158650898912185
0.104988668502177
0.176421463073956
0.160606187588431
0.118820251073909
0.129774441304396
0.118836238768512
0.128456772693252
0.11633209347755
0.130421778013309
0.120983933199038
0.137177364269605
0.153908201438602
0.144576046010386
0.13100253669483
0.160543735239571
0.205391298329008
0.219165330523643
0.149130566707452
0.143296393608724
0.12030951676853
0.174318405918917
0.183373361359493
0.161317144817802
0.18103014862253
0.140506625534714
0.157667574847381
0.140618260795968
0.15505282683134
0.141182237589796
0.153034242392416
0.148066332393589
0.155204111226879
0.151598806261039
0.156502809601177
0.154870179793484
0.171282302830209
0.207860124040884
0.168440090108639
0.164783439958161
0.167278942620947
0.167307191649622
0.213591705514407
0.226723152638114
0.231849239270734
0.224436407740607
0.204356811352573
0.251205477160005
0.185207665027306
0.193473437703505
0.186892414492071
0.194871038434998
0.191456060982434
0.191448525192041
0.194121355144329
0.202023695624455
0.201916890917215
0.213297905688644
0.195679636558833
0.215561600560714
0.208246130789158
0.246767056345801
0.2204224951836
0.223644334524114
0.220993729180833
0.255285815910233
0.302587655378065
0.293671451168872
0.252192858772481
0.235835517649789
0.241229517989785
0.224795821441879
0.241859169225877
0.238515660070121
0.25974633357738
0.265131063205377
0.30306350448037
0.297728570388365
0.292725192490067
0.298534729298309
0.264553586706827
0.302849539660582
0.29448144601019
0.297960234106722
0.314220780980926
0.294581947364792
0.282106713146054
0.323002782756995
0.325701686911681
0.311892575120842
0.333598127841071
0.296122404582022
0.310004091483348
0.310975435552768
0.326944101508903
0.319375819699182
0.344061222064006
0.335868571568444
0.329240781153107
0.341944635058433
0.34199749514938
0.345717999261344
0.366752011152413
0.363670231600732
0.375772277229764
0.362881784652734
0.340100909296246
0.370486104335078
0.359412656741209
0.400824370570446
0.424352495141298
0.403223880169305
0.436409807954362
0.388026164764984
0.38241233886835
0.385894425869921
0.393138105265816
0.396313746363373
0.42388167303606
0.433282749038077
0.425462314653798
0.413089653482378
0.437207133484191
0.430352847180964
0.419708530399708
0.446769671068908
0.452518080011873
0.446177047800527
0.454768133265015
0.464012129134335
0.464528292956763
0.497066713913585
0.551031189307178
0.522188336252262
0.519344580950431
0.497210741218352
0.512627444694009
0.492407244272955
0.509434694110375
0.500930396023147
0.511092277764249
0.522323191569225
0.511276911166159
0.506151093150488
0.535405081770451
0.535414827847123
0.545042263144134
0.549699269190311
0.571447293351046
0.586452570000889
0.567775868140448
0.548579561810591
0.563786486092203
0.554256286751853
0.584528662776681
0.589011838713884
0.631313702351901
0.59206080137102
0.579304438244723
0.616662890877809
0.589541644014376
0.591854958717216
0.629300302549204
0.630668668631539
0.618679621010219
0.615173772463033
0.64674572804614
0.644926510120821
0.659022312107809
0.66455048396996
0.666823063211627
0.669682287252133
0.698910043246508
0.703931047222988
0.717365641695984
0.727768856514614
0.72263726804324
0.709619382791901
0.713044682592822
0.713261249051234
0.729888167997891
0.715397996327587
0.708055091295294
0.744268279916851
0.720504157340968
0.706042984462921
0.745120299130659
0.750993772061061
0.766782644841905
0.749289847514863
0.778282906470537
0.785198310726258
0.806785399733692
0.796432179901001
0.82215076589763
0.825755154816323
0.795497066926463
0.799221983485898
0.805151137762537
0.83716359416221
0.843515570736852
0.824653061895134
0.836702140366457
0.852140909866022
0.850500594027362
0.857136643370537
0.838284533200126
0.865506534290513
0.882864318034574
0.875702022877507
0.876557496607169
0.918807944694062
0.914256322055994
0.934785690036349
0.939899805566686
0.886839507594006
0.954375020869725
0.943408834851368
0.909998752268353
0.88378605573508
0.920992945281862
0.928703520062572
0.966720917354344
0.977407979190104
0.983261651449705
0.950824795401448
0.896444300862232
0.975485182315321
1.04209698093985
0.97827124982309
1.00181931234061
1.01902675209261
1.04566526131428
1.07057861745997
1.02836303325918
1.01999972519849
1.03208507269393
1.0246173517058
1.04326684790432
1.05948955519473
1.04576849635949
1.06949550506682
1.10136416232104
1.07103588839724
1.07733147799925
1.12287834876718
1.11104734854469
1.08496074746799
1.11603566554547
1.12859085669809
1.11836652772882
1.16324606369723
1.13867707207759
1.06270812632328
1.12715342666636
1.12221564523318
1.14866449164333
1.19934102035485
1.09205806537335
1.18718175136541
1.26326829352535
1.13910767645117
1.22650133735633
1.19650706665692
1.19750281988396
1.18754499128078
1.2197605794019
1.25561176455253
1.25174571252168
1.24846785381868
1.2011933823874
1.21927770199334
1.29078780364991
1.2397684848826
1.15732885876139
1.26796900060071
1.29650385444218
1.38026849028208
1.34830438126285
1.19567784615341
1.28780094752421
1.29862248474174
1.26737198377644
1.30489778387755
1.33678703178818
1.27652013946857
1.20516018040497
1.30289062085515
1.34116393221631
1.3083736880588
1.40427922828
1.39245978381572
1.33672966943742
1.37438998108434
1.33042020288138
1.42560198616319
1.41342158397163
1.46236388207139
1.42712911421298
1.38020583456695
1.45597256892076
1.42181123131217
1.36349635141156
1.4145683769587
1.50101172950095
1.45844792895048
1.42274479928748
1.36869502483339
1.32714799499669
1.37592889299767
1.25118677325888
1.29288986361247
1.34707704309201
1.41376540472432
1.54336212442956
1.46671508139933
1.45227487895241
1.46674198994843
1.4056702613953
1.39805783474621
1.47166702813159
1.49631065633442
1.56419388497763
1.65927888299137
1.54876777676023
1.6062220927694
1.47753965827328
1.50967713129695
1.68231352504632
1.6674666836778
1.50697131362243
1.53921672842009
1.46073216581998
1.33087696449859
1.43037862764702
1.61229201261583
1.57335646860794
1.52426651826792
1.49123193668155
1.50220877086906
1.52697973715105
1.58717513282873
1.56062677366522
1.50516740980834
1.47059822576899
1.63477169078195
1.58101855556182
1.53489977025252
1.51957401355401
1.53087010710315
1.53178204026562
1.51741435411198
1.65283673674843
1.55707147771449
1.6348883564538
1.65582709807981
1.53481541190177
1.62568299037787
1.62338758319098
1.69666447662743
1.47862312726954
1.6936230759829
1.7571943937431
1.59085174856377
1.57862215447213
1.59766062299361
1.62163700613894
1.69211293362391
1.66248906865437
1.77788678337508
1.61176378106437
1.6061524264229
1.5650182820542
1.70390322056646
1.61960424639332
1.57097898427525
1.57859508191033
1.73490237857098
1.61540348536501
1.62737253837513
1.77187451241677
1.64558709810644
1.65453078973915
1.73745146627426
1.65780189009296
1.69521186379495
1.64719348298562
1.59910601624494
1.60585704110925
1.6287707788566
1.62948073927772
1.71260880579641
1.57545105129002
1.5487865598693
1.54581945621009
1.65741153815725
1.55179933030813
1.62569684625484
1.82052996963875
1.52963277903435
1.55098421851175
1.76428603281657
1.80018602649203
1.77400823129901
1.64918372816381
1.71533454634477
1.61322726809063
1.57003395626983
1.80311503167529
1.80725208349367
1.66117165494728
1.66811617977364
1.64292373473032
1.68205840192096
1.68501232645638
1.78650375310346
1.56295561821477
1.48109705072015
1.6617760684617
1.85906055808175
1.68488847395229
1.83854998475549
1.73771511515288
1.63982186716935
1.45036444271351
1.66007951255548
1.7193317167746
1.65583476991311
1.63618938498133
1.57324835196957
1.63665944852184
1.85221866753303
1.61151206359333
1.58497659335284
1.58610697231031
1.57419314243404
1.67405615137508
1.78652411638371
1.56641120668145
1.67418661059163
1.643071099588
1.79895983920537
1.71398466126952
1.79121473240864
1.88248433402493
1.80437643572318
1.62943763086712
1.82882719250778
1.61845683335674
1.70691927850603
1.64684164994992
1.54831876555323
1.56398845417128
1.78039092943848
2.03572734396612
1.96313782599117
1.65538300018346
1.6140069869919
1.72700420702709
1.64399782342501
1.55601419270358
1.65345181787182
1.69749903759892
1.66821864247392
1.76177281054294
1.61698425356057
1.63592868597056
1.61204608550107
1.57646709450241
1.63522837870684
1.55981925674967
1.64642148204701
1.71712250868614
1.60202877597717
1.50759115079112
1.67493177688905
1.69927747854565
1.73518832370747
1.60252753604178
1.57978036766606
1.55215742854796
1.58007167597366
1.7058477762495
1.87415771894203
1.64567272769343
1.56443217000949
1.50283422248937
1.67568899727174
1.53351127958189
1.62390351163313
1.64849750926559
1.66019999310735
1.56016653169262
1.70655200660559
1.49161798927894
1.57302117944158
1.45581604767861
1.61655784530309
1.61800192769286
1.55458891008189
1.51799204091906
1.62862148612017
1.66714872998763
1.57505322437829
1.56864062537917
1.55646462562574
1.53146478172053
1.65547375372465
1.50482553449286
1.56367371383019
1.41603027279822
1.48120067996465
1.54655105062644
1.61273786203907
1.56895601920138
1.65170705156997
1.46810943750274
1.51126786470828
1.59035602076006
1.61584513476196
1.49404567896552
1.49797229181311
1.48697168242962
1.45487282835877
1.51094617824141
1.5472108986906
1.38108659853396
1.45972809595067
1.46506176149973
1.48145829456041
1.39740230986696
1.41328725891792
1.39025905876026
1.48579023142549
1.42146270994087
1.40981955168627
1.43957259572555
1.35006649163131
1.38984116478319
1.42844851499666
1.38987586386026
1.37950349239635
1.37978610687037
1.49746609759069
1.38559307531135
1.31920208197638
1.39128879793053
1.37863524749655
1.31075461972215
1.41447913603353
1.39002077486225
1.41731004021513
1.40238877799692
1.3556024674698
1.32787876860294
1.42968267876521
1.35242398290659
1.32312994583185
1.24724253503765
1.30558045008551
1.31318184988811
1.30660922295022
1.25988409564814
1.33829636341697
1.29827114384391
1.25732446986434
1.23272095510096
1.28094280154657
1.28469049552195
1.26874094300293
1.23992289878638
1.27700343656858
1.22642550378462
1.25053936348038
1.18587174109761
1.25462184275474
1.24274783361896
1.18548929652912
1.16549735702346
1.19420477241405
1.21200056414804
1.1858696855846
1.16795399736193
1.1683136580759
1.17164480207288
1.16404358073084
1.14429015765358
1.14195182954622
1.11910592898758
1.15109307799303
1.10625794346832
1.12355061548451
1.12825159093448
1.11783423111643
1.12143367127093
1.10797055210488
1.12873051457003
1.10297585280071
1.09532713195309
1.11477919750928
1.06807144994476
1.09021082128902
1.08029050064684
1.08809304376998
1.0742245254382
1.07826591577739
1.04676990536055
1.04148213735952
1.0418683411854
1.09139509489498
1.04979372044349
1.04804346919111
1.03051673905628
1.0137370423236
1.01454243420414
1.01894236415615
1.00488287622932
1.01597857472392
1.00096402120983
1.0099163613332
0.977792234907103
1.01266200040677
0.94393709572075
0.967548461231648
0.955625721550296
0.960340190217958
0.964293497372312
0.950360678450865
0.944821930869658
0.993804846033909
0.954157826127969
0.956206279459316
0.930150660919775
0.934386169337483
0.917673146858561
0.936804321216982
0.91091123494169
0.934173576901937
0.908901017938287
0.911955707016768
0.901981480005473
0.904989727405251
0.899961446739138
0.883324194738569
0.872254974871185
0.896370680250716
0.888407065068612
0.871123325414612
0.845978183269447
0.906586780212422
0.849559179761032
0.872561572998096
0.843925636246531
0.863917199951534
0.858001646769966
0.865419683531901
0.83176965908777
0.837261025209849
0.813918411514348
0.841228977647221
0.822768664558326
0.818149682275938
0.796556059598373
0.835615006968342
0.823911386724135
0.808470416120379
0.795464319724505
0.789148435136228
0.784168324784822
0.800096833917982
0.798277395741359
0.77066184828085
0.779009806727941
0.790499536024536
0.76847946438295
0.785859476252614
0.764747877074328
0.782292558539906
0.750543779037198
0.757791393270894
0.735140850931961
0.744256337847312
0.733704924684578
0.749183467946197
0.730487116800778
0.741710280290154
0.718694357528901
0.735367182621863
0.712259833470203
0.734684124674443
0.717873313689898
0.723179795889637
0.705981218600963
0.713628136168859
0.698337455381487
0.706436941744275
0.700008901904858
0.699368078895634
0.676891905402814
0.696879176693923
0.682085390114911
0.667646736653043
0.665150306084447
0.664883565631448
0.664341126973868
0.668415572578842
0.664627205831942
0.663699267062899
0.650053627134491
0.646674621483632
0.658429729353772
0.671212907677644
0.623287329375965
0.646877066162038
0.628858695339877
0.636629363929651
0.634064228697991
0.618305724320909
0.619566666719545
0.623140870215921
0.612777761470239
0.613543999764623
0.613654783946624
0.614283208636286
0.604316039588839
0.610210154347003
0.595694356424509
0.59706268969112
0.594635935320294
0.59791227515541
0.589396331410979
0.599761372268354
0.589310425459651
0.583467780312417
0.585446294783355
0.589906435786869
0.574945684263466
0.578151424243877
0.570734002635759
0.576266488509599
0.571475747891475
0.584467225131581
0.579595711893467
0.584756070813281
0.571840515414061
0.579878887699484
0.582699517541865
0.580609738694226
0.569146626916366
0.573193056348026
0.560035794497828
0.574412645385164
0.561850148004447
0.581390887972094
0.576148480018831
0.576593088974127
0.574965494900468
0.584973556515124
0.575342509495389
0.580661844346356
0.57159530712724
0.580092835566781
0.578968554538279
0.592984865687281
0.578836946833181
0.592796049247034
0.587999805375757
0.596822875462459
0.585208216174635
0.61192094748644
0.593886838970193
0.604511383572703
0.589286513137121
0.604953738887751
0.609653869738496
0.620968529663954
0.610112401233076
0.620665970082873
0.606767014211247
0.631030290191498
0.607200750094609
0.629630135469724
0.627636798693285
0.640403985147371
0.632624352554819
0.638139523910004
0.629758651815359
0.65338182989515
0.644906148015025
0.641195617959026
0.637122917457598
0.663677632299049
0.65221959750941
0.665568691774363
0.649729977350545
0.686555635989618
0.662548969842296
0.675691621931331
0.675103253441571
0.680792713912611
0.666503696949501
0.687658305568147
0.698381323818545
0.712407859974789
0.693188309788054
0.716305382166906
0.704569086577197
0.719467345653022
0.713485602476233
0.729823998977718
0.739843486994202
0.737811541698224
0.743073586703597
0.760239430125249
0.746784984040604
0.750738068634591
0.741606866058381
0.750135144565463
0.737304054591034
0.731747466349572
0.737366131946604
0.757328907728007
0.749037939268224
0.754807750533493
0.733214973583816
0.776031110795586
0.747107064846795
0.762879759549163
0.754466015508753
0.735260405652129
0.726839522850663
0.742764744835988
0.758462908139206
0.749068378182404
0.747082563176881
0.751854564091034
0.731894031688209
0.745282459916524
0.733709799617859
0.745794287217138
0.73930076795876
0.730534951105766
0.734182814067936
0.745772960847378
0.721542734855615
0.746342182940371
0.740451010448325
0.752827653786584
0.739765348399053
0.750972856226383
0.736655944061785
0.753566106643149
0.742813298821657
0.749430558686767
0.722761559449663
0.744446969489034
0.715898033286603
0.743184952007434
0.73418005753842
0.741981117972037
0.747620898203094
0.737032252150328
0.731193847268443
0.738180620592243
0.73628240160392
0.751951459362484
0.722363679568057
0.738859318729249
0.720002206277202
0.741052353019778
0.727452136553948
0.750794645206962
0.736220472804714
0.742397147048179
0.712509721587831
0.731967717309691
0.713916744288338
0.724681556030623
0.721495150004522
0.733730847018648
0.712590032559749
0.709452573740595
0.700155254350133
0.714003291710469
0.689613625889776
0.709989581402694
0.679401290601967
0.696666711776977
0.674112841170671
0.677858482438311
0.669522325406089
0.676134422430581
0.655007637659971
0.666734356090762
0.658332337787466
0.658629336803463
0.639717622225337
0.654710401832571
0.631983875331818
0.64313549799781
0.625720369486205
0.620539849002748
0.612393430411014
0.626303365395176
0.615897948256684
0.609042003124283
0.59914493867988
0.597128093510035
0.588865125933898
0.596758038896299
0.577866850554021
0.601603328119698
0.57923589550579
0.570989865976337
0.560771283254282
0.575104640460886
0.562770265950082
0.568889507758675
0.551307307908805
0.554615808844876
0.557564531823895
0.555291498665658
0.554432670066699
0.558252318749136
0.538476506540389
0.551583049204243
0.540271824379968
0.541166554309972
0.529506569672483
0.530897223709155
0.525771211622556
0.531987493136099
0.520930101466212
0.52486128807433
0.514513075921189
0.518916567804493
0.504188900396438
0.521425766675445
0.510041165498253
0.513100160843531
0.506266067636721
0.506416895439174
0.499708065863937
0.504720674820787
0.495763975648078
0.508946328135211
0.49185657731056
0.492619178648408
0.490247446082557
0.489660431442465
0.492791048892758
0.490169317783978
0.491889163106704
0.485688074765433
0.473798229987309
0.484022612525054
0.474623317958427
0.480070494373766
0.469213134312182
0.4775568437674
0.464473768443396
0.483320215612663
0.469625512395323
0.469243246700251
0.466288582062511
0.469354100017541
0.458794223410218
0.462160890493797
0.4561694630497
0.461694708624309
0.454863657098368
0.456810416871618
0.448713004100573
0.453453039004792
0.45146677732538
0.457135572891127
0.452942997822599
0.449128619585663
0.439526752012926
0.461223642878086
0.446349234213314
0.450660120922596
0.44402497802574
0.444079593547436
0.436766559778737
0.445266671356268
0.434951264596347
0.439394405274034
0.428133196930946
0.447125262823404
0.430138950137745
0.442776797635429
0.42725953643228
0.429285845483047
0.429572100122645
0.428542741665792
0.421015021612739
0.434454262602002
0.434891409176794
0.433474313825439
0.416025616813321
0.425092090268967
0.415568308843804
0.414684858488647
0.413921903323471
0.425669664249141
0.409872607878261
0.424053474078386
0.413862457134463
0.418908235993573
0.412170284219042
0.418338702867406
0.407951030194363
0.417602195897947
0.407484292368455
0.415241560158139
0.409714072008168
0.410142568656114
0.406280199253476
0.409961650286829
0.404178569466705
0.405610542510046
0.404787081857436
0.405881717148774
0.407186594380946
0.409469192892008
0.406067849789489
0.405016916513572
0.402267201133896
0.402493195056227
0.406209083600703
0.405316752755015
0.401456208711199
0.40736829610674
0.393895545702188
0.399095127186911
0.397725456016598
0.40188188301996
0.397798344749877
0.403028475625606
0.391967292457515
0.404742600393845
0.399598441879513
0.397259415476124
0.393588082094115
0.393011751160829
0.394440595822014
0.398744486455599
0.398127088980223
0.396290941740629
0.381908100066864
0.390750661563159
0.392869871708268
0.390213809291516
0.385055177378233
0.389600724567331
0.386368024851705
0.386467482926561
0.386494714692451
0.389986549162148
0.385486961908529
0.383748500654642
0.379407902011468
0.382592672093882
0.375477069141489
0.384269296393804
0.376660664553164
0.376202769340621
0.371336437144513
0.379191488165364
0.374691160491004
0.375893183417672
0.374149150330799
0.376790127683041
0.367170566427818
0.372767686276883
0.362090491764156
0.369270165423335
0.363480642590914
0.371630763196231
0.366102552050571
0.366924155645793
0.365759413372222
0.362853543807724
0.362450416477199
0.364029652303965
0.359448991094099
0.360100803827091
0.355423857558353
0.360796538192851
0.35639789044456
0.361726138370627
0.357020422516219
0.356195941334377
0.353220881347252
0.360841407624935
0.347767611218857
0.351777747685196
0.351631875216449
0.353191294889301
0.349774706548591
0.351052438905888
0.346597408175488
0.353450245983814
0.346373401333016
0.355585783112734
0.343538642043688
0.342342549683981
0.334722831589966
0.342813722940985
0.341903864397474
0.335707442788677
0.336545523699706
0.340614355062139
0.338239461138675
0.337313012282642
0.333314260015183
0.333369699701543
0.327961209801372
0.333162882679318
0.329032013266913
0.327940256858399
0.326743786353091
0.329876755459141
0.325466589833175
0.325679464149187
0.322900862143012
0.320399570169272
0.31528152218368
0.321914403545111
0.311955393454368
0.315451880682719
0.313578350516202
0.312115432689071
0.310227870903079
0.318240497958697
0.310688002660558
0.314214985704449
0.306130676318359
0.31265136296465
0.305726827458507
0.303338841422104
0.30178079485815
0.309387301716277
0.30161131594282
0.308146078463483
0.300343305467951
0.305071593476436
0.301174094880101
0.299811877944183
0.293351830501306
0.301525572934431
0.298460898053488
0.300556536726313
0.295667021761578
0.300199687673068
0.294039232855227
0.298760604423723
0.291000669695217
0.292938721713263
0.288922500536914
0.29272641077286
0.28772502623598
0.292063493041976
0.289310014120445
0.292106865273067
0.28512352571555
0.285055282531563
0.286347763489821
0.287744017383892
0.28427236194141
0.284313402639866
0.282982091967079
0.282621373944196
0.282056503038706
0.284536770754022
0.275179976778705
0.282624142931407
0.277931199473345
0.281038880774093
0.278536324920254
0.277270756613485
0.276847989985986
0.282269985187954
0.276334750880791
0.283250449073129
0.271826534630981
0.274057652674856
0.270459633420476
0.273543534436814
0.27219759301105
0.269508626686522
0.267333416393672
0.267681885641271
0.26953149958927
0.268414097849084
0.268281385298151
0.261954108374667
0.267441232781368
0.270267211199116
0.265704448094918
0.267370085878967
0.265261259340892
0.259898964603985
0.262227328596637
0.265451372753169
0.263599068889765
0.266483745536931
0.261209914795858
0.260336241630491
0.260272216304238
0.259150465472724
0.257829984395026
0.262329344195973
0.257674737649281
0.257072856851738
0.253218566336172
0.260806553355315
0.261697067564566
0.260053703471967
0.257183585361417
0.261477280091242
0.258247441494963
0.25254812343125
0.255863534016569
0.256930113560222
0.256855832959731
0.256844280880572
0.256856910268934
0.254109464147834
0.254325395566094
0.258989184217301
0.256175768479051
0.255223098529152
0.250795180127534
0.24614274398559
0.248733039545304
0.25204713982893
0.24895031636214
0.252003840658852
0.250573971058132
0.249705720862877
0.247316666702849
0.24832536337925
0.246829014838956
0.243893120606748
0.245039339021196
0.244365232050791
0.242186426904139
0.241607128488429
0.240540432262803
0.243086733331703
0.239303441072757
0.241857713301476
0.242373169524441
0.243851707241689
0.239131526645495
0.242106762147393
0.239667008650002
0.240063637247046
0.238932536662313
0.23902455904801
0.239340683151862
0.236856506846667
0.239999878763234
0.239098058553031
0.238988576766988
0.23417215058129
0.235348879339679
0.234030862358852
0.234235699046722
0.232653156118087
0.235143660602646
0.237637619439366
0.233644367979383
0.234940074875057
0.234461930697171
0.234137576458816
0.231187600133405
0.230930097413292
0.227800643689525
0.231361829823802
0.230442325021018
0.230827662755034
0.22959369020047
0.227600888769709
0.229450153277522
0.233327843079273
0.228504083238999
0.22747299427749
0.227882801810841
0.229241211208066
0.225517105874364
0.223787678336796
0.223026464051587
0.22486400794343
0.224184467338549
0.223281263000289
0.219244856087528
0.219052611148656
0.220907370975069
0.219624310694529
0.222330465445506
0.219907534504514
0.215055918000127
0.214814466816519
0.215860233533896
0.214818780877321
0.214758510844136
0.216167570269614
0.215032153771781
0.213764754350691
0.211787101041399
0.214993611697911
0.214552183809093
0.209209598554616
0.20809961135242
0.210626405409498
0.207884315525439
0.207142903553898
0.206783086569711
0.208660865860289
0.207940083138344
0.207362240282492
0.20431517090291
0.202857155123023
0.201944029992139
0.201898944608577
0.200886787564088
0.200567708410452
0.200793478484838
0.203141618402068
0.198186299098697
0.199355009740403
0.199254457588208
0.199747946899931
0.199384392257711
0.194758069495922
0.195364803813006
0.199974808991326
0.195940062739089
0.194320537255943
0.196845835067262
0.195196004005585
0.191922694463014
0.193876618622154
0.194458484041145
0.195778283352189
0.194030864710198
0.191228110213505
0.1907194703
0.191045965489823
0.18887263326725
0.189505023886697
0.188739621801362
0.188327111577663
0.186183005942084
0.187563817075737
0.186794909329376
0.184022204991507
0.184022136777677
0.186035922567284
0.185730065240616
0.182494789785855
0.18376351942085
0.182918360135615
0.180682706305816
0.179342664638963
0.179298804819611
0.176416017182068
0.176952670034547
0.179274389978365
0.177671379521227
0.176984913608795
0.175695886444252
0.173021421256784
0.175674176944458
0.17312344449433
0.175337677960334
0.171092089531339
0.171958681582849
0.174539526161935
0.169885808377973
0.171428292300354
0.174632874169356
0.172868393894173
0.168956517741696
0.171651828466011
0.172303248005418
0.169069043392347
0.17195414426393
0.170175231659675
0.169154047344392
0.168526940766609
0.171327798636397
0.167822243998221
0.16885664801542
0.166981158419906
0.167911978286754
0.164852641004887
0.167835956597468
0.166726726386504
0.168361199039922
0.167420328235094
0.169424620990885
0.163357119260043
0.167611392473969
0.168119589339226
0.165598790821439
0.165276126925765
0.16248277876041
0.160672050312421
0.163232554023164
0.161633935765532
0.16416851746889
0.160171753305857
0.156538151230335
0.15359584027974
0.148708617236986
0.150314545158455
0.15629510480151
0.155254857998366
0.151768462445573
0.143143055630549
0.153123592484284
0.149318153642867
0.144598442459029
0.142592819088649
0.153775168507711
0.146887443819217
0.149494655751793
0.148065774525528
0.145413531342136
0.148503849443608
0.144262865844356
0.14526307731876
0.152464406891211
0.145006449557133
0.160664165908856
0.153072934124126
0.156650911293806
0.147617102642114
0.156966347712339
0.144925089347476
0.154320581027176
0.138931458945034
0.152285256091826
0.13915783765965
0.153682815632363
0.138943303298699
0.15229911890121
0.134361230023915
0.15568598489391
0.133015472787969
0.147444584367391
0.128819864968813
0.149141350690811
0.132642929721364
0.155622835049483
0.139541105892014
0.158056130317075
0.131092801822521
0.147451666574479
0.136993983916273
0.16093672405032
0.142929784211748
0.150280280294463
0.143193859777296
0.155588116484196
0.151974240782412
0.140568555701203
0.153510903865138
0.14391989148078
0.162876076278175
0.133055280682347
0.165661966650521
0.133719331707379
0.16411826828013
0.130441946575356
0.169768831864529
0.135440930435462
0.159953103270416
0.140777322267121
0.151542525624544
0.144578215390729
0.151706048780098
0.147759627973308
0.145688538936852
0.149515119476985
0.148605866870565
0.145015605248807
0.14795301671628
0.14319741402677
0.149803872714037
0.14077708206351
0.146139717733449
0.139860806041981
0.146992205511193
0.145235119939616
0.145359220913273
0.142403419883437
0.144259870884527
0.142892465811118
0.145589089498553
0.141278912417035
0.147937048129866
0.140287072909149
0.144930694741843
0.141204238521687
0.143537010696737
0.142357867769158
0.146303510519487
0.139986158606585
0.143118942380577
0.14228596968312
0.142784684147415
0.138353061811751
0.14307162186558
0.141074005716623
0.145049408246907
0.141366255616589
0.144290334003032
0.143330530940706
0.144742685860544
0.141600887269679
0.146250719080947
0.141171705999367
0.144735088311298
0.141347110502151
0.145539659146972
0.143189578703666
0.146191500706687
0.144081756101918
0.143716778035487
0.14274574676349
0.146976995773455
0.143224274799792
0.147268221381235
0.141923240175109
0.145831620362948
0.141928636794277
0.143413715407585
0.141630197983147
0.143189237048913
0.14183138134715
0.142569833149819
0.140662392608396
0.145411218746153
0.140551809609845
0.142800978069831
0.139478898874034
0.141724415108369
0.143087973357478
0.143967668579659
0.138934952064823
0.144809779473825
0.14286354526884
0.143225043151984
0.140353864553123
0.143529002781629
0.141329263361219
0.144041756151928
0.14188782822842
0.142315947247169
0.142539263320174
0.1422654209355
0.141562386418623
0.144543275882303
0.1419535196486
0.143182852767938
0.142289411578245
0.145276749547455
0.144822053113524
0.145012972206332
0.141168300356595
0.143868369017192
0.143244762029324
0.145437794400356
0.145890977486308
0.146993103914111
0.142119720753099
0.144902882867852
0.142766189178325
0.146583785311383
0.145101615617382
0.146280875562884
0.147355176185182
0.14404789931266
0.143367790134187
0.14492634846532
0.144011260763996
0.148029867611646
0.14543540248878
0.147543046883218
0.148118215113311
0.147122107616655
0.145272061091685
0.146666149798387
0.144530572711834
0.14722715896221
0.146059194026658
0.151022578980382
0.149308670917171
0.148381395757755
0.145704237072999
0.147213571765381
0.148789983398628
0.146893006117279
0.14625353079443
0.147381192969594
0.145168688819285
0.146865431847599
0.146056681105338
0.149861399680487
0.149010580879844
0.146624876986912
0.146940150141447
0.14929202570999
0.147179268589502
0.148739164234806
0.148028197966922
0.147911958641511
0.147313567093235
0.147344996769873
0.148272362609767
0.151594261546743
0.149260204455165
0.149881489732888
0.148723301890571
0.149109457780777
0.147718126950294
0.147277974501572
0.147568434847487
0.14953748451542
0.149514366593249
0.149594427855983
0.147815504559607
0.149928845223547
0.152127526532388
0.151433606509592
0.151315024526754
0.152157695783535
0.151649713717142
0.152502462994754
0.150477109260493
0.151777545949424
0.151557481115581
0.154476299039472
0.15405746650662
0.155735629809667
0.154010003555919
0.152954125453004
0.15228853895795
0.149947688785068
0.153130647935585
0.155751319141794
0.152234489569007
0.15014424354437
0.152435791451969
0.151629426369855
0.151820291321193
0.152409226141889
0.151680428327163
0.151757659259494
0.150271954476424
0.151581975002176
0.152512833357351
0.151315766732067
0.150575239142151
0.151522636341831
0.148625724382197
0.149074231989798
0.148759485431003
0.148002432341109
0.146570692765162
0.147686018031959
0.146769251859851
0.144647919467952
0.147214869488598
0.148209779003851
0.147509393787008
0.14797823249238
0.147010096880958
0.146045426753705
0.147336898506646
0.145586703992635
0.14730393945381
0.148849579127892
0.14468443717279
0.144450279485885
0.146358925782285
0.147446187333222
0.144930696954837
0.146007403626094
0.145169724493908
0.144868083128698
0.145473534263027
0.14465505199408
0.143698372068794
0.143575595538257
0.144528925795679
0.142627588024993
0.143397123501945
0.145193924838019
0.142949994994628
0.141383117040805
0.143168780879788
0.142925282434294
0.14185817072927
0.143680769019393
0.143357655175858
0.141695339448897
0.141244171384938
0.140291094677232
0.140106861780631
0.141770338575396
0.142951703598375
0.143567495413726
0.145170214462083
0.142642455462066
0.140750412708156
0.142062019355964
0.140832538829266
0.142193394692951
0.142625177720545
0.140060402100594
0.139985938639115
0.139393685997294
0.139089900304098
0.138573996632425
0.137870414537786
0.139286510044557
0.139497619782745
0.13976139483664
0.138693623801499
0.137701655736108
0.138535987174206
0.138226800405494
0.137448676730569
0.138069661230024
0.135733489561801
0.137150091535558
0.139128315704862
0.13720983954064
0.138047130649682
0.14173286411837
0.14056341904637
0.135426511585106
0.13852832153978
0.138247107052831
0.137785042759986
0.137546907046654
0.136741772789948
0.135980267395146
0.136502738459986
0.136175504957935
0.134797848071152
0.135457724694877
0.134493346533952
0.1327554968275
0.133103351424239
0.133655162806314
0.136129262457715
0.134423665668885
0.132675359320541
0.132887581250305
0.132470435315089
0.133227096351335
0.13634007861305
0.13494516900924
0.135172090888604
0.13586895983148
0.133943332273555
0.130832911094572
0.131209569703021
0.131824792716621
0.133399726704172
0.132858558340216
0.132493629812097
0.131791672838956
0.131117043051499
0.127583240388514
0.126493680394456
0.128650666760946
0.128583421970399
0.12523984873725
0.128077948302271
0.129717479600501
0.12697612020415
0.126074682681702
0.12837375763279
0.125963738296743
0.127380078528761
0.124986085242298
0.126583473753802
0.12559749664926
0.126034012716502
0.130211599099084
0.127283479428404
0.124016332573112
0.122153255602209
0.121322994023175
0.12016742613698
0.119414163337459
0.123103768862309
0.120658402648444
0.120912496896883
0.120989682784205
0.119259608175991
0.118478593317359
0.116035202011654
0.118538426306899
0.119843285040404
0.118225855058749
0.118335659273145
0.115228361856443
0.116587234361936
0.117134901317384
0.117181493416825
0.116758726116245
0.116051800574877
0.114576404702384
0.114364069741963
0.125119339507834
0.128121548492462
0.116988600542256
0.115011892537078
0.119013864923915
0.116707310648384
0.113583430138086
0.115068649530569
0.112648066612065
0.113722420468652
0.114430064938978
0.116068608082524
0.115188154225369
0.112093929874618
0.111526122873369
0.111590255133833
0.111233816668984
0.111496091613368
0.111989054855432
0.113178557957718
0.110534853809778
0.111734516611385
0.112965227297384
0.111016557717544
0.112078394976968
0.108929724778116
0.110078230751611
0.119599204976037
0.117563891492532
0.112421207699842
0.109984681551169
0.112164318436406
0.108100231771425
0.107191151418422
0.107153069872234
0.1079617201628
0.106401238944296
0.106973494206023
0.107458496603409
0.109365955322529
0.107401035854284
0.107618471091503
0.103817470738537
0.105790806464676
0.10595739953319
0.105710542156339
0.105093900241566
0.105353935503806
0.103468140990352
0.106292984308694
0.104715512968925
0.108933153315064
0.100788004752374
0.116860705708625
0.12307060663402
0.114165328715609
0.106674457952048
0.105343936703115
0.102599574198154
0.103412483544827
0.102420960792116
0.104439885997676
0.102244868439377
0.104998932227091
0.103273799018057
0.103954408367022
0.101964013686811
0.10412279035229
0.101785319502992
0.103808494751952
0.102057052757125
0.10425634006052
0.101800785444052
0.0984952307998127
0.110310822894404
0.120455648114328
0.105288012737685
0.108097497921897
0.0986882111319667
0.103119900922277
0.122434015251623
0.111877156871606
0.102475526069567
0.100967939911254
0.103937726521772
0.0992293327553437
0.103232748243723
0.101873963896819
0.106769459327539
0.105964671888836
0.104375052042502
0.103707555091701
0.10212066113966
0.098555924760316
0.0984023958844919
0.101908190985182
0.0989836055794483
0.099562757351446
0.101026026654859
0.100122517840886
0.0981772454510683
0.0988531844606677
0.100868099219482
0.0975044596951417
0.106511692457089
0.108353582480582
0.10044781463423
0.0989263338577316
0.102222772323399
0.095965176043045
0.113209731918082
0.113895732036895
0.103331561652422
0.0976673420369554
0.0981539572134982
0.100633958447001
0.101693469326203
0.0994888258532334
0.0987125929966267
0.099793671057672
0.0980722297390289
0.0982874243446925
0.0979274668431809
0.101027400838168
0.0978690658990559
0.0994576724405699
0.096919219514746
0.0999785517819312
0.0975580991992496
0.101313697718192
0.098602560422945
0.103950192283356
0.12416620879949
0.126743509985334
0.120360591090352
0.108931499896321
0.107156715130525
0.0986265591003611
0.101757067402525
0.0969146227716199
0.100850746532
0.0985134840332337
0.101729752237735
0.0995796351025003
0.101639416766474
0.0964881794070107
0.0971620563235533
0.0977679192170205
0.100145061927552
0.0973026515027055
0.0981020660231948
0.0945531935247323
0.100097143736947
0.0971361176414917
0.0998721709177249
0.108523713546044
0.110817448417657
0.102769127757811
0.101103661691131
0.146001937728271
0.119120260885306
0.114371305183362
0.100470619504019
0.105494990157758
0.0959732532103119
0.0992702261219093
0.10078475047279
0.106322720415617
0.0990987853808677
0.100063837776953
0.100279896563555
0.106261873130534
0.100298710063434
0.0987111486067072
0.122715604562485
0.139710264339917
0.113484679063906
0.109489437619933
0.0935794506422659
0.127202234974064
0.127477906361984
0.108601399563511
0.105109030995334
0.105358523293527
0.104661004149842
0.102189474160928
0.103797980084482
0.105406508577033
0.112522578485943
0.10548014801498
0.106524533940267
0.0998139403070777
0.103275083457515
0.109178741405145
0.107396782583695
0.120428318905897
0.11429919236295
0.105770586980763
0.113751614259621
0.111656933927521
0.10547573015734
0.107596278414801
0.105389837143726
0.103310658595785
0.12257291641871
0.119039898797288
0.11582769943091
0.12756042452067
0.11965550221032
0.110456562230224
0.113607844571623
0.121848068758299
0.12068737287233
0.0998044300509015
0.143464372046944
0.130670602624902
0.149841679439409
0.12601685560815
0.120791424997519
0.11178463989898
0.115543861084531
0.104993379002622
0.118413766143847
0.134511349494508
0.113894503320254
0.117794340182346
0.107117355422593
0.1364807696096
0.123913466687966
0.1252474263444
0.116270566993767
0.116514849374396
0.116569802006755
0.143622907594281
0.110695194323181
0.129789199778948
0.150168894918665
0.158318791806242
0.15348310559936
0.116929685989581
0.130905103938453
0.153414947445849
0.130227104834929
0.127756088318203
0.117705936268584
0.129760238214869
0.110897811342883
0.147552747261848
0.159164388937138
0.130826477871865
0.13041358634832
0.124980542654043
0.13266814199364
0.159334805127021
0.141518192290541
0.132300946692965
0.131472641417414
0.134240161464185
0.13532485879186
0.203091112139493
0.143162730757738
0.18123545114461
0.159710695192539
0.176900743601613
0.154732209424168
0.160641637005697
0.142018521260741
0.173790941130665
0.16526535826606
0.155485472965374
0.135458914833711
0.196255995633354
0.169223183136328
0.165308445348507
0.158915095116673
0.156425400455005
0.163633545918748
0.224230611638449
0.226848189646714
0.204636880956372
0.167078045270628
0.18845848130811
0.199720438779345
0.1825863641403
0.169625236794977
0.171929800625499
0.17377494737148
0.172231042410839
0.178738790033104
0.192974024166095
0.180079806443507
0.194000243569148
0.175110554093568
0.200354734363671
0.216119050415148
0.286387771521961
0.221998898517509
0.225550771387526
0.233836869056442
0.231048120400024
0.220190715435767
0.204252962040429
0.207923980675362
0.217918752283852
0.216423904472491
0.215410482777586
0.216991563616825
0.260514198504537
0.230211013337641
0.276392226849559
0.244725383138557
0.250952041681617
0.233015068317891
0.296171364452293
0.406484624322888
0.294612804547778
0.291789290652128
0.271211678700192
0.33486860754525
0.354389912017006
0.3191392827567
0.310811497962677
0.32166285348586
0.317468157619047
0.341255416584969
0.350690777228199
0.365524802441923
0.385757127666998
0.376077817620837
0.374894541095084
0.433531476953098
0.500648081380679
0.497429885055147
0.441970589061129
0.436968737221782
0.458653393270918
0.471194485185875
0.461384573577796
0.484377514647802
0.467343399413217
0.534481437840902
0.5587944298491
0.550380536977992
0.525342123636578
0.555949266522131
0.582102883550544
0.554745497653063
0.648063128055292
0.613333427510162
0.62617732558
0.59799954650078
0.634635272142415
0.621948615785689
0.65052621324824
0.688634343398441
0.700544761506377
0.679132329802828
0.687096539551444
0.696163035458557
0.70753908817567
0.714093924438011
0.735675681320474
0.730455189336807
0.794960348184704
0.840218686714147
1.06432240488745
0.796413581035669
0.790384844503981
0.731735154309426
0.785937605861532
0.775080646935782
0.828526814480887
0.871296672964117
0.809755006386046
0.773272880286791
0.782845104130943
0.766205948672944
0.780536322389737
0.790449804642037
0.794632057773339
0.762305712221194
0.825897044999598
0.752024094429063
0.908733734881396
0.848625218076748
0.815965846528636
0.783617605152549
0.788975602075546
0.768838913557097
0.821134021211933
0.769708370202146
0.812068867616424
0.806484006537639
0.797546423223109
0.748332108296372
0.748344263480682
0.79452891640441
0.782824784487676
0.738769618098589
0.725756311006431
0.704758014355868
0.717758134644494
0.666056097700044
0.742289816008049
0.751801249505948
0.700323198784624
0.67533817339958
0.688218082135033
0.664614296850891
0.666500810891411
0.656738097353221
0.676644674553982
0.647071737328625
0.657153441519253
0.656173176243308
0.640590547839749
0.635333553109647
0.639395222228082
0.648411386712844
0.634728035506264
0.632870825682392
0.633336769955394
0.634450858011698
0.632406633682958
0.630684452118789
0.641044500049849
0.627900719965896
0.648835342235848
0.637739815066252
0.631779329570427
0.637658491789904
0.631166565750333
0.631118942382856
0.631979539069832
0.628454766818674
0.639989513269794
0.63375570656459
0.633746736375001
0.627268858289051
0.633591423815765
0.629471728054316
0.631435229750972
0.626576807494722
0.623724636762408
0.626983483935574
0.629114332550495
0.623675061430898
0.723805283535066
0.653961278261939
0.653419012962635
0.612415814949627
0.626625598649911
0.593668415684013
0.623795732102236
0.676403832528502
0.650123631408298
0.619224048011413
0.607567902842598
0.595166235725886
0.642641716010439
0.603943827572355
0.6067564333448
0.59832867439784
0.584424858710911
0.670520720046739
0.671081908833781
0.758041394085296
0.696786484603051
0.628285309063343
0.57506853654503
0.64144959860782
0.639947361750425
0.600576767644245
0.589624916818697
0.575723563298313
0.658466123553361
0.603563381362673
0.588991615905021
0.568499506498467
0.571985771794504
0.616404559052727
0.621505983045777
0.585546545566312
0.623390770983084
0.599161844084732
0.598011900852027
0.622883991894698
0.674695080472183
0.592134819317014
0.545000557538452
0.549491294066632
0.529982249050422
0.563762220831589
0.615150807977075
0.542928555963033
0.556569934022366
0.508212294904677
0.518359880285555
0.505086662531219
0.55019813797722
0.505642352165892
0.540160606709297
0.539967650303278
0.488417331725237
0.510807833988204
0.510753716192924
0.577825827882045
0.557299234540445
0.49377349608624
0.454083908559563
0.545253981161799
0.519293681947544
0.492304666759329
0.490447938015084
0.446343144166145
0.472936862405495
0.477910886887161
0.439729284901118
0.469796937214837
0.460124324513632
0.483579189891982
0.519745804948044
0.545706692990221
0.505863845734178
0.426323303480652
0.413727084460897
0.403989278370854
0.415355033384377
0.40644150688562
0.393578620929096
0.46822244286558
0.396528011247498
0.420137164615729
0.45257164184513
0.418653729995264
0.405591225952612
0.404896652275488
0.397606909704775
0.41918250499928
0.450046267656461
0.483239453878559
0.424216675994333
0.450771334764781
0.450596867866342
0.435468892742733
0.42455461755175
0.434264624933088
0.433041855448852
0.443991139663922
0.463761267504272
0.459783385310181
0.456796502051084
0.474456827464808
0.46772708940356
0.537781839744046
0.515901625881294
0.502888210976444
0.558422616408103
0.549518555030385
0.612583909981667
0.544936662719409
0.56093937092528
0.546604686123232
0.564691851427093
0.577926424977241
0.568742989382725
0.613459393335723
0.637656796915604
0.596556672837396
0.609584757603195
0.612486511887319
0.623846488418867
0.620124705073737
0.694993725839385
0.647390051094139
0.784621567440791
0.700580332152562
0.705327922779172
0.655040981794731
0.659102726626227
0.669426380791819
0.674721817618173
0.663464075928348
0.665899048955007
0.681944429530895
0.710561734433546
0.673480655899407
0.684004152470622
0.679208336633077
0.692974778653217
0.690312814177536
0.694590223404119
0.698137498916949
0.695548157628953
0.719962945374462
0.704121866881433
0.699989693748499
0.832219637970898
0.740229260935741
0.738573301490442
0.726086909512677
0.758550456533416
0.731276497097737
0.745930848350022
0.785767543278294
0.781654597215399
0.756013860423857
0.762994150774241
0.766397586194394
0.773896243168704
0.788980950692651
0.834383401211731
0.776078287151829
0.812432400082385
0.768472397904059
0.882043273923209
0.850782930611963
0.858163815687687
0.822302585076877
0.826780051075467
0.806593153816096
0.821493494826176
0.813998872308847
0.837296541974659
0.855591615864375
0.823866367495449
0.847002361745165
0.828061870242942
0.836154746484684
0.838073112820681
0.824893665387347
0.878149959061972
0.830805903780516
0.830515474286243
0.831477026446988
0.847898699595982
0.834592731513381
0.884140330382294
0.863422819415235
0.853987514558562
0.832319801489962
0.865034121078401
0.871677179822012
0.864246810802624
0.825251179611246
0.828370660733802
0.828453674850784
0.846507814166286
0.81647401400955
0.871132610271688
0.878316848901018
0.859659085225231
0.842057370337782
0.854477603171577
0.835512866046591
0.856588324783289
0.854717010596657
0.860798208881446
0.855446925837616
0.864772696567746
0.868558989253578
0.873152213679538
0.870585124792854
0.888823666793839
0.897295317453101
0.895686279854045
0.860049279777076
0.867766542487338
0.859760637146958
0.875507247772781
0.866876474648792
0.845323880024376
0.838356600203847
0.855319598826847
0.82837939548388
0.832333755282737
0.883175210981344
0.816731555380493
0.849405530791679
0.81870414024698
0.796735714132371
0.798533194569968
0.793863302120154
0.792668960252406
0.788744669923411
0.795859909124232
0.782804109519923
0.779701619661521
0.774755601216457
0.769084793162805
0.764672532431569
0.781791392025627
0.765368450466175
0.759344563497095
0.763716132796967
0.753138732051646
0.757608408870454
0.760302074045094
0.753168604795098
0.767343104707021
0.776519831716807
0.772256028702173
0.801123816491628
0.7614194174486
0.767780397856868
0.7658074203469
0.747222053899319
0.759269166208187
0.745569052998524
0.755895489983705
0.754093353420002
0.750302369782822
0.749115360851424
0.744721452011461
0.745709325130833
0.757934314271069
0.747709936499071
0.747040923311549
0.753811578196079
0.74976769000874
0.748607881557004
0.751421180741673
0.749491028462767
0.757187605521252
0.752127906759261
0.748887134640174
0.753308222453372
0.74560377562037
0.748943352923869
0.753942525178651
0.758477684988513
0.754458484842054
0.745723302544519
0.759081794456318
0.738722984973799
0.753313341670253
0.73851845483315
0.748075003058065
0.74577263681737
0.744670104760687
0.740134669337163
0.743388406169708
0.729817430791843
0.734113491281094
0.719079820640455
0.712210691036926
0.714635643292794
0.717126025231364
0.68948773668536
0.702901051554472
0.689089381876417
0.68317288262375
0.677350387297034
0.678184628860912
0.674523502647372
0.67538723680187
0.66910162857417
0.67197059716716
0.661562913747409
0.666707680183687
0.652010830198842
0.665644122105173
0.657322101981996
0.657751396764343
0.650721119829994
0.655505634189848
0.653118405990624
0.652655654718755
0.64899989277321
0.657132291390276
0.649589533673105
0.658736501874526
0.656280734420968
0.663019590816169
0.669854780954977
0.66762204003939
0.667807246321799
0.672863109444406
0.667019633955074
0.674183619771681
0.67434896065259
0.680791660608844
0.682303186357681
0.689209736572736
0.687786343084494
0.697410600620594
0.693217743342432
0.690383505722346
0.691138870576429
0.694303020164055
0.698638425135871
0.694400421692059
0.699856623734294
0.690710727492819
0.688464322606588
0.688616480151426
0.693408196857799
0.687148420920492
0.687691721872427
0.691316576913172
0.68216987877276
0.682936205196644
0.681612918734095
0.680885740501523
0.675587223704826
0.672355487631619
0.668132643305267
0.664698608119327
0.668986163550326
0.668861374491253
0.664042578678755
0.659621136153233
0.657701385661336
0.657040757734766
0.654562468222856
0.65166280302482
0.649212599832953
0.643173113234845
0.649010678965781
0.639553249499035
0.644947872644473
0.638549644342807
0.636719754351796
0.635713182747106
0.633296316633908
0.632094869022659
0.62741854284605
0.623089854285192
0.61738298564191
0.619412939735599
0.620700654702897
0.613331694038165
0.608960917640153
0.606320147217667
0.604279762724034
0.597053315139248
0.591715834801301
0.58608923219144
0.584880121798729
0.580671932766078
0.575772075222847
0.57564751410199
0.566430638852337
0.563757229291593
0.564546280420655
0.555232228040014
0.55688573539317
0.555616365894813
0.552930736400564
0.547480368873102
0.549527469535224
0.548158793037693
0.544013790274766
0.548551766115291
0.540117011586278
0.537204815343721
0.529809233171274
0.527999581175544
0.520613268745603
0.514773662942024
0.505951703715603
0.500025204390804
0.492220575269031
0.495264522179322
0.487940045025282
0.486042577325454
0.48308205466725
0.481770709763069
0.483214751457005
0.489240886939924
0.493737598763655
0.500242273665418
0.513247035393024
0.531437856251888
0.538615791824247
0.553992791589813
0.571063901793986
0.591577534149148
0.612920004103279
0.629093674011451
0.652427689417832
0.674402762078636
0.694391281436085
0.717656583098813
0.735744918007988
0.757197897316261
0.774297526067046
0.796785388746633
0.815824622292747
0.838321860094149
0.858999833225809
0.877789191360229
0.887067647647341
0.920586746163849
0.931088497107659
0.942956882832933
0.956549894754657
0.96241632799251
0.983320548986674
0.999608404247609
1.00024838697623
1.01482020883219
1.03098756519745
1.03060952406912
1.02368626826936
1.02972995418506
1.04120863249789
1.04180879044555
1.03646749680193
1.03857810233022
1.04292124894185
1.04764421978731
1.04376733718689
1.05157577738972
1.05437336696758
1.04297488844994
1.05198778364416
1.04343712307174
1.06874616208871
1.05784636735245
1.07267348071893
1.07844396747006
1.0781166993858
1.10198227195811
1.10713259022678
1.11271718701174
1.12084620549517
1.12352921371594
1.14410144714866
1.15881619045312
1.16147406791559
1.1726602288811
1.19537194778941
1.20054864921359
1.23040904957739
1.24821017236885
1.26012005874463
1.26240053565868
1.2753468403929
1.29021575347864
1.28700762238332
1.30316624626173
1.34280059538598
1.31562778252969
1.31024614446815
1.3433524460432
1.31718100447357
1.32515105958944
1.31802610639971
1.30601308570112
1.28810140470887
1.28317747566993
1.30025755007832
1.31037446233819
1.29423791769016
1.30234145636254
1.31227302564818
1.33370866920506
1.34671377699743
1.39474998160381
1.43643849077861
1.40483807685757
1.41886908805183
1.4593001342423
1.4633994009464
1.48579279798914
1.48733607486563
1.51225678348905
1.57406540709011
1.56906208361311
1.58661041090398
1.58779160849899
1.60596373332517
1.63590637476511
1.69577657466272
1.69195407310377
1.75824951361952
1.79952631140115
1.78861639339973
1.81202887663867
1.85486957033874
1.85356837160638
1.95069465231738
1.96243667671875
1.97188878796615
1.95410243197641
2.08546378304677
2.07472528071721
1.95929168005569
1.96330440727537
2.07372747387015
2.07999377715384
2.11930862761644
2.07670575295334
2.11063775511449
2.06149026955278
2.09989429269879
2.16612291785243
2.04817188278521
2.00367210424535
2.03395300282663
2.0796788461815
2.23668515864001
2.01168701519157
2.10096539073001
2.06971441440767
2.09795859302461
2.13306618519008
2.14913521522429
2.09695201748669
2.19196290967044
2.21809753848418
2.28386612730663
2.12098747986024
2.34706015744902
2.30353845785106
1.98287081365201
2.12844774420894
2.28485080274216
2.35322307908658
2.54776448639762
2.20986014651915
2.4627142463315
2.22295683841506
2.53699392785306
2.18657979579345
2.2229330156547
2.27178147113672
2.68317618918826
2.35122162374981
2.42583398272815
2.25362154031806
2.30561872299082
2.38057354497401
2.42038924040928
2.37548156565597
2.39998124685867
2.35762919734003
5
2.56315610729575
2.77764929585967
2.9374437462163
2.73555130843109
2.33279438878505
2.60618597247112
2.24726141070216
2.29388282594799
2.01869803973206
2.48406572755326
2.24192485761012
2.32627302296681
2.31088220143863
2.61871098165115
2.37180024516104
2.46160743427323
2.04526095921993
2.13913045991193
2.17850443796305
2.22764751321286
1.93617789810076
1.9985611242289
1.86739341602759
1.9848486617732
1.83733701867005
1.94548965910347
1.77458379661028
1.9016672793455
1.93024880772694
1.9185174926875
1.76872502191693
1.77937536788759
1.66064705224638
1.72526843423288
1.73567730539753
1.81783913160329
1.72064076704726
1.6854018440578
1.74193859595302
1.74073116352069
1.62997707414549
1.66712055134982
1.58446389607125
1.57853959322875
1.53311696795916
1.51468097493593
1.48987538481695
1.46160181934238
1.44812494358115
1.44100535251826
1.37227934995196
1.33742894225587
1.27367927300426
1.242473509037
1.1764300224797
1.13155496738069
1.12431659165598
1.07541830538005
1.00373980971497
0.979599753175272
0.940285599002628
0.915963247744451
0.88408708007722
0.86105700496532
0.822066138575467
0.80213411763853
0.783142851414327
0.769991755146145
0.747599129016478
0.743560447322427
0.735608914329513
0.726506429039954
0.715357809142607
0.714299445463168
0.705408343599218
0.702753639371599
0.694318719582401
0.695408785021548
0.689626485961406
0.699981458272289
0.697492599749456
0.71020512089033
0.706326254792532
0.706384724024278
0.702417814216625
0.704204556030973
0.702847602837671
0.702985472181274
0.688165327992915
0.688860710063317
0.681403346057194
0.67017644837497
0.670107592854729
0.672078691166044
0.661985912179322
0.665949133783395
0.655606080394116
0.649518993850245
0.649182308495247
0.657749919503342
0.645760904791874
0.648890422886572
0.656345268540394
0.652299169314995
0.652555755330365
0.667713543643363
0.660658931866781
0.670377485770506
0.670394143550011
0.677186982859901
0.680164814796626
0.686414253806501
0.686509375690664
0.691782706726282
0.693666308030709
0.701844123086614
0.703069521685505
0.705757204397013
0.701391876514356
0.70376356696955
0.680453165799403
0.692223610712924
0.697109222502728
0.70750503952306
0.705273886285329
0.705458979890591
0.70003639062925
0.716153129874501
0.714999972548168
0.728446234295605
0.734943811028796
0.749514913760588
0.760436853988477
0.784150737095548
0.783550325000156
0.830376120834259
0.855275564964833
0.864514606851591
0.864078912926647
0.887087649478475
0.899278305996105
0.899309499061697
0.895874488304399
0.904449080698791
0.890435926146358
0.903316382661665
0.887544586432916
0.867088128171131
0.8560005992648
0.861849099591997
0.842866158513047
0.844325614598812
0.833583445357657
0.816415946497006
0.820524991624611
0.82480078109715
0.827064013455921
0.827569774245464
0.826373286722375
0.82782994742163
0.822636568939804
0.831911832875796
0.811803486738867
0.829664131076432
0.826720894882993
0.820484819814272
0.802140306394348
0.800433747278369
0.792893474546939
0.786247446331686
0.763703746707478
0.755746805540394
0.76534099060498
0.774992212056116
0.76876622127349
0.77315973360259
0.748249313740595
0.753963294294098
0.748439617146199
0.730827462340094
0.725469777433259
0.756668797439877
0.736422376140336
0.726269711901325
0.735052554735652
0.741130647029055
0.702377959453593
0.707097466201314
0.727942514281182
0.734735499874849
0.708985394623235
0.702159003692433
0.706736344414142
0.713609500297539
0.681358475116237
0.695324720416301
0.692318549624844
0.700812958760764
0.682441182350417
0.683949594459498
0.68314440779024
0.681706845416434
0.668081383271972
0.68050295680395
0.680311127968529
0.669151812255039
0.667897956548478
0.675349396753893
0.663118418378472
0.675729768822586
0.653061013003121
0.667871144563161
0.661917160344579
0.672354063282753
0.680228632805794
0.680478281668884
0.666300741001368
0.655797504305462
0.649526851503135
0.689698968061111
0.689559423996719
0.684830590575926
0.669206820674687
0.691610106101431
0.697156337753644
0.670579383550104
0.688948906454546
0.703256931365335
0.710663164752709
0.711058320251744
0.689508350021874
0.701236627645795
0.687670218478111
0.722379577635292
0.711159836149199
0.74225395016334
0.734410050371342
0.759729912669064
0.75298902544681
0.771652292717264
0.752689459243752
0.769743586308729
0.798772220430003
0.801977760530603
0.797058260427741
0.837286723779789
0.895563052221499
0.947551555976078
0.908351383815393
0.919970107424549
0.92483651377948
0.985308477606706
1.02225767991134
1.01455271853518
1.01072685230456
1.08799381872763
1.11177447145686
1.13668904773123
1.0602207702253
1.03904782166998
1.0796329114016
1.17350584282328
1.0396894936325
1.07762819379342
1.08811801898109
1.07448359231511
1.02760251552822
1.04158929300241
1.06748014389356
1.07976866790025
1.09574795085124
1.07505677941928
1.05625287386363
1.15957691298546
1.1033628643262
1.05234525751096
1.07468738601892
1.10172252767679
1.06304695464053
1.0476811528682
1.03745869255103
1.03676372883206
0.97303441104259
1.03487630004033
1.0383199582478
1.02980719453614
1.01319734356674
0.981424043098745
1.05685813441431
1.09786462971804
1.00441160854685
0.954472020565834
0.903312650783127
0.989207273287811
1.01499060352396
0.985095979589808
1.01385096813855
1.06813461046834
0.926413419906315
0.967904811998203
1.02301902739574
1.01590826052381
0.969272292548793
1.02261448766839
1.08230836791846
1.09647440138104
1.02192684019827
0.967080414427656
0.986794674708868
1.02787703651754
0.997907531466504
1.01899322443592
0.95281699595234
0.987012207267015
1.00782769456762
0.99277188719142
1.01312050643069
1.10394578662477
1.06188017278709
1.15417045369958
1.05941353864121
0.970621921613955
0.982166200900968
1.17831560483027
1.19755364465359
0.999993795898107
1.07252404489836
1.04167387568509
0.999868377150786
1.19226377411871
1.25700114216479
1.14697456862163
1.09746848567004
1.13220455393954
1.08119605075783
1.64414134338843
1.56813856047399
1.12507983256153
1.4634848822793
1.58520304291074
1.3852411693024
1.35011680663406
1.28633916910676
1.13388058554981
1.06476110909481
1.0832298752646
1.14719179389212
1.40919534218017
1.0838409607956
1.33045732285546
1.31254656276988
1.22832434511084
1.21947035882326
1.11893899511584
1.19102513369857
1.1513712407805
1.53804068891765
1.22619333969202
1.08867114413438
1.637201952867
1.82697602092573
1.31439537985766
1.19196019053615
1.30744192784247
0.916278002343377
1.14974769596693
1.45521427283235
1.37497549153197
1.21719986037143
1.26567152508351
1.28416824326451
1.23412572819967
1.29546838976095
1.3147137246066
1.37917229241637
1.71294498865369
5
3.76552745066596
2.25509472338644
1.59391420151037
1.31535730391292
5
5
5
5
1.09405841269223
1.53142090046825
1.05835720912998
1.13692297627529
5
5
1.37106979260286
0.637475504359832
1.13928812596154
5
1.14324635475703
1.97374005154266
1.69603574766429
1.09844389902908
5
0.891763915398929
1.29222221364125
1.10724797671653
