3596
4000,36533379555
650,420452594757
1
2
2
0,0160972309864677
0,0170678356837821
0,0221475673141703
0,0149119957151901
0,0176739792269516
0,0167318372946907
0,0142835792037133
0,00919401339412743
0,0164210511410923
0,00791382765444151
0,0135279880724715
0,00806142366274289
0,0140572893090524
0,0104644134927588
0,0237904038419796
0,0154980868110053
0,016652625228961
0,0173492298255531
0,0252060762220688
0,0116348292609084
0,00989435126147486
0,0198274801184718
0,0131016475624066
0,0156234225940482
0,0181317893092589
0,0107191970870429
0,0175257129775614
0,0140280196301047
0,0168773396615511
0,0240821800908108
0,0127609133162928
0,0195441282361735
0,0147819266527212
0,0119155489470385
0,0145708554194841
0,0138054472203562
0,0149051884120802
0,0153680535245453
0,0165049094609703
0,0254753026661917
0,0199858620218641
0,0108422067704231
0,00926945404453546
0,0153337448993203
0,0149619031178015
0,0150699422785022
0,0165253194791802
0,0171466250094414
0,0105174973320437
0,0105932122517077
0,0163559982542361
0,0167029632218622
0,0247952120309291
0,00858050372010488
0,0232815646510631
0,0132471861573679
0,0187553686258785
0,0191475159814392
0,0203863488597661
0,0222050860443444
0,021005849633915
0,0103576064092319
0,0156954226973248
0,00901675159402431
0,0196595835955163
0,0130168216864004
0,0217560840403865
0,012970327841563
0,0141029115978956
0,0153742178720469
0,0131773734554964
0,0173536966355143
0,0150206084751857
0,0190348910823913
0,0189513276170784
0,0160971373247881
0,0114900744080916
0,0244018225609541
0,0177583709812526
0,0177023428215284
0,0206528437059249
0,0249438920475472
0,0125627049637078
0,00410324818159704
0,0196626186871164
0,00868118564711554
0,0160597776947004
0,0227687847098253
0,0164348034745743
0,0170335828751359
0,0155241574951647
0,020794049199582
0,0131779802169047
0,0112326101671316
0,0121561191470378
0,0128781460298262
0,00804835086878517
0,0193388903825752
0,00915357695534506
0,0159167906283502
-1,90610554116695E-05
0,0302718054971458
0,0019848856980547
0,0211838831508185
0,0221186084169694
-0,00786097683968375
0,019257875221039
0,00597673546526999
0,0189499924261196
0,0111731408477333
0,0177800538683596
0,0116709078475385
0,0166235002716212
0,0142678260752525
0,0185873925822955
0,0244957918540934
0,00120632133608439
0,00850232197385269
0,0171243704123248
0,00781864715169243
0,0180015386305072
0,033066107818428
-0,00483576790805599
0,0245136710726084
0,00808233697923393
0,017859285328974
0,0227032815404552
0,0331399942758041
-0,00249935561946419
0,00627626543756544
0,00929352154118782
0,0112937999344314
0,00557193357015045
0,027733785943385
0,015258318810109
0,0124605594296862
0,0213812595873205
0,0163208655245033
0,0230024384164153
0,00251916948226295
0,0112890978046636
0,0123690337869727
0,0134411136575724
0,0144905486337836
0,000454737218667868
0,00825149252564081
0,00663704288359336
0,0183130461603888
0,0063332849490517
0,0144085498485454
0,00680120877487017
0,0197084853168291
0,0225959311954389
0,0163763479166084
0,0218491699706382
0,02283224708771
-0,0160737157287702
0,0383744016139216
-0,0168409329638656
0,00655140755049526
0,0039334560645313
0,00484045287223047
0,0174696019881794
0,0116239954644095
0,0239940693792877
0,00975857512454315
0,0210130296874564
0,00857712473894265
0,0173721437582289
0,00938854084738436
0,0180650341715806
0,0177432669137538
0,0190565227769307
0,0191680825839158
0,00327374454101247
0,0249299177094529
0,00449078766410376
0,00853471510990148
0,0100946262958947
0,0198608840903085
0,00272002354887483
0,00376788837501177
0,0124245654688539
0,0146838011856192
0,0163200010762189
0,0175278675111704
0,0111782192075318
0,0107814568764067
0,0225848949470806
0,0292820649732692
0,0237764464275783
0,0223738333810466
0,0177481435192354
0,0139934737793207
0,00683700215862192
0,0189312991132377
0,0291451989685211
-0,00257330199454171
0,0102498236200875
0,0099661611256608
0,00912846998481984
0,0132258805960587
0,0100611069485504
0,0246572825741442
0,00948027150543476
0,0261672841334784
0,00880764575865842
0,00966788778015728
0,0157417240596744
0,00983356311403056
0,0166635069115215
0,0249347275559166
0,019806208094219
0,00475574685228546
0,0168967218113738
0,00820577903836718
0,0218154254796229
0,0171453992801985
0,0110741884191442
0,00980465585923823
0,00637302191708721
0,0102748910474193
0,0138851738308026
0,0170616829103533
0,0152940411703468
0,0116345850734411
0,0217786763806267
0,0122694093130793
0,0162469839981297
0,0214690941030257
0,0122245240946365
0,0105492428110564
0,0211798324463897
0,0131724421600112
0,0160498689125993
0,0228016169050096
0,00434358186084986
0,0173678634057182
0,0183844559932019
0,0191339415888232
0,0160497162619742
0,0185179099316146
0,0150406588941475
0,0161868007389479
0,00574276796612793
0,0279173723337369
0,0222786535735432
0,0144857625823551
0,0242348496694186
0,0107604249958043
0,0272981839766104
0,00647056420169723
0,0130632579541598
0,00983174525125206
0,0146110698580247
0,0118079430125538
0,0277198166679166
0,0084125949426348
0,0185638812230141
0,0182286722325199
0,0222664903996463
0,0134861271261536
0,0267864258012997
0,00887945334025808
0,0319337254874785
0,001409516032836
0,011205208851128
0,037434005701497
-0,012226247575049
0,0100448630555442
0,0261787863980773
0,00755631756864796
0,0493175451238655
0,0122357181548142
0,00996276835795883
0,00740305698996046
0,016222060646095
0,0142777954771167
0,00910875552087064
0,01504462701912
0,0114417555490064
0,024082549086459
0,0138449785871752
0,0319967605806275
-0,00509650379456921
0,0156300546815924
0,05058517358314
0,00365779667149371
0,0272849374333794
0,0132222476418776
0,0255299064883456
0,0108394213544475
0,0338785228655063
0,012571236112953
0,0298004207051839
0,00814903588794409
0,0312338822445046
0,0105669121959541
0,0295862379037327
0,019868985937496
0,0329506646249512
0,0092225324187199
0,0274872116853675
0,019185163017356
0,0265437901985063
0,020682216442134
0,0168195547480298
0,037667467502173
0,04007106395731
0,0138812354728357
0,0244277260860106
0,0284876592546324
0,0161903066251641
0,021552207748415
0,021261684851982
0,0182899015858449
0,0262286348602977
0,020685888536034
0,0320953236837788
0,024839473467337
0,0103758782591597
0,0274355634082596
0,0225240495312483
0,0172539649372952
0,0244373157832401
0,0279048166763453
0,0253801391959723
0,0264662648141049
0,0302552360653226
0,0260650099260418
0,049934734320975
0,0257162574334731
0,0273770120943398
0,0426098143623819
0,0117939517874177
0,0324246392866225
0,0238845437549107
0,030299737649277
0,0305458399457483
0,0320387216959663
0,0280294627189716
0,0325551904920045
0,0398368315553864
0,035897815420695
0,0277244598058425
0,0460541760962203
0,0454010305943097
0,0442193541850374
0,026439901748157
0,0301993829630083
0,0270004777772898
0,0331294510542695
0,0586012569483633
0,0186225246458814
0,0520768079213758
0,0351636858841328
0,0473950578927208
0,0372712913076206
0,0451439585354039
0,0419104167803096
0,0451114610333856
0,0505844436723495
0,0461780624385527
0,0555630930122358
0,0511158281575316
0,0542697845801628
0,0504017631219048
0,0635044862262233
0,055679782940707
0,0540519243511867
0,0611723635736178
0,0599194625324462
0,0663242668092628
0,0814181124216166
0,0538425214504372
0,0957741705857216
0,0587137930625278
0,0890877811075381
0,0647287725107046
0,0681184823756677
0,0705749666401741
0,0691904560951173
0,0801406101032628
0,0787862129840607
0,0835340854700214
0,0779175253464885
0,0827447657461055
0,0866005157636371
0,0745423605487639
0,0864227870288454
0,0872902176060522
0,0931991097079382
0,100773611073042
0,0831625199396713
0,100632786561211
0,0967885256955814
0,121691459211163
0,117082411020639
0,107535475613659
0,0824178359610482
0,115012499697619
0,10142937598091
0,112164804244395
0,103249685710921
0,122521813228679
0,116980192720792
0,129337564959932
0,129250120272479
0,115668032126447
0,132387763875171
0,117552665798513
0,12098506107256
0,12822149153119
0,115891450880075
0,164518290938248
0,128753881345487
0,14015643762899
0,130947907636798
0,156912772228763
0,131525109111466
0,164408899374999
0,139393028203146
0,150009481566026
0,157201716229378
0,163538055602216
0,157116937727125
0,167409355034533
0,168796201851715
0,167699138720476
0,16384544331257
0,170107148679462
0,168009787616192
0,186243964571284
0,17499092679587
0,168177801593847
0,18626825400711
0,185885908572829
0,183302518590937
0,189675102891336
0,187866898470226
0,231965235780937
0,179916105409511
0,209101987706048
0,190564799597438
0,189539616485781
0,199428761288274
0,215760750997262
0,202483236420121
0,21525753204069
0,219180762293779
0,227569934560379
0,221056618086224
0,226893152332563
0,22909830256011
0,234132237523706
0,223504145844523
0,23964690913342
0,241788400806146
0,249469213579079
0,242580065388933
0,263045967460789
0,255158694672128
0,288712755151945
0,266581826292496
0,299882690474023
0,238558674395695
0,257305294497459
0,263857260911338
0,283367931277587
0,268654426877174
0,282303976765598
0,271132703340459
0,284140828582295
0,286630729148185
0,292954238372436
0,281062688430239
0,31129325619992
0,299165708196098
0,303276197721512
0,307794350276181
0,310668288949338
0,319828841398304
0,328493654290136
0,312797421465345
0,336689109795332
0,321030318009575
0,345218205370013
0,356557360859247
0,343416333555499
0,334421886080117
0,345199708574923
0,343820203425387
0,362153104584241
0,345212382621912
0,360380944481094
0,354889676701238
0,3729930443862
0,358186596869674
0,380408065151692
0,359424190988882
0,390725345740558
0,37630431743282
0,393703535157341
0,36942686525374
0,391567597583389
0,395340617785911
0,408482246168524
0,39562763341654
0,434296351028359
0,382384198866765
0,412319484180941
0,410034978317702
0,433176804099048
0,418965009168907
0,446053193324173
0,422086354267087
0,440514188407643
0,428082389513232
0,447679799159076
0,435500764776754
0,448658348712762
0,440738661297836
0,461037704675612
0,453913991878961
0,494127190882919
0,465131231906947
0,464289580706227
0,475954656062687
0,502110967486692
0,474832628788824
0,50082853051667
0,446275423787677
0,516329658063203
0,477065366619914
0,516901579639975
0,506050321517662
0,504590260706869
0,482662110265375
0,502190465036165
0,507669955595767
0,522968079965816
0,504697354676429
0,549467308837791
0,540780225136713
0,530351791087454
0,529656034635226
0,547681948011503
0,518508475905042
0,574380195944461
0,563018897486824
0,562722857518538
0,551775967998087
0,585113139514343
0,548462261506197
0,59285611184122
0,560091022855854
0,581563965670582
0,56921822279089
0,597429051073985
0,57930286741004
0,614545195427106
0,595122394279042
0,61667652970526
0,597082543841309
0,6006927640895
0,61306840851769
0,626107060719403
0,598615408804985
0,617867797844002
0,611804840991546
0,644682882163838
0,612909908383779
0,64625032614776
0,623078144521599
0,654862949927715
0,684330251692632
0,663023722278785
0,633129547605929
0,670229604861081
0,650687941802428
0,699961431377456
0,66812676180196
0,677555058590826
0,671928525804934
0,696329438226993
0,653371260904754
0,692357570063934
0,68797690103582
0,731829759478191
0,670182312417701
0,717480906424957
0,683052779126691
0,696631591980098
0,70119533626094
0,733782699541082
0,689615021272152
0,74689131143717
0,715763208760195
0,766389683378825
0,716577819896286
0,746678382956954
0,705062920460203
0,739602879708095
0,694941787222862
0,740356700533915
0,682389986443842
0,725868187400083
0,755278151216759
0,792673893628939
0,737052979410358
0,81347223759365
0,764634285982091
0,740057766086688
0,736178026257089
0,801320097714908
0,771594247155927
0,814520784961457
0,763803302228705
0,794195838744557
0,755461155686688
0,808928893998249
0,763398841069648
0,840169838567922
0,797664917511043
0,805939750555395
0,775414411872159
0,849088843536512
0,757634618470463
0,824435410410603
0,755829723334861
0,818223346578139
0,79782940132224
0,828900278761153
0,791859518624192
0,894930551844591
0,807361913027859
0,845467499093329
0,838603321205802
0,904233641316406
0,81656831393031
0,890168435793385
0,773977680255627
0,854013646833639
0,836610165921139
0,866782256369425
0,847756029670908
0,89918752883396
0,837374290069845
0,907776816367871
0,847766962452363
0,89105646593731
0,834178625570696
0,884710134804209
0,882571838517578
0,900842839859954
0,882494382461564
0,918616507665419
0,873467783477962
0,912724334858315
0,902085162467054
0,969656319376973
0,884764135482092
0,922797569410593
0,844142449843568
0,927261655607672
0,921588690176914
0,970792341871552
0,879160391312161
0,893107863752276
0,896482405719715
0,928244264040692
0,887994368368933
0,939295655269223
0,867014612081282
0,936058417438632
0,896969060782081
0,951030832666565
0,885943270691049
0,954568254909428
0,929889096575981
0,964365312851225
0,923156794948251
0,949415282320734
0,890384630885912
0,945209831586716
0,865477582373103
0,999875565654182
0,950489730425481
0,984651992702839
0,967215254710175
1,00432539370093
0,930511644010401
0,961451153789822
0,894402401442504
0,995647282079311
0,928180866793303
0,956008800026233
0,946524392474439
1,02790922675734
0,945910722597972
0,985943057608615
0,952550205624981
0,963085737813393
0,93886341946742
0,977494235475383
0,939014586158611
0,984607853070787
0,994648203911191
0,998297169864092
0,918210927597222
1,01193421940898
0,956994784107514
1,00100890765264
0,908095845659805
0,96756775424053
0,969294696934204
0,953405469905259
0,974959624898358
0,999473426605291
0,933763842935774
0,978095764885217
0,918497329670299
0,983363208936192
0,9513245595621
1,00803990558658
0,957047898998207
1,01314697577927
0,946802279058701
1,0303941112357
0,966207148674643
1,01760825201409
0,946828920827413
0,970202225164356
0,943547657221035
1,00546602617608
1,02982131761198
0,991172173921474
0,987131061026841
1,033310693718
0,933967078987243
0,991374784325686
0,985016017603824
0,993698450475221
0,968559726511179
0,94816265067351
0,940487810851562
0,976690309662573
0,956745104300068
1,07821356866951
0,985692034290728
1,00806367902318
0,969778940894241
0,982115227246004
0,968801049856164
1,02406182561713
0,945814423207086
0,9831657834811
0,96228866991436
1,00659358186943
0,973369685832383
0,984314707312635
0,986698070089125
1,01404025127764
0,940634779270515
0,981038914525288
0,930861487996839
1,0072774810152
0,958859617306198
1,00102492111438
0,986964353843925
0,991159833477885
0,959350836859155
1,00053095954919
0,942139328247248
1,00254559207879
0,964518361792233
1,0299236469796
0,969835031701516
0,971483494983294
0,921154052965399
0,993046199322456
1,00826018397741
0,994752432688309
0,943975970267147
1,02227982364748
0,942307087007355
0,998574062394594
0,969366841288903
1,00899324151283
0,921352540142333
0,986131092846752
0,94817892595075
0,971287113469084
0,940308879225969
0,939140397436831
0,920455478385924
0,994185628131711
0,911739342092148
0,95691793530447
0,931568159175116
0,960243827504393
0,94250710865658
0,965928822673341
0,921714299613284
0,930955111827216
0,918444255148265
0,977464496208999
0,939113414446206
0,920024185958245
0,929248838248352
0,961164554547858
0,932868965439694
0,970553864109636
0,892757008901357
0,928436335531909
0,91412755164236
0,933350782480077
0,924658979172477
0,93175807818639
0,920416418722949
0,904753643850355
0,868112909165839
0,904626087948139
0,899619694983268
0,910745114215322
0,914076286844473
0,941964100651175
0,886596856456795
0,910918246329776
0,879767829549519
0,89404335301658
0,875793006655932
0,882078184357854
0,862275378397854
0,886509893072026
0,854306301056885
0,8693672688892
0,846361693241958
0,883899367343884
0,89418171217932
0,901436018893511
0,83920561428438
0,879799561065535
0,844169351065785
0,865529231112749
0,866780740215307
0,877565477296644
0,83568151817954
0,855558305987549
0,820849816433219
0,853535203885513
0,844124834871624
0,836827452472632
0,822624543231588
0,827714812021268
0,809302873728945
0,870070368618476
0,832929099233026
0,817042660119546
0,815017568380709
0,819215746447782
0,793215429589307
0,821932658432802
0,809845418733936
0,810523976462849
0,801283239984758
0,810566599563249
0,789268760005017
0,789066570273466
0,783977774653746
0,789154138490782
0,765692038746455
0,803825722355333
0,789060364294271
0,795273496333693
0,769244297974451
0,774561484424917
0,790874851559864
0,776000957374319
0,754091529356416
0,78354367420655
0,746333204113836
0,759981264173185
0,74245439456617
0,743111108389289
0,734674016126114
0,7285213217019
0,699004495864188
0,733682998242937
0,716696201855442
0,717873677004096
0,715037002377808
0,738344432953077
0,715958508742269
0,722924484569228
0,708442086130101
0,703770093639137
0,69633115251825
0,727380854623169
0,701763363584671
0,720216523470299
0,688783611720734
0,675401459686905
0,668206790529276
0,687549727219338
0,664414105579157
0,675619875670632
0,644091872104217
0,655950336027758
0,646743457343767
0,66703061570764
0,664016345872693
0,653884198529479
0,653206644361878
0,654457133392285
0,640382111783553
0,658432396287794
0,651941092256934
0,649450596583448
0,626569495262362
0,61400884849551
0,621309029226648
0,619230888807978
0,604090223897292
0,616808803197154
0,596109988242239
0,610774469911282
0,611287196569363
0,599397430879497
0,600745011455666
0,600604635931058
0,596173676775761
0,592259319374281
0,573267194859146
0,58656809098999
0,578143388040096
0,580452237176995
0,58300421510326
0,57168223703908
0,555781033701208
0,572368559579991
0,566859205936972
0,561483742496327
0,552038890683569
0,565263738678826
0,560628552797619
0,551949307488597
0,540713679446958
0,540349632241066
0,535621660948099
0,540065387954664
0,532912432295238
0,542695701547622
0,535953905449952
0,526535767802731
0,516974727788117
0,534976734896881
0,518486791381096
0,513228014691287
0,510621850201304
0,513464575178536
0,503376850929016
0,50616727351818
0,49897851817566
0,50518014720279
0,491356789428705
0,502151205419019
0,491003600022445
0,494683382291935
0,489606320440753
0,486080194493618
0,487444156051538
0,486063749326674
0,472091083007523
0,477832746906021
0,471707871344007
0,471951699922008
0,465894778208219
0,467402720251912
0,449419650726815
0,455160848386337
0,448174617388486
0,45481961779186
0,451047425116163
0,454283335704256
0,441364118417749
0,445255034597004
0,441210456533761
0,440147503281224
0,437978150256402
0,444552303731604
0,431881928041564
0,435208066448243
0,433701949118563
0,430912992229708
0,423540863033718
0,427943451493941
0,412641768684221
0,41808664039166
0,414615229424677
0,412021029960926
0,403789844435451
0,407688012110111
0,409739068166097
0,405036056158788
0,398857613399459
0,405153178560215
0,390338033145568
0,392335622722063
0,391273647434733
0,38959819614944
0,382957990400154
0,382508603329644
0,380175798929115
0,379350093005931
0,377057776797315
0,379108995699381
0,367119639001647
0,36941516961591
0,365924068699686
0,363917677736758
0,357168960547136
0,360382638920492
0,364313566369253
0,360887683633997
0,350534387420494
0,357502812901763
0,353626009003527
0,350562312047205
0,341176345465259
0,351679099988653
0,346172609598557
0,343658825865976
0,336064014716562
0,338652165182786
0,337465464460279
0,337990358404744
0,337400855500544
0,328806495982598
0,325755316539758
0,330520033093192
0,321434091950017
0,330623027387541
0,324195605471785
0,312424738226017
0,310727487040174
0,309895316652653
0,310278642286691
0,310749540446658
0,30322375890817
0,30936399763615
0,30252883631366
0,304658007832398
0,306297997511343
0,301002000175719
0,296589680663839
0,301252572926916
0,302176605855296
0,294133059114485
0,288685159136646
0,29753521747666
0,297745257352735
0,293650918402663
0,294610031333122
0,292214394332468
0,284555375212312
0,284181738663759
0,284443842023077
0,287754012138753
0,279167191485954
0,28616504083265
0,282498512704937
0,277742847949822
0,275391879315407
0,286037998451869
0,277995224331316
0,277657352124642
0,278512097360437
0,277093582180591
0,275856345804879
0,28242191575347
0,282461319241113
0,279624733337188
0,279135848128676
0,282968170267392
0,278060294164254
0,280940306601652
0,277514147768065
0,283282995291292
0,283277378478875
0,284060138495979
0,281393625513031
0,282487885151641
0,285936162597417
0,289328192480276
0,286715008368507
0,287814823357923
0,287654364002862
0,292601204232553
0,296725867600905
0,298474290325421
0,294587417956554
0,301540808841065
0,296691305820293
0,296279626490754
0,304388180520352
0,30280267418178
0,308046217959049
0,313841389555152
0,308002887197592
0,313054940954693
0,309725396292181
0,31252965391258
0,3090162115832
0,314757006217152
0,318361011909347
0,32255704641871
0,315090967885706
0,319463987349436
0,32629493930275
0,328898214584218
0,324869167838474
0,339759848003458
0,336180419170589
0,332634663116049
0,333081716882067
0,342797971840645
0,339988316528038
0,340083566378764
0,341382855547775
0,347381527971879
0,344741393801984
0,35742515095712
0,363828994092326
0,366380873175606
0,36657753876381
0,366245587375057
0,369460475124675
0,376254526651793
0,369750745775811
0,376939325638941
0,371778635829819
0,372157967123308
0,377906643359595
0,384726488254993
0,382601556414051
0,382508664222516
0,383232371562892
0,389690177860492
0,387702857420632
0,383497164883653
0,388033017764358
0,391088926406684
0,378927227211512
0,384219072210614
0,386009667018879
0,393246437656722
0,385546215835444
0,388415121557369
0,383039923375315
0,382459173979094
0,388499024463054
0,390315675154146
0,383126627018348
0,384670809329879
0,381865058605794
0,38705203195133
0,378561504722041
0,373891631241705
0,378527255608431
0,382649860235325
0,383031353245056
0,377798880979493
0,378618368395078
0,380216420662017
0,379493303937686
0,386301023650783
0,382148583785557
0,386433012497447
0,382053908611221
0,384199925378664
0,382189548294435
0,383211065545434
0,38101488874471
0,375289523674521
0,378506025736743
0,384241157239569
0,37918723563376
0,378795006609521
0,376564828972375
0,382383387713653
0,381967980715757
0,384395362202565
0,384162188246775
0,380276655181481
0,379200326514671
0,383363635109403
0,380362593915627
0,381214262082137
0,382383246308565
0,38209661969416
0,376250265522509
0,387298267297945
0,380273808506205
0,37319568494723
0,375752393078477
0,371518983759587
0,369436567526296
0,370529991117057
0,362899762664118
0,36348978918516
0,361775564921651
0,357975202159182
0,357550459807618
0,354018181381263
0,352684026140851
0,351525078413841
0,346564874017105
0,346689035543394
0,345746955980173
0,341676392116723
0,335773422539295
0,339925865631994
0,336812532047696
0,330878290903526
0,324005391737767
0,321434639282456
0,3198882949242
0,32254467404465
0,317722414453095
0,314455233179704
0,30851674046379
0,305755010026312
0,304058316833882
0,306185822556236
0,301668879620169
0,299230764893804
0,294880524215379
0,291450360247598
0,28252658938437
0,282115704171168
0,285012490946198
0,28438435214411
0,274948121736379
0,272362298558703
0,279225024077489
0,278005947347701
0,269255245017631
0,267457954415337
0,267623436717812
0,265331835573025
0,259792345633166
0,262475269476141
0,258731737383211
0,258424887117707
0,255496101463887
0,255745883821065
0,250956843741011
0,250997549688296
0,251214581958064
0,254396558287746
0,253497830656665
0,250386248875501
0,24271454568486
0,242865469592067
0,240057883194682
0,238422469574631
0,242178370715161
0,239849203937767
0,237187949474361
0,236672923115876
0,231200357373335
0,230510000108815
0,229332576787896
0,228996001649649
0,232417038001044
0,228206269409259
0,227218210853583
0,226327132490576
0,223796284675729
0,222772575714346
0,220720230426779
0,224503426195446
0,220664146542603
0,2228403244125
0,224767404450144
0,224491153066493
0,218791500847877
0,213872047665911
0,211442027788593
0,212669308756656
0,217829997004727
0,219446261946184
0,213418116177868
0,214647420976214
0,209604831504944
0,210322698683666
0,20953001968458
0,209318549873836
0,207896762415576
0,209384008602357
0,201457623314175
0,204077852035258
0,205041719923931
0,20359218055712
0,201271365679778
0,205310846958753
0,19753010284291
0,196303642912554
0,202545431864155
0,200208807382257
0,19526212885108
0,196638165500674
0,196280350826075
0,193653930414128
0,193426055126821
0,196421758253232
0,196341103687733
0,192086141997961
0,189967042523427
0,19172532324042
0,188823472735363
0,1921834452418
0,190642541305373
0,189235968598707
0,186804816329611
0,185233878904663
0,186309397079898
0,183896515452335
0,18349333422301
0,186895795581489
0,18589476958268
0,185311461753579
0,18125133486306
0,181525746715715
0,179651706127213
0,187105775974404
0,181028661797194
0,175886620390208
0,179739591628786
0,184066042452171
0,180907405126757
0,181471368286507
0,177346981754237
0,177708266270771
0,180209589784015
0,179262629412768
0,17451280823523
0,176113822852082
0,178216257054889
0,177650965008278
0,175882678827836
0,17508009648944
0,175941745570301
0,178987609178339
0,174872971742563
0,171626261899814
0,173804799702629
0,174489806286566
0,169736158838241
0,172659133378655
0,170142942015279
0,171102156370485
0,171588699510235
0,172240765256212
0,172018748645249
0,168291851364386
0,16974235127951
0,17231689007178
0,170815160884918
0,172323569122311
0,169384044145382
0,170260691447872
0,166709920026122
0,166073901756663
0,171989348726327
0,167710159332742
0,16655595398255
0,167978843147188
0,16880117530838
0,167581782686679
0,164580241545255
0,165486458611899
0,163231491214651
0,163196550907149
0,163655507319096
0,163457556161666
0,164141517570164
0,163825183224412
0,162047097064843
0,160406392134141
0,158861010109117
0,164695069511023
0,1632990891212
0,156683651462737
0,160099607257411
0,160381114509006
0,15866492810469
0,157899359266731
0,15658021917319
0,155402393933214
0,155758932039769
0,154745695053214
0,156099052925222
0,153635652285448
0,152039092769269
0,156148287615758
0,15334607776912
0,151190222136254
0,153373748623354
0,152819406989585
0,149588145022891
0,149959406195074
0,150712470277336
0,148494888622097
0,149172548491008
0,147983882093264
0,145116683575375
0,148994488605254
0,147877500342948
0,145480552241986
0,14519844886237
0,144393104921498
0,144111892508163
0,146003941871871
0,144041345531258
0,141856095750645
0,138647842806714
0,140829359186309
0,141576806119534
0,140619319967302
0,139393671523913
0,138884413651183
0,140449728065567
0,138481085445249
0,136389780856359
0,136805218413231
0,135606414116078
0,135139124846713
0,135264219343309
0,137721084024628
0,132480910826362
0,133033881439519
0,134547021157349
0,133837191619566
0,131644840035687
0,131368807418973
0,129594143257215
0,125550192205775
0,128786972459601
0,126948445887288
0,125911268231826
0,129913558314774
0,12893503851324
0,126023555685695
0,123636313618218
0,124106509522195
0,122008647046471
0,119373835187714
0,120733919460818
0,122186647191996
0,123099625588236
0,120103238026246
0,117849166729734
0,121120005514014
0,120744874820939
0,119246662745606
0,116919076964625
0,118553456109456
0,115453014630196
0,114966777272745
0,115662835205687
0,113068260022686
0,114788140434637
0,115668964938766
0,113903404012605
0,114082803921911
0,114488363194348
0,108393432460092
0,111173318025062
0,112718545424151
0,108454515060307
0,111587065884637
0,109536163404202
0,108543484565629
0,107415740625353
0,109531094317348
0,107906696425294
0,111711602667538
0,104248148215327
0,105131965107679
0,105292170440253
0,107049277130351
0,102299686194672
0,101449287918105
0,100706240222929
0,101580598105335
0,102574208668418
0,10234674975161
0,10645396960053
0,1028515882808
0,100354285452713
0,0999858875081909
0,103738877010284
0,103003262962909
0,101453887866876
0,100395002384547
0,0978587193930912
0,100315210523045
0,0985735649397071
0,0966133387797491
0,0993545689100023
0,0996245688695701
0,0978787160262092
0,0981496970344232
0,0971645133124958
0,0988120003300966
0,0949719367280498
0,0924790950582261
0,0967795436918496
0,0934711318689199
0,0957528668627085
0,0967777649349129
0,0956258820407339
0,0970683973854266
0,0939265793173287
0,0949271390670132
0,0903422211489051
0,0928155671977907
0,094509154153939
0,0917285405255321
0,0942609311606583
0,0924771026118769
0,0899255073871655
0,0915016242595689
0,0893264653565029
0,090206537164362
0,0906449435598635
0,089510964455845
0,0895115963729969
0,0916777958920588
0,0927314801434601
0,0912459939394585
0,0892161138753682
0,0916582209545039
0,0902068672905116
0,0891188773853221
0,0864173940681191
0,0899028696967892
0,0867235590196048
0,0879805114589263
0,0923187498080889
0,0872146730966508
0,0862668304110911
0,0849589091860096
0,0872445496449989
0,0888232353247503
0,0869608726759484
0,0868264496704525
0,0849411716937328
0,0868225579373717
0,0870027130447796
0,0857874569266299
0,0851059164879482
0,0851075821295753
0,0856716288439251
0,0843615836995126
0,0831818936300018
0,0833218234640086
0,0838654745701954
0,0870915091186329
0,0825813338930689
0,0843736704882657
0,0829065604351309
0,0855819058131323
0,0860965410521139
0,0828556536220832
0,0814576352115098
0,0828002080567302
0,0803773860805997
0,0833889984087512
0,0810231538944445
0,0836027981045631
0,0832435437952245
0,0804096163004495
0,0807933621203377
0,0783195619622848
0,0798145311438639
0,0812566671758589
0,0806444794188499
0,0812856445962571
0,0772293836451589
0,0795427633114388
0,0785712211247194
0,0800011967859599
0,0799423265452512
0,0777167463339229
0,0780058811729084
0,0796433933819734
0,0779129705693163
0,0748513484940891
0,0792665118048946
0,0765458056223496
0,0773155872697185
0,0777165377371544
0,0763780191407282
0,0773826611749015
0,0770326445178251
0,0776832818300656
0,0775885719755264
0,076453452054731
0,0752263707896889
0,0811265860741116
0,0772207204394841
0,0739873661539923
0,0745675729077867
0,0754977868634749
0,0731445772304027
0,074243850041155
0,0750719064302085
0,0739343789960605
0,0714931144618852
0,0721014134826459
0,0712167468166844
0,0729874338501407
0,0719870007228427
0,0714305197514451
0,0693529084433535
0,0704621256044759
0,0681597925012116
0,0721113956920609
0,0716083806987622
0,0698444677979027
0,0690817754630901
0,0698330595031863
0,0689514604456426
0,067995892841962
0,0677604109104547
0,0702395201364307
0,0674573382210572
0,0675023096061546
0,0671060225690809
0,0707016753862656
0,0673742814429824
0,0673882976392191
0,066041553371267
0,0655465458778887
0,065385002103505
0,0643036038469949
0,0637686244532104
0,0666895585737929
0,0632975444552542
0,0645836174351145
0,0647100986942988
0,0673911096321147
0,0629165095894219
0,0618213128384041
0,0638800003358816
0,0646510282125398
0,0610346073224936
0,0631482019993104
0,0638330163318029
0,0617597691400909
0,0589203766227364
0,0614186751916993
0,0607964534289466
0,0606401774419564
0,0596920165059092
0,059139108158529
0,0584092186548029
0,0592266524201003
0,0591473590496155
0,0607276665836236
0,0578968295818466
0,0603407995174041
0,0578587084769981
0,0592205822479698
0,0581106880484015
0,057825368361794
0,057501544481744
0,0587395512879171
0,0554195408714389
0,0567515714497659
0,0558864524400423
0,0554210256498505
0,0563828568988074
0,0555666263483349
0,0540013888520732
0,0574363862997394
0,0547357249080968
0,0529769446381906
0,0537868569114896
0,0548338653228091
0,050871847519439
0,0535506520358526
0,0520236942695507
0,0545848493360041
0,0523672198822048
0,050839834164514
0,051329536984919
0,0539229127181985
0,0531860698669007
0,0531746815976135
0,0526146377939517
0,0531674330665872
0,0509055087623484
0,0510519822946401
0,0497103362513912
0,0525329717601677
0,0513692113152499
0,0493237063963427
0,0497658084674211
0,0514606299962796
0,0498747873783246
0,0501828690925429
0,0505661854266955
0,0493085668977803
0,0484431761327624
0,0495916118962629
0,0488600802727978
0,0490129009832106
0,046800028272936
0,0485142450862774
0,0483324617712021
0,0483283237945315
0,0464947031385185
0,051637944704648
0,0485045376324539
0,046030458258205
0,0468175755410532
0,0489667728575306
0,0492263754848745
0,0478102294190607
0,043873997822232
0,0514469488386168
0,0467163108402063
0,0462452253826203
0,0458962567208164
0,0490606415947077
0,0443274443356905
0,0458684468426542
0,0457534385384997
0,0474317809934528
0,0434091078720799
0,0499653104548836
0,0458287368409616
0,0483328047654465
0,044263730318006
0,0472607661200308
0,0435452573451068
0,0459495381682155
0,0469871714289489
0,0462356248652706
0,039777234709852
0,0443218850035808
0,0385313913893497
0,0412175501414047
0,040419160879337
0,0420148185485819
0,0385601398921659
0,0465232581591059
0,0402194224077559
0,0437514258817158
0,041515200222339
0,0454270371523813
0,0413002064105179
0,0451894192974984
0,0396164025005132
0,0480920105222324
0,0409419497538124
0,0446195698202939
0,0411977145532584
0,0475024520529519
0,0385605561862693
0,0479917807685914
0,0414324800805428
0,0475596352959999
0,0366748064491036
0,0457684716583927
0,0367314433977575
0,0495767680472146
0,0350078871264256
0,0463569546001937
0,0344678572795251
0,0441727882025187
0,0337127606645531
0,0456341142464476
0,0294935051661192
0,048933305177737
0,0373471535341371
0,0480341375938083
0,0343956714827361
0,0467615361685211
0,0346606322512975
0,0493580716379393
0,0346934740254439
0,0466677038332013
0,0310753754049849
0,0454038467742502
0,0380055071546615
0,0448098172447472
0,0350276777699199
0,0415694260166603
0,042472872082988
0,037263263762936
0,042040375718376
0,0357117833871566
0,0484772732055839
0,0336765068294323
0,04935214321617
0,0347864578168635
0,0495994745985919
0,0334470451995381
0,0449479348681268
0,0375633374533468
0,0462686181266609
0,0389745625610085
0,0382016406613504
0,0412301288048782
0,0398986032242968
0,0389280006381627
0,0412579126456173
0,0401240345696462
0,0398758927675641
0,0389712047703577
0,0433461850161177
0,0370823907396952
0,0399066811707145
0,0392054479775203
0,0415504667960881
0,0372851795505954
0,0402444381379082
0,0398267438817557
0,040668961891714
0,0385114622183917
0,0413847525238946
0,0422314033176475
0,0422619917745207
0,0402453787320035
0,0413074569194576
0,0387491143037329
0,0417597312674791
0,0397528775080724
0,0401693429006482
0,03928369327166
0,0412371241153673
0,0414866719770325
0,0408795108865395
0,0398453390532963
0,0395996193118817
0,041427768298747
0,040230039063859
0,0398539159401897
0,040967994370222
0,0397133374695284
0,0414335373068616
0,0392693689472602
0,0395141676462992
0,0398074448977186
0,0401701444519489
0,0366515453269071
0,0438527511365059
0,039300676319354
0,0415474390070221
0,0392450711046527
0,0396002935430372
0,0392796421009205
0,040602925224475
0,040092119137011
0,0417929616269635
0,039484458059
0,0417579478240301
0,0393552048165818
0,0405327506919295
0,0407995680296984
0,0414268346605788
0,0403951001881265
0,0416111240245468
0,0403753982692721
0,0424562032824943
0,0406884512062765
0,039465045994467
0,0414643485519773
0,041564485915474
0,0423727852011735
0,0402056686524623
0,0394022445336613
0,0427005665283998
0,040629995795331
0,0438221850145866
0,0389738871121303
0,039746042483325
0,0405457488538657
0,0394069550331081
0,0398050481708915
0,0409807715491959
0,0405877003948582
0,0432874854899406
0,042450201829107
0,0394841457673594
0,0384525176275948
0,0420304836135882
0,0426410422810646
0,0422377254854194
0,0418291227547886
0,0422447814338262
0,0405724820731799
0,0409317726737508
0,0424690028664143
0,0418451368427883
0,0413719457799076
0,0413399410616302
0,0421956206073366
0,0447271259093393
0,0410142439506724
0,0439166937518
0,043578928953419
0,0438239736744386
0,0434008264138331
0,0427752026482214
0,0409642642921572
0,0420810021293998
0,0430235931512935
0,0432173519252634
0,0450807106267196
0,0461549024526206
0,0457444123573805
0,0408388405050507
0,042304589473019
0,0444562734379076
0,0410184708757666
0,0448219712583927
0,0449023465671711
0,0421526574364599
0,0408598696456406
0,0425684406064273
0,0432939881414142
0,0422539435577955
0,0449295506981159
0,0430336849369545
0,043485605252278
0,0426543492096658
0,0417026481205036
0,0476281599186016
0,0432207150237476
0,0442333858434672
0,0443820878742789
0,044602847091732
0,0441168752194743
0,0406589707085198
0,0430402916087642
0,0452765192049661
0,0449667336927408
0,0458295738090318
0,0465563192758028
0,0433161707537295
0,0453037468667762
0,0485101194606394
0,0450067242583577
0,0447525184988091
0,0461231994174741
0,04430319057283
0,0455689067936275
0,0462353852483043
0,0453303943335822
0,0445056112316488
0,0457042338647052
0,0450919861220271
0,0447243884568289
0,0455207630172701
0,0456469041796894
0,046771634207282
0,048240308260321
0,0460922001124214
0,0444537738837966
0,045608037744729
0,0467583668036365
0,0482866501520928
0,0476195495610447
0,0474162083844564
0,0468796820682397
0,0467180993965272
0,0458737753896672
0,0470186438539796
0,0460490922107598
0,048940990996843
0,0491048406651344
0,0470307092139192
0,0476044724519145
0,0456360768950877
0,0455194111805027
0,0449635446097997
0,0440760036216116
0,0473930263294265
0,0443898175350632
0,0447633760444157
0,0468661157182488
0,0460465691149597
0,0454627500905974
0,0453602375821707
0,0447391826802805
0,0465695025702193
0,0459065795427038
0,0482536112282699
0,0457891403887575
0,0451608849722995
0,0424575570779482
0,0468071090535138
0,0448997806254143
0,0453154533308467
0,0445516868429801
0,0453591204500244
0,0452199127953069
0,0457205877181106
0,0445820457602564
0,047345394441621
0,0451693305180589
0,0449459163407544
0,0444137185060189
0,0452896119288318
0,0413892748757085
0,0436517818759116
0,0430172113342845
0,0447654463251026
0,044120546193282
0,0430385078289463
0,0442064806873823
0,0439229026227216
0,0447594282026567
0,0447001548184714
0,0421823257821397
0,0425161338220424
0,0442815209149819
0,043074739640479
0,0433517908066376
0,0458623565731228
0,0446992694559148
0,0441684650590408
0,0444050432809487
0,0438684903807931
0,0418348307200397
0,0445059797259055
0,0428936825477793
0,0423070499729482
0,0426560545514648
0,0427623445905778
0,0455750825511207
0,042606364434568
0,0402835156921408
0,0433121970138952
0,0415952378174006
0,0419006005728657
0,0413247462385015
0,0430426641946842
0,0413269254986178
0,0414216618618168
0,0420528814443766
0,0413760304647796
0,0408295493807602
0,0428618570760746
0,0418452522933831
0,0451915069198564
0,0425021785242893
0,0410631973312426
0,0414370533880547
0,0417330637036193
0,0438793830134034
0,042409140163858
0,041779850489661
0,0445454909549342
0,0432731937782415
0,0403527476511717
0,040764605038634
0,0429657801067732
0,0417964770912244
0,0418653072571358
0,0423920955048731
0,0426911526200413
0,0410753158835388
0,0406968313977149
0,0416496778740985
0,0414949862432072
0,0418918053082668
0,0396659702735115
0,0412071751091814
0,042013411336099
0,0413973041949774
0,0412732909903432
0,0399713498217736
0,040761846691593
0,0395199174945613
0,0414567827848615
0,0391241612131106
0,0415614664801509
0,0414809484096963
0,0407643620303547
0,0408932747864386
0,0379027050412851
0,0426130037597015
0,0418587975998846
0,0410205398506357
0,0418766473961509
0,0378829741786002
0,0387757027487574
0,0405897872723164
0,039011633296943
0,0412367644706389
0,0392851769440221
0,0411522569423916
0,0403479562994616
0,0374886757121505
0,0378067197520752
0,0368205537049004
0,0400822232174578
0,0393745295594143
0,0376248759785071
0,0392170599002877
0,0398150746701644
0,0393012002825337
0,0374085660517324
0,036412620769741
0,0402098575905907
0,036370273807394
0,0381956901543472
0,0384188235457627
0,037180682269636
0,0374448348346614
0,0374099716070443
0,0371626510726273
0,0374910960244184
0,0362808271142217
0,0364092524146186
0,0346208121377346
0,0355009805174132
0,0364886397093567
0,0357913335431953
0,0340154787009766
0,0350719032855768
0,034430177561898
0,0341998687851326
0,0348170277391862
0,0361192888119157
0,0338305310485823
0,035030753681061
0,0308424286561195
0,0369586401884347
0,0321444022393195
0,035822060715351
0,035679576573662
0,0343028833562587
0,0346733212870984
0,0342385231478703
0,0332390120392218
0,0345477695982768
0,0352754146543856
0,0334889115788964
0,0372295387348387
0,0329645857431468
0,0342028114450777
0,0331691492919435
0,0347164843449828
0,0328941375094555
0,0320513367297675
0,0311911400050467
0,031337330435389
0,0341389266731693
0,0323068734056731
0,033042484426642
0,0339562041288093
0,032750169279332
0,0335580835176108
0,0330171338886712
0,0291367455919873
0,0329444098938466
0,0321938378753067
0,0336563100368452
0,033101908442623
0,035831148502711
0,0335382611387991
0,0306466171360744
0,0333552116028378
0,033820254463239
0,0329268130864844
0,0309384170836525
0,0327848830955681
0,0334991403694506
0,0316350401880135
0,0326502909503135
0,0323948526225469
0,0331765321503764
0,0299883317965937
0,0330636802066156
0,0306750932928826
0,0317181382120284
0,0294760489475027
0,0336240136802453
0,0336112439587653
0,0311845141770828
0,0300018427906811
0,0282159490129081
0,0310495928480279
0,0295038116909628
0,0306986786418653
0,0328065191598097
0,0271395489645528
0,0339119717785335
0,0309001056893274
0,0334634305465179
0,0295266907774495
0,0317430383949402
0,031030047854034
0,0302230700777619
0,0310252725391195
0,0300789669967768
0,0286632252460748
0,0287806720916001
0,0288179889553833
0,0324683633531308
0,0271347520799816
0,0302212669087193
0,0301457471535275
0,0302427053929979
0,030780541628244
0,031153104199635
0,0314756835564093
0,0324199211068218
0,0288830779008982
0,029705384656276
0,0306511631464049
0,0315684159192171
0,0256957159943571
0,0285711003828675
0,0284854214770732
0,0305700962481375
0,0322616324133
0,0286603171345945
0,0312046821859479
0,0304569117014867
0,0342673151591147
0,0296165989588421
0,0296105107141007
0,0304935341733702
0,0312752322433782
0,0294452620411201
0,0310618251638788
0,0306940219576982
0,0283033522355345
0,0304327731033136
0,0290296396686559
0,0294693782932405
0,0283207327656992
0,028546214260471
0,0295431748107061
0,0294118531637761
0,0295761603830603
0,0294945516188726
0,0299366106638126
0,0295448600835109
0,0317657295854254
0,0282405207582432
0,0317093819411031
0,0285631216686037
0,0317963457239914
0,0293216608830004
0,0332244475874466
0,0294046595161608
0,0272608830560024
0,029849661333677
0,0292973582788059
0,0299097502767245
0,0300836272806198
0,029662284018391
0,0279236175840375
0,0304739306581737
0,0289604762933475
0,0309582164011368
0,0290585473500399
0,031587902257547
0,0292397945279267
0,0323888857458574
0,0292759605394726
0,0299554777371019
0,0285047304185586
0,028094754766644
0,0285063822625468
0,0305858296279835
0,0304313138260906
0,030087934270899
0,0340710987516988
0,0303629173419925
0,0312292300056801
0,0299370606313654
0,0333248119353668
0,0281413800810118
0,031607840538235
0,0274561121299092
0,0293254349285026
0,0297941285299769
0,0315346450546415
0,0285365944490731
0,0292133906049511
0,0303286113926686
0,0312097698079133
0,0314204167787375
0,0299247613095799
0,0297176305850036
0,0312804161052045
0,0306278388761402
0,0292966906319423
0,0321156806748127
0,0278330684357765
0,0312981452448395
0,0289245533696202
0,0448975753910367
0,0274126321133635
0,033240622797324
0,0289183700756768
0,0306943601130138
0,0294582506083952
0,0309585936066601
0,0294933032401038
0,0302658118865087
0,0301145317473621
0,030993489517508
0,0303943264389865
0,0311510511200336
0,0307624420974517
0,033059131430808
0,0350685132554787
0,0348571605728698
0,0293116777208874
0,0332232257439181
0,0311764961533414
0,0363036103292048
0,0294357599669424
0,0294978029642961
0,0344949483038138
0,0325993211583296
0,0344715656641261
0,0308766066525558
0,0333374184932383
0,034571196905905
0,0328225924708049
0,0319860292894031
0,0356591016191877
0,0327403898656736
0,0331273190550646
0,0346593314245069
0,0331460805947081
0,0376680607676409
0,0338503781132704
0,031852484396708
0,0345380050428523
0,0328597343159146
0,0377148578199039
0,0323071845740711
0,0341768855831994
0,0326578996062471
0,034647813038551
0,0354244463910776
0,0348468149062405
0,0385446045044754
0,0344147484513387
0,0363598929875316
0,0374903321937462
0,0340484158541411
0,0386091936221767
0,0322630855864336
0,0438716586856817
0,0304745520004319
0,0411848465685924
0,0365312765019465
0,0352125134553987
0,0372704485102098
0,0388361062132819
0,0342247425796951
0,0406328512273021
0,0400698736232612
0,0336615074948796
0,0415581709464278
0,0343221652983188
0,0429481299178687
0,0331546833144136
0,0410413300416168
0,0381209195223136
0,0397378661613662
0,0379997404082963
0,0442956883334385
0,0361694161770301
0,0443174908753151
0,0355691125200053
0,0437887553705201
0,0444102812292696
0,0374922936645469
0,042665499683993
0,045247217957493
0,0366373630183759
0,0435111599844397
0,0407891289743247
0,0462109861086303
0,0387808887426969
0,0473307838365441
0,0431010527222187
0,0412657265260497
0,0432642971251634
0,0433391547195155
0,0444836706950367
0,0507004430759949
0,0409897541289891
0,0464380239747833
0,042393101637363
0,0449295726963402
0,0455495081136319
0,0637997993445645
0,0405077205788929
0,0590900076496176
0,0465406706117662
0,0544662811389324
0,0467951641214565
0,0523879419510104
0,0488811807589717
0,054966125826846
0,0531933322122185
0,0538634341162212
0,0505685757068936
0,0646054597015206
0,0500479867065408
0,0587219976604256
0,0572329969642897
0,0570502838185622
0,0622307540432738
0,0689189146484182
0,056757386422347
0,0668933713067924
0,062533851896513
0,0639023093412582
0,068250590451244
0,0618741931786871
0,0658283735790947
0,0678901665858323
0,0679605361729225
0,0686646402313088
0,0703003037853511
0,0741360884132819
0,0678829437270826
0,0754114680350232
0,0721248240704803
0,0796137003330168
0,0772444993374438
0,0914716088460074
0,0771899754690848
0,078552842349982
0,0895829245806526
0,0789927941715925
0,0845852162896153
0,0828585720182907
0,0839248251306889
0,0878113735645326
0,0880992701623963
0,0901472257355338
0,0917766657475287
0,102435963164865
0,0884095376846211
0,102379934800968
0,0949880747546471
0,103541269253661
0,104382171517949
0,112247998139219
0,133744232956979
0,105421409883669
0,123427486748322
0,117556189502292
0,137614019449872
0,123347743889403
0,132300804476983
0,135982655687264
0,142042747026724
0,146820014369331
0,15274940157102
0,155710958626069
0,165350994626263
0,171090013785812
0,169341234171296
0,177736544482411
0,191493476303282
0,184304276456105
0,211090573076711
0,199173320517862
0,205124016517177
0,215042471193667
0,214392612213961
0,220422486757197
0,234873936118418
0,236244685658832
0,254246087625121
0,252128713990763
0,25464839309491
0,258587558922509
0,271890119747395
0,279099678834755
0,272892149534098
0,301040537794188
0,289068718049483
0,304510878779447
0,300673366139138
0,305462704768777
0,312148317140984
0,323804182939244
0,335759118774689
0,332274320686841
0,339656548387327
0,337528294581478
0,350139068440234
0,349746341077792
0,359367200272618
0,358208063195131
0,359847579429988
0,386301265224639
0,375618972719306
0,45019831036932
0,37166801954764
0,37801874495866
0,370128918335073
0,373237538647877
0,368726052005189
0,372983077391369
0,384417000001924
0,379031792846198
0,375897849762704
0,384432344702075
0,381410553037285
0,383616867494371
0,376888123759912
0,375881813574226
0,372546636859032
0,386341947486324
0,367427624226968
0,416226723719419
0,388819518867499
0,371240212587188
0,379960941194832
0,378840148243798
0,371235208052728
0,376327530649641
0,3618700109076
0,369380384459366
0,364772227000422
0,355300368855167
0,35080347377915
0,350324313667963
0,366955347241856
0,342522362892252
0,343914144134426
0,333950477180243
0,322706378522698
0,328907281709282
0,326391153093143
0,337439512384256
0,337595601823712
0,317951095276933
0,314948499250972
0,312437181150851
0,306932194326301
0,306047384386753
0,299266859720115
0,295428662257973
0,297222618948895
0,292400006993793
0,295833960454376
0,285780406019308
0,290357275955878
0,290429375312497
0,293518125346394
0,280952085070079
0,276944334914755
0,280685842499496
0,285738422691955
0,281248782815505
0,284278122107309
0,277416124637195
0,278002937959658
0,280154611075296
0,282448365807187
0,276769954281704
0,275972207515614
0,274550874325409
0,275609548650885
0,276660843984532
0,272612800230401
0,275008346788667
0,271702719872195
0,275078133111714
0,27445000959417
0,271758560267209
0,2737983093046
0,27065737483053
0,271598139850421
0,269412421819304
0,269238498238214
0,269462760912613
0,267015055434251
0,296430621030987
0,260392497757755
0,265577340985597
0,255711141450485
0,260017398081899
0,260813175662599
0,259965999292174
0,272902572101452
0,259660081522731
0,259907848627175
0,253561831660583
0,253127914423362
0,259054028556177
0,248936438066178
0,249365236803145
0,24949940367065
0,244549909760007
0,267087624433969
0,22795518710579
0,256376204111743
0,245760056404294
0,247377101272371
0,23438983149295
0,248072983368027
0,248730982015486
0,239708783540545
0,244138344569792
0,237687435826442
0,252520605391112
0,233481047224686
0,231561747633188
0,231432685524724
0,233524801051786
0,247950543150812
0,239520489822636
0,235463021560686
0,24150652539601
0,229075249076225
0,231838193331688
0,229204011083954
0,220276839369826
0,221215623522097
0,216909350618234
0,220217959312728
0,218039292783489
0,221040949829
0,228692458101635
0,206360619037899
0,214411273882763
0,199832702449466
0,206829025761487
0,205123499464862
0,203190380955856
0,195622943594123
0,198597527214378
0,205355188518241
0,190068774551324
0,203568440264135
0,198115943154153
0,206326774260479
0,188485971622354
0,187201897072699
0,186080863568392
0,192919288215671
0,183330186737248
0,181829902109155
0,184042852867359
0,176116830913867
0,181563273603991
0,179214363434271
0,167397977088102
0,180524137578807
0,169724367269127
0,171545648655617
0,180806164978021
0,169664110173392
0,172820331135884
0,163970114648213
0,159726773858824
0,162465698237289
0,158859509493632
0,165386023048824
0,15760895018818
0,177930289789348
0,160978748217593
0,167622193593966
0,175253498605493
0,164040893631514
0,16777158305199
0,16821255963002
0,16442708981382
0,170459855093115
0,172609749110512
0,178773470321422
0,170554631665487
0,179104310960268
0,178298917006879
0,177933190940742
0,181796638633289
0,185744756846199
0,18662259152605
0,188446845011139
0,197254570781633
0,193430848470719
0,204011805476427
0,205638697834115
0,209634039595113
0,220870688780424
0,222477099488694
0,219799989389254
0,242783252314184
0,225726202610843
0,259234232063872
0,237241463487993
0,249843805103416
0,255058215768745
0,257653924010933
0,262271735021651
0,266884554142954
0,269411920784613
0,270539145911994
0,273480565830117
0,282142945869972
0,280310761845923
0,290837216155498
0,290788954678599
0,300581973463119
0,295890880004349
0,342936768812169
0,310205372065406
0,304051678718285
0,304592391734114
0,306464656211444
0,309255375909549
0,310816674917208
0,308505723651295
0,307208163538141
0,310012451712969
0,321016787249577
0,316456096788622
0,321263730572804
0,316608623662636
0,322436537864226
0,324234964635688
0,329006279070124
0,330737850278452
0,329556635889033
0,329977908709289
0,336303607589096
0,337635732177101
0,359353837870656
0,341548267804687
0,344880861009047
0,343345041482078
0,344647559436406
0,34807854130532
0,354225780206202
0,361843433524437
0,358411802968474
0,36281494294791
0,363320145283948
0,365221608070066
0,37232174644751
0,369291290976237
0,381521811733568
0,371269486461524
0,381886877907505
0,373388076715961
0,402506744762237
0,376761671325284
0,384191151900145
0,394016821682258
0,384144600489308
0,387175181127818
0,391246020572747
0,393921580852023
0,393919636951099
0,395044729762894
0,39475194819013
0,392231518835079
0,397149512126399
0,393278233633904
0,388738287846682
0,393492820340588
0,404668387619281
0,398755549003705
0,395454797472496
0,389983780254179
0,392006802986517
0,390610945972484
0,403926031836782
0,390223195129408
0,38987856538232
0,389107770131382
0,39734319950905
0,396584898390516
0,389940027109443
0,391588834718238
0,392238599360621
0,391260384243144
0,397937800709053
0,394265351530208
0,405459956682866
0,404153499853749
0,403482917812739
0,396831448559406
0,398042082171783
0,4072918476237
0,401434525453125
0,402845039721313
0,407697182157779
0,408071143489738
0,413674040153587
0,415965333181784
0,413411703734605
0,412297067709091
0,416096733175647
0,412675548813376
0,414197376704971
0,407193207910879
0,410221304507526
0,40522222952903
0,401670408382625
0,402492399765963
0,397074202048206
0,398780350799019
0,390132526838613
0,387006746179685
0,389651248396026
0,390406300982916
0,377108677761408
0,383592489500153
0,37270838619706
0,373009729565276
0,367997441356061
0,366931513495632
0,362306025274669
0,359421862555334
0,360697275760843
0,356469099086667
0,355307906850577
0,354008438830235
0,351075598171662
0,352455670270998
0,350019020884161
0,346154041564426
0,349292810242295
0,349801367972582
0,348375144984838
0,344697259112679
0,34542470440804
0,347550852963747
0,345685245094272
0,34684585717527
0,34456462170565
0,344240676381827
0,343800331709003
0,344138470661554
0,340083707472088
0,347047590715323
0,348920020425656
0,340876161828445
0,343673543904312
0,34358085852732
0,34437435277727
0,341335715010877
0,341785530195642
0,340908539227066
0,34008884552292
0,341918686975796
0,342472128506084
0,337795651838943
0,340017189234375
0,340963574272072
0,339700697855872
0,337723800987719
0,342406911605543
0,338911125954131
0,33960552199124
0,340876241230563
0,33668930896831
0,339599440182663
0,34117966406498
0,339624153159661
0,339218249440523
0,341630306841812
0,339228356773135
0,341690509917323
0,339546047777518
0,335944353191502
0,336599629664964
0,335009430678179
0,335483097477898
0,328710302248924
0,324880438137552
0,3266384017163
0,326958335075917
0,323026829977214
0,319921600812674
0,317471342734136
0,313009119918019
0,310010805951655
0,310716144300294
0,307434897121528
0,305224096369743
0,301572061869247
0,298170524707226
0,295968313244721
0,296435037691617
0,29669555506521
0,294152762658951
0,292452873018123
0,293082391798173
0,291711667495018
0,289882609312748
0,28851202835358
0,292122565030741
0,293996654820514
0,293336376443303
0,293222294268886
0,293049228929019
0,289463804028923
0,290260781125959
0,291136218470068
0,29216706737138
0,295873455690953
0,295985839769658
0,294804837200279
0,29803838288283
0,300245215236817
0,299467863835795
0,303519185581562
0,303870251378435
0,303825087691263
0,307949142070341
0,309293908193406
0,310515557296134
0,312551648565085
0,309297482367561
0,310698431043988
0,30981273481288
0,313073008488281
0,312208729240813
0,314461481482835
0,312998509158436
0,310785794477246
0,308127514096619
0,305924701362488
0,308290889968955
0,307722724750801
0,306469165432786
0,306689536048682
0,306417743794237
0,302987206731126
0,30337608383037
0,301447212863229
0,301311800228555
0,302384486399978
0,299681841866588
0,298206394965119
0,298467496224874
0,293034824655574
0,294345280775326
0,295143702361044
0,293831653361072
0,293870489703022
0,291350105607689
0,28831635979006
0,288667143778512
0,287238555501161
0,287282733755151
0,285446445692367
0,286922832832503
0,285488302054111
0,282572718742884
0,281413659336615
0,282752714148033
0,280836025375855
0,279782404151813
0,279271180485517
0,277033039033757
0,275625371363959
0,275374401993873
0,274628553203705
0,271251909331746
0,269741526499525
0,26819623874627
0,264942184304195
0,262675906045206
0,262706207026588
0,2605446771211
0,256995277858644
0,254697821153802
0,25584177804046
0,255077636218661
0,252201953467124
0,251160356306585
0,248785908205113
0,248202744736171
0,248728753327612
0,247229925323009
0,245953587744681
0,246189713090068
0,246359368411919
0,244723675076132
0,243573438681632
0,245651611266797
0,241026594157241
0,239480731211637
0,239063800620056
0,235852027729469
0,231231652066009
0,227691684047012
0,22710816702372
0,221163718062087
0,220159954946025
0,22102500868093
0,217952385634577
0,217260707493559
0,217431820124237
0,219054982696584
0,2205577565143
0,222511548028985
0,227259100011954
0,232806702239013
0,23864261386914
0,244679738803687
0,254455444130646
0,264519809542995
0,274278829300851
0,284961622102931
0,296631569040966
0,308213479080788
0,320427655454145
0,331510701241317
0,343907816841597
0,358785047068848
0,370780826250447
0,380893907833337
0,391900356117672
0,403846024925126
0,415145580802093
0,426296810293855
0,437590992024115
0,447953711366622
0,459640938482361
0,468649305433629
0,473970493262376
0,48235508466606
0,492377822049189
0,497561162505721
0,503171223911018
0,513875437606527
0,515292869714919
0,520928534728596
0,527462743434378
0,527116598059709
0,529728792213532
0,531479718087244
0,529916602993698
0,533082795541804
0,536302222943458
0,536138244601291
0,53799702789318
0,53405145731204
0,535094726443116
0,536183620084931
0,535598801776287
0,535461998795762
0,542300019376134
0,544201662618594
0,545143189826222
0,549948986648082
0,553279046277554
0,555840250922211
0,564492550354546
0,569529360060291
0,570969564217243
0,579755900292155
0,587564521510643
0,593468120340328
0,602698550831637
0,606802640277497
0,611730277081329
0,621134457347892
0,6321658792576
0,64150373904051
0,653633601056743
0,661526774626677
0,670530364113502
0,67663571889374
0,684271670282539
0,683567929519521
0,681976623722992
0,694225020137881
0,695821008244446
0,692686888276289
0,697813153010527
0,698555166223112
0,692437996056645
0,685786612400343
0,68457911121706
0,68145203252045
0,675153568916524
0,675116320391042
0,683546389400129
0,684993428018495
0,692621672964768
0,702452880628204
0,713070996910659
0,720905639810914
0,72985671516771
0,744825612596554
0,75651093947311
0,769184399591176
0,782928500179077
0,792294511926854
0,803998213068242
0,82364227531411
0,83488130461382
0,842114134307075
0,857585770566105
0,877340552899008
0,885331751565759
0,884599876263644
0,909676570161935
0,925481431511787
0,938283639860801
0,96056931839438
0,973295585993524
0,995168335199987
1,0249219014458
1,03445346759526
1,05063694929805
1,05729382159314
1,07249915269294
1,09270961160967
1,11405264728684
1,13322479276388
1,13395806204847
1,14698561707461
1,15418129763892
1,18077209235082
1,21024254518555
1,20258477544104
1,21387482085266
1,20105484400572
1,20561741342762
1,20985459071758
1,19738529304094
1,20390089363383
1,19599833359896
1,19599442881835
1,1822832608382
1,16166419133479
1,18484532762477
1,16430506261297
1,1541038586143
1,16504882357601
1,17796576599949
1,17427336861162
1,17436427550474
1,19505961296248
1,21057495002416
1,22137731154655
1,24478181557972
1,24345144104424
1,24513979479316
1,24753325540321
1,26641898701576
1,29076206426612
1,29929116929094
1,31469887124121
1,31164364828867
1,32442956015008
1,33001566405953
1,34625694572124
1,35289402136316
1,3541683335254
1,36997622446779
1,38337764489755
1,38380154071631
1,3642515396239
1,37701659635022
1,39130926665134
1,38105955731015
1,37958341376856
1,39298330559826
1,3844914795688
1,37456340308279
1,40361641797833
1,38083611170659
1,40585601812106
1,41353171871001
1,36958705558508
1,38122177036486
1,38691779870155
1,3982964355403
1,35686904759188
1,35268314601751
1,33962230050268
1,30452781626858
1,2974129837543
1,24138351927875
1,18977048597028
1,16296643408068
1,10940496367424
1,07140625774393
1,0326483379705
0,982479990989908
0,941779459048692
0,905412397458788
0,860481543449498
0,827759179839094
0,809673215070585
0,783100940216801
0,769334993513692
0,752819159997996
0,736107345118261
0,732645007433538
0,723882811101348
0,71911914549672
0,710525919743474
0,708155912730228
0,702179452415404
0,696154113326668
0,688556331518526
0,67430173064723
0,666503682068932
0,65679989937331
0,644426989867893
0,636027051301261
0,616064873931197
0,596528640719978
0,585403236489319
0,568168706569114
0,54912247068097
0,528859442534722
0,511456637490985
0,495502844011667
0,476797354761983
0,451729603750715
0,430335200167162
0,411470888227268
0,389490238581083
0,371381867520068
0,355428691754747
0,336935849273142
0,32059731354643
0,307777167776539
0,289690779998665
0,282529672731966
0,272470931282617
0,260878631442386
0,252335161888276
0,245344407609246
0,240826936923755
0,232861834711053
0,229340757579977
0,224380614446741
0,222048737648468
0,217926000673207
0,213281779734233
0,212796053416809
0,213123734969095
0,212363239914948
0,210802215393385
0,213005622300636
0,212475326533695
0,211636657511801
0,214525592501602
0,217528587019832
0,21851133219052
0,220465023096945
0,222131814515312
0,221091122893447
0,220800094225366
0,220228429017531
0,220073419895787
0,223699496497124
0,219215133649321
0,217482843251447
0,219333845346967
0,215593266933164
0,214575585787668
0,210886861293274
0,20918015421039
0,207306759182653
0,205905338341964
0,207154316351265
0,209806035153211
0,208506734327285
0,207441432553901
0,208888753146104
0,209725990140447
0,212962345744272
0,213492742597243
0,21602863703224
0,216727601700468
0,219775779878305
0,223969915729533
0,222010330574207
0,223145873089136
0,230442322904514
0,230628035686318
0,229685521327393
0,236799528236804
0,237230329523686
0,235422762665964
0,236070484381128
0,23585671324234
0,234553060326017
0,237973065193264
0,238209059471969
0,23773685577229
0,242934828931699
0,240385461835121
0,243371864196319
0,24768743076232
0,249620171070433
0,254653297419883
0,260970234713101
0,263065970414187
0,27118342934255
0,279441304675769
0,280955482541836
0,295180057147603
0,30363356589175
0,314111124627816
0,318587756431518
0,325432967133753
0,332214574145899
0,333118095605152
0,333302258865945
0,330746869703249
0,327536511595807
0,329510134476273
0,32369606982201
0,317608178214217
0,316420169796717
0,311014872219491
0,30454725437453
0,303782672167556
0,303093260747437
0,295282302269915
0,295841275023679
0,292619716896794
0,291241704033467
0,299719957105669
0,297578417906571
0,293677703046149
0,297806486984423
0,298557577195945
0,293689646236158
0,296241622088449
0,292683783662711
0,288923235903624
0,2891905923031
0,282107065545458
0,276721183490269
0,275937897773477
0,274608534975411
0,263307028260076
0,262166604510312
0,256483129745222
0,258692961115258
0,264634783480944
0,264232753849823
0,26396707641078
0,260366597801313
0,255558094641844
0,250387848200703
0,254557989209309
0,251239242584762
0,248819725443634
0,25128295815953
0,25396913506764
0,248564812766409
0,247766927162513
0,248101568788044
0,241406554942974
0,24637336039121
0,250732209100788
0,239595065989108
0,237013839673324
0,239812383844276
0,236493910034362
0,23522043597053
0,238634204840882
0,239601694642514
0,238312107033653
0,243286604514028
0,23348796243101
0,234796654378017
0,229266226290036
0,22998179301195
0,232743848482043
0,231552648419358
0,228960950788586
0,225983946538439
0,2338898592538
0,228925801830944
0,229387796347993
0,231685492623784
0,234992524420774
0,238766358001536
0,228251563307451
0,231672293696128
0,248707061734903
0,243487618453256
0,232267219774077
0,23196008617123
0,239891386241317
0,231536725937961
0,243879374313239
0,252962801710105
0,257649914615725
0,246895614605676
0,235139412955386
0,242364945900661
0,245535002766946
0,244399611072335
0,255381768457583
0,26019750024352
0,258493132875778
0,267309116037882
0,265303366855562
0,274606350318571
0,271144950421315
0,278135074852916
0,290178136018186
0,290319797676222
0,289309855229487
0,295642320821153
0,296778957433339
0,312134408733731
0,313925707102354
0,322475850575208
0,335421713104386
0,325893344247691
0,355880334017639
0,375865129550679
0,374722053548991
0,378480687671879
0,401240798938818
0,416357464885213
0,4125253280171
0,410021007238913
0,410730946613537
0,433082186981209
0,460775951695623
0,43321351602032
0,427213250040611
0,439354792076325
0,45158893695568
0,43604361656161
0,419978799633533
0,422433152680192
0,429070523050683
0,421717059528242
0,410602726570755
0,422293479359969
0,437791584703216
0,410039485272592
0,415437462983179
0,405914362578824
0,423329901207341
0,406987991765498
0,404373525416795
0,421262834133033
0,40235844728082
0,391685875182371
0,385360018396919
0,392544620306839
0,415687689345529
0,391835910228294
0,386079353164293
0,388479103652723
0,357148725980893
0,365627403345666
0,390166953783981
0,383418927816703
0,393671514306171
0,367965968702339
0,371479899195985
0,371825665908689
0,3742542880836
0,350407519267389
0,355748158692677
0,361074553501582
0,36760403673374
0,389814582967786
0,393260253011708
0,389512048973787
0,378946285126755
0,388396634534224
0,377996291226886
0,378061632359867
0,390328411911461
0,381124253011063
0,37533287669529
0,375246017313592
0,386909439016261
0,398767565533878
0,390315155226529
0,389860627155984
0,408611260774114
0,401635852655465
0,386670950917613
0,37523902332825
0,394572057840162
0,403673071343783
0,41915069210805
0,445133957159077
0,412405353515831
0,384073486978766
0,417392034701405
0,411130291976436
0,420408982096528
0,427977173291605
0,432751448714491
0,384794959131871
0,437905171382998
0,483555087325577
0,502555203404278
0,496317199612096
0,449267673027098
0,461389045127897
0,516802720179807
0,500234148150272
0,527100321127919
0,540066697960904
0,517900402812122
0,476357881063247
0,50851111819546
0,526877002325145
0,56343338240698
0,541809930666487
0,529548230095409
0,492629350274281
0,550137750695805
0,469091405124795
0,490946322626064
0,578824210593558
0,515344355231807
0,51017088757866
0,569969068173272
0,498469406891916
0,534748162013673
0,463759075057862
0,479884045181894
0,433678830332518
0,487830713777425
0,495058131516271
0,514314548988284
0,504921485370722
0,533853178921406
0,522646432104712
0,519782599890602
0,402698210175038
0,458823398335926
0,518136378809627
0,577584497286297
0,521350087147588
0,457108442917951
0,531455864350226
0,496585559973803
0,564410881517498
0,534619213864561
0,559998527379851
0,485526239489176
0,523345866104567
0,579648052390259
0,534438584243799
0,531883969676643
0,387285744138604
0,489054629869923
0,418028382641839
0,626835142116425
0,547503207990955
0,529939794642124
0,461480258434754
0,647949574697256
0,467331872715585
0,790461421682395
0,504895418029608
0,403166030734821
0,509040321327987
0,544765727388428
0,451474155865185
0,546432141112988
0,516596988090001
0,643925269165795
0,539868564415869
0,461616107720718
