3596
4000,36533379555
650,420452594757
1
2
2
0,0180479397733504
0,0225876698403834
0,0252416809400645
0,0194911048662067
0,0200333718555471
0,0227309887695533
0,0170094664697203
0,019205041731466
0,0145034168336157
0,022477297694566
0,0161825920054127
0,0198731996815339
0,0254223615883284
0,0171312980765864
0,0282370454399163
0,0225699482070529
0,0182117408007279
0,0260359356375874
0,0267005774672365
0,0248749173481476
0,00869952386174623
0,0172949815483193
0,014313627296398
0,0189046747144035
0,0157463983995606
0,0197325356881355
0,0215234542331003
0,0220557508990344
0,0153399479347819
0,0303594845786841
0,0215397351904244
0,0265060385954578
0,0165537711969498
0,0179837583761786
0,0221048513893914
0,0248098988955542
0,0154745351258481
0,0141130465948532
0,0169327719920856
0,0273550250147927
0,0209293629194913
0,019900730817057
0,0127681439251978
0,0263407039167101
0,0167063927451948
0,0222301699678252
0,0173538669079872
0,0183349778387911
0,0199088461251698
0,0213999239950729
0,0134751157314013
0,0175206799029623
0,0242629062323565
0,00864653516287178
0,0323010354554677
0,0291378862447853
0,0230201067954744
0,0262014324187121
0,0305482478478565
0,0328698854847964
0,0194922938129672
0,0195576312756071
0,023801957942018
0,012777800515363
0,0235072373882845
0,0123285068527437
0,0248298917905687
0,0158579474569906
0,0205900551717261
0,00993381733596349
0,0221591825320352
0,0147055082544023
0,0200431131994422
0,0187256742018134
0,0137055879166066
0,0249660681733311
0,0132154750475475
0,0152295906997633
0,0191981474677942
0,0179649182615621
0,023042910837194
0,0185601199601902
0,0184184874408269
0,0164141951897338
0,0236103699124629
0,020406141910071
0,0221729075706425
0,0280854579715878
0,0274251216582438
0,0220937439347436
0,017386096181494
0,0248393508130207
0,0210092082536239
0,014076546205794
0,0185638121489146
0,0153722458376249
0,0156525120911288
0,0171841162597634
0,0214310544860961
0,0201126544049514
0,00506544602066683
0,0507426891440335
-0,0117916297285829
0,0451433550053492
0,00515528253132359
0,00919141821397334
0,0306928279819833
0,00536993349221815
0,0286495651543058
0,0114779919259475
0,0215289378340916
0,0171729031235422
0,0278646297463353
0,00811147590283183
0,0285850870686094
0,0260618668381337
0,00974596484138393
0,0138023493335143
0,0177028667731718
0,0110807169429058
0,0244843045380962
0,0353001533800584
0,0103531643361377
0,0385640322221078
0,00800216382334794
0,0184684013187617
0,025836142072043
0,0240420059634998
0,0111008523322091
0,0184105648713304
0,00358737024090393
0,0224133215380017
0,00695713249549903
0,0360211041577551
0,0124019427238977
0,0265980858731892
0,0160203384073167
0,0223179775879721
0,0221203338461942
0,0112228682053155
0,0159102574031213
0,0064995092634296
0,0178369024780923
0,0263357650018529
0,0138487860131278
0,0133291501612325
0,0188445175943465
0,0269334326543549
0,0104525422214944
0,0214405865712237
0,0113900233036657
0,0339108471194411
0,0173306746371387
0,018913815966048
0,0242959224887132
0,0228964344655765
-0,00258034205297423
0,0759744919428816
-0,0226681757806573
0,0328598605113577
-0,00785355883915941
0,0198193748248214
0,0147956117108868
0,0234801917370073
0,019101012254136
0,0181908873338496
0,019451878085096
0,00840070499339962
0,0157444549855508
0,014362463741144
0,0145373700493601
0,0109953353103217
0,038509783660073
0,0106263758104768
0,0119047168544583
0,0336127023434919
0,0178669961211469
0,0244237056759775
0,020561013984488
0,0221761642104086
-0,000536796548865409
0,0162734350880181
0,00903495685182403
0,0233000469047899
0,0149612914127227
0,0281841876765542
0,0158277035888979
0,0206147498711223
0,00834636648370464
0,0322020910460843
0,0183313263925397
0,0345599719464679
0,0220033501187001
0,0315628733486987
0,0029295279104326
0,0369969911924166
0,0137988651799618
0,0146307050392943
0,0168273137327135
0,0128698036236446
0,013862842978748
0,0179802931712905
0,0110275179457989
0,0217789469646115
0,00238508875129663
0,0392384492659617
0,00911512565387876
0,0208376648021737
0,0115378741359496
0,0188598131024244
0,0137677308998435
0,0295154779754283
0,00852268891934753
0,00746000823761844
0,0214412060837779
0,0110704890616884
0,0246153469272371
0,022487390842662
0,0205092153709998
0,0204799271521327
0,0135239131656631
0,0150602230491042
0,0113910699694038
0,0185908960824288
0,0123834295990877
0,0177143351914091
0,0149829298643194
0,0133603362840453
0,0171392383533556
0,0180695769066989
0,0158362319712324
0,0177484981094895
0,0194943500559805
0,013745704700962
0,0174585694357777
0,0368953868788161
0,0109328356263706
0,0296329934629507
0,0143210288202269
0,0230124277576578
0,0104849063366332
0,0245936056219619
0,0136992941216946
0,0233431254432592
0,0026530666312554
0,0358000552197537
-0,00422756717941048
0,0245351333707448
0,0159677769844833
0,0218516164443593
0,0267419318827542
0,0191915528952943
0,017825571492402
0,0159217735266823
0,0180135783553994
0,0137886516984406
0,030543490701065
0,0221284754581156
0,0265036259309462
0,0255395202273101
0,0184332458613457
0,0170947206246194
0,0249244940109031
0,00635432016059483
0,0401042676699617
0,00428462671240239
0,0162197678727685
0,0556727135997236
0,000867790147822454
0,0283356342995421
0,0265316972616229
0,00837613960196001
0,0406830549928626
-0,00205179004097399
0,0271677455719753
0,0124820278816043
0,0197474537222463
0,019428236670193
0,0239990401093073
0,0202249337719542
0,0160583087629201
0,0364515081476013
0,0127397934199318
0,0579825594293313
-0,0089479042985913
0,0336858539362208
0,0281334466395512
0,0130080566788719
0,0258519945138041
0,0145967196761177
0,0229767378458073
0,0162859753886481
0,0338701474091191
0,0121914891783642
0,0360377466634069
0,0113324133163077
0,0368838329988821
0,00880550974775123
0,0316466303176165
0,017962079676903
0,0295096609118003
0,00871483951468543
0,0301527906725024
0,0130274758955205
0,031412928607858
0,0219659279255326
0,0159991653936691
0,038907708322563
0,0332834684504831
0,0167778447215399
0,047231103252863
0,0295472483637117
0,0289684214436412
0,0238355002730682
0,0307086585652674
0,020624557835356
0,0280403685063808
0,014640543623317
0,0370424148123911
0,0301035068062429
0,0168938083188738
0,0219267494667673
0,0262307987302705
0,027844683505363
0,0285294235266238
0,0317845410148405
0,0246472293416607
0,0273147826961624
0,0287300079291481
0,0314820416828909
0,0548314131690815
0,0258842855145091
0,0414723008028892
0,0502960278329709
0,0139022882840487
0,0357467379155295
0,0223638809837232
0,0353257091107041
0,0263425185724071
0,0375120700500642
0,0283532201481521
0,0359529765543628
0,0418084517739538
0,037904780330651
0,0325602288191707
0,0527778967311411
0,0387360684307417
0,0639752864452214
0,0281500050753785
0,0403755851151923
0,029212640813398
0,0472338379268207
0,0692795270147784
0,024387860297518
0,0679552459531643
0,0352835809023796
0,0539070175897233
0,0333760103540435
0,0561827545806077
0,0485226924420221
0,049436883563508
0,0465899078185258
0,0538917450055981
0,0489465297583873
0,0577844022540555
0,0588687014199175
0,0566428232905558
0,0745930614250422
0,0627812112770015
0,0492739368709334
0,0665349424908633
0,0562004367007044
0,0726711428833776
0,0874624958368449
0,057443361798506
0,106953791169309
0,0423195897209298
0,110112598201453
0,0523908502994551
0,0803856146086357
0,0677931679784412
0,0759352228700552
0,0841610710323564
0,0773690475842517
0,0772500880360323
0,0805450387662284
0,0802876830175577
0,0900380103640271
0,0790287947610322
0,100237779322262
0,0788230544799297
0,110263192355813
0,0989681312607633
0,0924639518047198
0,0993707276260918
0,114457458443116
0,126684606466457
0,119667045282261
0,110465589790797
0,0876064060145991
0,129382500850611
0,0985808213309482
0,11992103540357
0,108373197977252
0,120639325065589
0,113454213861381
0,135085468909407
0,115714123511518
0,104460174897198
0,136011860876707
0,111809453387526
0,13120030941382
0,145423844659505
0,115834523373844
0,157440764062186
0,136808389708867
0,142317459338708
0,136300689694681
0,177772280831085
0,120780311995551
0,176972937447475
0,132884489457203
0,164669386180413
0,143225944808718
0,161011330391453
0,154227836419127
0,16916657323399
0,171535607725397
0,163039121452495
0,166241677385025
0,174414538771557
0,168266503546567
0,179777446853959
0,197783470308731
0,168115719444421
0,179238073776423
0,176164741977229
0,183219172123909
0,181962516306984
0,181857686781543
0,218073000201029
0,185746223472482
0,227871811962036
0,179695342331797
0,207286388316488
0,195576258389714
0,21329671880907
0,199122883675327
0,22249606981279
0,219884059010052
0,208177471581424
0,218359492651733
0,234766348402902
0,213065787694556
0,228819737881695
0,218125938530992
0,23541047205659
0,235772909834335
0,245346112596306
0,230385237760617
0,252137438158976
0,241411788194881
0,299983741126263
0,249857822399108
0,303367146176151
0,226380483577958
0,253589553633698
0,253966601118474
0,269320504693385
0,254630566574458
0,276900675042326
0,284869823851453
0,269487788955172
0,287394556054845
0,288585167509808
0,281288999050564
0,298800831700236
0,289478545521281
0,30998681879411
0,299771636314929
0,296966347927699
0,295604215915683
0,313108453886131
0,307055018771152
0,330363531331636
0,320756299804062
0,33406164926171
0,346303969209368
0,340872267796946
0,323564709564049
0,343813512584976
0,328718268212626
0,351179205979725
0,335207572945241
0,338214049683666
0,339335194974045
0,369889514359564
0,339182108416318
0,360504087838048
0,36350875376491
0,366707676367563
0,362041489359473
0,375772303607055
0,354176546131934
0,400615072559902
0,385117491737748
0,393244540977571
0,382829259554287
0,412026380656833
0,391807218999041
0,404184053311355
0,406133293997106
0,428770337878964
0,400969165417541
0,411302005016779
0,416238461150302
0,433112728856238
0,416943656374696
0,437450195173896
0,42090270062678
0,421800360405102
0,421130411918369
0,454115210293741
0,438753189617609
0,477648228538969
0,467519007189783
0,458258118965988
0,469911288622266
0,477732497366016
0,446535204340221
0,492701678965054
0,461132420779304
0,484684311460954
0,46750075187502
0,498937870869753
0,474781166822565
0,505602969182985
0,472073773868355
0,514361200273028
0,507822794150064
0,527104925938019
0,491743151557041
0,535016131362665
0,510007481119404
0,527372836228904
0,496460393451152
0,559693983642512
0,534677128357255
0,535783480160244
0,543278354719808
0,544683750911832
0,530273703869208
0,560646530676045
0,540381556971029
0,602335664141008
0,551060922889352
0,581392498662431
0,507849965834511
0,57905796529862
0,57711600182173
0,596067238198998
0,570016785869015
0,635474352842366
0,577017624908105
0,599746277895962
0,577087200716525
0,61813784514077
0,56575651200164
0,609542329041415
0,56645865502105
0,629760187075209
0,613215787538303
0,627442607849503
0,631182833590902
0,668991703454624
0,605595991623741
0,651860714125367
0,630904070200043
0,665715124929887
0,663115302920238
0,680694324131167
0,65440981978551
0,705713395103335
0,613373251063016
0,682736958550597
0,668347637403672
0,668516193467959
0,664658592348401
0,712453399232018
0,654652447036554
0,679251136065239
0,65710775983268
0,716116519691366
0,66971705137665
0,757446989490687
0,704753392967716
0,698621800907351
0,67146273317343
0,721584139632352
0,70480174895954
0,729619251848483
0,687250267664158
0,71631305396816
0,710417883846578
0,733446576104568
0,687996328162743
0,771824291079912
0,703992729007136
0,785263641838616
0,723320848118803
0,780068199212776
0,716969253500416
0,74320016587438
0,740527700682228
0,758014423136215
0,758988944837688
0,811134079813615
0,761754825466797
0,79306087942683
0,772675527779015
0,758539907228377
0,735769101982956
0,787424910126646
0,785911242650297
0,814349113979052
0,760801570728746
0,783245553597697
0,772586435302331
0,788078947800052
0,755691266774146
0,84612870865305
0,814858807658078
0,802540097718599
0,795299195289116
0,833199131241577
0,812287963529031
0,833653789307752
0,856081809390772
0,837630603450814
0,777526244611342
0,825167216352424
0,78096202732548
0,843579030865731
0,781918042364571
0,899706126600481
0,854470971828315
0,942503249605417
0,815502652339174
0,872692556766186
0,804933755515934
0,932484244591212
0,835687077396337
0,893455198757601
0,834516969345508
0,901957184261912
0,837521662534512
0,906774086006138
0,863750627433073
0,928822313299904
0,860485179834921
0,868474941746995
0,845549226233909
0,914581329364935
0,847847238582114
0,891938867562243
0,848808082138016
0,924418967781272
0,850293026221614
0,935313854865968
0,855467142809281
0,953041556513242
0,895383225937082
0,9489744054389
0,860978905060075
0,912267071497069
0,868787882058327
0,943121737195909
0,890773591880653
0,98993862342044
0,868732554605641
0,980030034335153
0,914263153192919
0,924173556421806
0,926978165280716
0,996142369489103
0,900519609144541
0,958115440391656
0,895870431065336
0,929385592408242
0,915523911759093
0,972524480487958
0,888894127987978
0,927772046865007
0,909081149021482
0,955488432539051
0,895817686061088
0,976940158420495
0,949251389142114
0,958040839840664
0,910618778358215
0,952734801146405
0,905061241932848
0,974574737251343
0,911593938585754
0,962648912550166
0,85997305008946
1,00399922587535
0,93502167236438
0,952142984880317
0,90590180025696
0,978865828088833
0,942145064784842
0,958320635929055
0,955721103452469
0,984358162932336
0,910402001267814
0,989692098023555
0,934366610394009
0,98788946543061
0,90007212558934
0,955054603018953
0,943396841765472
0,982473698216744
0,938611449134799
0,960595075441453
0,93377181876817
1,02232655790319
0,951838290610947
0,995997936120755
0,927403335468399
1,03575770710124
0,916764876522057
0,947828960536588
0,906809603103414
1,00158314368974
0,959440281084659
0,988803410268638
0,949862914482449
1,00888442863443
0,921403694576726
0,951407796925052
0,921667379085221
0,993802921680648
0,932250757532672
1,00471678681028
0,927440221865559
0,984319461822257
0,932916487381169
0,948655450682626
0,952626046044162
1,00767278150894
0,958797501882799
1,00863188372681
0,929968889087353
0,959322945158521
0,934336162686972
0,988043796322479
0,959529823442138
0,941723705093218
0,936262355460381
1,01948014804908
0,926440193819572
0,956944997720405
0,947883002817825
0,998429664766495
0,914831183997983
0,984767019949064
0,935499521901408
0,95531069335469
0,91804234810063
0,99678391218041
0,934604269079355
0,962757006750908
0,944003619980948
0,966718123768978
0,906165045228639
0,955477732044504
0,925826737945401
0,969348276917466
0,906469592372085
0,975129792106721
0,929120977010664
0,950021974231103
0,944945203154941
0,945479813444265
0,941988359324886
0,956992471488124
0,925046392468522
0,964303357816847
0,926221047035084
0,953374131780814
0,904396544058079
0,956321338765762
0,931766587776273
0,911987853209507
0,919891873338112
0,953331978518987
0,921383877962067
0,99244399200545
0,896556537448958
0,954225721948597
0,901180320205837
0,998633158056232
0,89932822550922
0,913461971858151
0,875945116100062
0,906053028215591
0,903958200875521
0,90679078426724
0,883579583318716
0,916311867805822
0,882094647236638
0,902083485888059
0,866388238298577
0,958216112334736
0,861012092160192
0,893469730272771
0,870079762773356
0,925452323445907
0,879633938570788
0,887412876523276
0,859726216315514
0,879495091480788
0,856327301168856
0,883230025436593
0,873808588690905
0,893082468915563
0,879006055358719
0,904718289974615
0,854622171167163
0,902597463478583
0,84539942048103
0,87731422715237
0,847397887636045
0,879583684513463
0,8644776435859
0,873565395926599
0,836575731225667
0,89295255270513
0,863242368303067
0,843956273729619
0,843028449407135
0,863271030127268
0,806270645778814
0,821963254884283
0,807587971187958
0,858144960565765
0,788672445028018
0,84300919500503
0,813570148071932
0,847812530082435
0,81793699212236
0,832588632913243
0,809186342993849
0,834499798438355
0,800156159977339
0,826669958051615
0,77215553047745
0,801925369219117
0,803525864194038
0,836790638446516
0,790955719437848
0,818933359396794
0,794917856633057
0,791632505029347
0,743392172540852
0,785996897423956
0,757548954170736
0,786876185876535
0,742182630099787
0,76999583792849
0,770031013302435
0,769692640905414
0,750710069644306
0,774036931205489
0,749458474102053
0,751609703245119
0,749231401272459
0,753508130340775
0,729459430541659
0,73685581056153
0,73056637877263
0,739928012879335
0,708724931683177
0,732905008056325
0,704777690326319
0,733982280620447
0,712915204442081
0,739355175213635
0,690931084443625
0,721489318910932
0,708562424812434
0,711339172476417
0,694566650614239
0,681281536842014
0,684132754732106
0,712181770694623
0,690509325260804
0,668542499229924
0,658303863314894
0,689467658968781
0,660389799320618
0,677183820289775
0,673169632119637
0,670477977108137
0,64778764903137
0,664151149364573
0,648772747951407
0,647088543974523
0,632736828179338
0,635164828535589
0,639812523898783
0,638086189610929
0,624168180745609
0,640356699315911
0,618459382975851
0,6354101177544
0,619018380728486
0,642913976580174
0,608264340162579
0,622724746386963
0,609307614240557
0,625740709863246
0,593600968045977
0,613466868893827
0,608267252591132
0,605026684183709
0,589669719822538
0,597881484465344
0,588085783406733
0,587264490709369
0,567872481658715
0,587756648717623
0,576848661572619
0,594325500762163
0,578848559758407
0,582247797435627
0,559875175069127
0,549943146999892
0,54513992262721
0,559500069566187
0,553741346718957
0,549149796448978
0,543643166601735
0,55525881495998
0,543220881968484
0,547130690465171
0,535243056554084
0,544418913230104
0,527581029995356
0,537743999846338
0,520390471168806
0,530840444140155
0,522485780228803
0,527321934355076
0,510537591054333
0,519767880478711
0,502328998843872
0,50608199804
0,503053318286222
0,511484634886247
0,495403568794953
0,509278990552829
0,500430572211157
0,507902276821729
0,486316039161044
0,500918088540609
0,475549177028159
0,494518237327563
0,466565725973859
0,491367344664074
0,470585117151268
0,487398150749491
0,471284344609969
0,468294429092922
0,469285467673541
0,481986086995027
0,455219113035908
0,467827575823788
0,460623315665046
0,456559156531031
0,443598206860727
0,449841352632492
0,454380831420431
0,454890439085173
0,433677632970892
0,447799003183829
0,433799813585678
0,443202311047971
0,436283000246531
0,430123909505859
0,418918843222267
0,431549485141637
0,42480358831745
0,435294170069112
0,421844397455841
0,432537640382106
0,408754770548507
0,417769511409993
0,409505713577482
0,425573844660622
0,408445571634962
0,406953302435773
0,405254860291632
0,407397831042355
0,399786270156802
0,406813975272156
0,389367564264662
0,403902813202195
0,387509994166103
0,387682291375803
0,380210181389265
0,389112382749525
0,385306805540979
0,383410979569242
0,380089476607657
0,379042962352472
0,368032333289835
0,371231095870276
0,362565929150348
0,373862232934874
0,362218266493449
0,362972288485831
0,362118483559958
0,363644617018711
0,356360699666515
0,359717418264031
0,350694742756879
0,36307743531314
0,344449396699725
0,347588179040054
0,348907705585454
0,352596193827491
0,336749945106893
0,343338654930018
0,335601460888295
0,339487114013779
0,329405980547029
0,333203560484732
0,32551491857991
0,330269643369417
0,32245890407003
0,327087658666866
0,318787681540513
0,327685526720248
0,318000906709847
0,320717531427278
0,313817307967416
0,316443965109555
0,312173593400242
0,316137126501024
0,307982913206868
0,308366979581271
0,301142486106582
0,305961953331182
0,297529423863531
0,299526188518956
0,296629534290563
0,302356247987265
0,296626956824021
0,30801391973245
0,298355350988032
0,296349867280832
0,29216892640953
0,296065925050776
0,285308670554187
0,290611148372162
0,286348163306325
0,284803442929499
0,285326367691795
0,294781591758568
0,279326991948995
0,283488005678011
0,279222010109801
0,287887132817509
0,283531492098146
0,286943071086828
0,276460672362775
0,282113577408478
0,280788045501502
0,281259256426787
0,27981979285008
0,287934219144077
0,278224510526007
0,290364079039078
0,281305961413472
0,281494816075274
0,274688749991061
0,280661500634643
0,278900470491151
0,286390537546895
0,283534179822908
0,294138394848393
0,284185277719447
0,290866135727875
0,285893385605672
0,290992188038767
0,287259364214197
0,293034213519373
0,29198953660197
0,299164053202385
0,289936505649086
0,299349917618854
0,300273821941836
0,298515977161239
0,298836916364512
0,308331585329508
0,300731709072948
0,307935105779602
0,301494044143337
0,314868294348517
0,304669544914966
0,312722038699619
0,308753946741775
0,31713569943281
0,316442156114847
0,322328269898727
0,322830289113043
0,324810240325794
0,319858880554841
0,332059889479998
0,330712296236125
0,332507285102881
0,329935643372701
0,334160000726551
0,330392348317971
0,340907694321509
0,339844730699647
0,347262262478611
0,341598197764249
0,343369669082619
0,346242175491717
0,346321682224871
0,352319073219863
0,365204200667871
0,357803697766575
0,371797538068883
0,3621799127296
0,373142854066429
0,370497237485072
0,381118541030983
0,378461991267123
0,378380537528083
0,374370513781105
0,388826798921845
0,381819106531018
0,383677042616787
0,38640154625914
0,38963193195506
0,384439019626722
0,390770139132199
0,384091309082247
0,388108994047844
0,38187467360826
0,381720037762944
0,383930401317472
0,403228425515445
0,387130657897468
0,388366119349888
0,387810224700219
0,396295885865216
0,381458234269739
0,382937518430628
0,380301887916926
0,382981360288022
0,379807682944772
0,385499307209542
0,377598925302692
0,381605173209871
0,377768473494248
0,384457787672777
0,381326826342212
0,378242602666583
0,377958476494034
0,386395823917744
0,378509651939558
0,383795020476992
0,383391645157883
0,392427295247667
0,381823990684748
0,383195919009103
0,382264525064467
0,389395742243517
0,381361554448467
0,389140472009895
0,386302603616206
0,391481912103817
0,383636750915042
0,387004899906399
0,377704620595567
0,391751601597653
0,383372117118572
0,390103389325473
0,388874947749116
0,386224492428029
0,378329108182498
0,392884481067657
0,383175027740901
0,385735012072346
0,381092771677197
0,380779455035082
0,372614494930312
0,37861719437328
0,377297878925267
0,381317218744616
0,367589837169025
0,376006435495011
0,373883244991112
0,374171760889494
0,366461299724797
0,373401155403398
0,365405911543414
0,367213967613791
0,363687571792714
0,365912561533744
0,360277200319356
0,364602374418618
0,354778298391355
0,354621825857703
0,349798075138387
0,344161832161391
0,337364603566501
0,344474689651237
0,337312243180207
0,341011179143575
0,331293017937951
0,32588502215341
0,327302037657108
0,320519125558286
0,319532293702003
0,323615002833362
0,30635531391947
0,316532298386379
0,306150613895062
0,312314786554007
0,306650977508573
0,302241685712562
0,299097208207233
0,293202164858836
0,290510254167876
0,294965213728017
0,285194371095827
0,29032831955414
0,284897445900264
0,286238363994331
0,28492127662365
0,282416191519041
0,273950886588955
0,269132806805466
0,267566974196409
0,273379572157365
0,269174168349278
0,270151868318042
0,262938157854422
0,265616716335508
0,2592864356065
0,261606781594569
0,25248707558205
0,260635095300584
0,259495591011927
0,258338206553842
0,252807899697365
0,258878252573779
0,248249652855677
0,249294677179118
0,244337608572888
0,244487522521942
0,244451569839004
0,245309940161383
0,236954717308754
0,243819275081291
0,242291234335184
0,239881484592735
0,235103236442951
0,241572254292584
0,237591873378758
0,232690924717522
0,231464511218392
0,232185287606958
0,233550193822223
0,230526292454637
0,225450847249401
0,231245649765365
0,222249695748633
0,229557687838352
0,227195801941605
0,226644929103727
0,221951866058875
0,222123207820673
0,221833291532758
0,220382530867555
0,214972545656413
0,220418625619052
0,21436153045103
0,21811976249212
0,211668366499329
0,217169581229719
0,212445927614276
0,214035794766027
0,208412216895611
0,212741907254697
0,206044080243212
0,206922650820023
0,209562729296319
0,208989131076522
0,206537159852498
0,214916154137409
0,201945608727184
0,201331258538791
0,202370762988303
0,208031221975139
0,202778648714755
0,201383793314054
0,20346430372444
0,20073308033051
0,195633959895219
0,199558976135032
0,194231508954862
0,19757547666882
0,19032887888886
0,197124272777206
0,191938483732485
0,198619955484483
0,192833205287692
0,192585470292061
0,188910882992021
0,191171810716559
0,191949199841644
0,193274748323369
0,189405987656384
0,189961708466749
0,186110148461696
0,18879964022737
0,185121435721284
0,190450145808198
0,18678982460101
0,187629113527214
0,18389302470169
0,186715459034687
0,178288562967449
0,18452361325172
0,186311238510026
0,1874597176501
0,185538762129745
0,185301896778092
0,181736402587478
0,182073577964214
0,175839789122361
0,179708838151995
0,181754105989835
0,182330439593301
0,17633878114205
0,180115996218157
0,175493490682026
0,180992142780326
0,179751744822842
0,175696839035548
0,179055507545978
0,180833211685504
0,175801195268344
0,17601036301132
0,174080836542967
0,182768298637578
0,173372607832608
0,177220649919373
0,174439718136495
0,174090751049705
0,173391294690118
0,174443573921842
0,17185143966115
0,18138959166825
0,173744374000868
0,173093861352607
0,169149396920233
0,172928317320278
0,169435464283775
0,168616386971387
0,171056888642892
0,171765697578478
0,167401917638697
0,17110530973828
0,168334248544875
0,173981778619074
0,167589281210404
0,169425105424696
0,167488699073229
0,167580541982213
0,167413361902059
0,169495526300585
0,165944332911296
0,163580327474897
0,160183301742909
0,164645467955293
0,161989105860751
0,162690650040554
0,160999237040704
0,161152960754232
0,158560567946979
0,162285339319164
0,158503586393441
0,157646476482461
0,159598567241358
0,161994268959735
0,158093068119878
0,16043054993908
0,155125007345115
0,159634430269347
0,156096191122206
0,156316076922571
0,151733092956477
0,154150532810679
0,152106739295804
0,157320929516558
0,153217142158846
0,154103713693509
0,15180090232239
0,150758632577581
0,147905333345656
0,151801320985578
0,148741849727045
0,147902575524925
0,14831424837694
0,148700476052514
0,148256038624478
0,151075783884278
0,14597340008815
0,145766340421433
0,143191201463989
0,144750017067711
0,140048504065087
0,14535443930143
0,142998677805244
0,139054103845058
0,142374642517588
0,146867677157894
0,137944250449418
0,138764777955574
0,137104998701304
0,138799672546035
0,135708851095274
0,139339507676335
0,134633729695265
0,137443022417413
0,13524103883206
0,136826113550851
0,133357984504366
0,134037439502013
0,132545732013508
0,133278558262702
0,130854047653346
0,130672414996922
0,127774764809057
0,129841930182152
0,126808257193973
0,125769239049667
0,125274210977664
0,128670311193657
0,122784602336861
0,125705209003376
0,124103458895469
0,122271761972829
0,122591387702005
0,124991694002621
0,119503436509405
0,12421114397513
0,119820155863444
0,125120172529596
0,121126313013157
0,121436443441073
0,117901178404018
0,117998323151105
0,118383598527002
0,115770244206202
0,114193113646638
0,117660710038121
0,115863436998753
0,116153858048119
0,115596963097078
0,11449787295531
0,113036306018165
0,116616667567031
0,111632696558581
0,113760404765937
0,108567907770593
0,111847724799031
0,110471852390531
0,112944718401266
0,106563717884733
0,112737591804815
0,105484532314405
0,106304896667008
0,108418536006252
0,110890088323624
0,104951744151795
0,105511048657824
0,102646887258232
0,105745579294289
0,103248494013261
0,104653489322367
0,106575457300673
0,104366445518242
0,102222122973154
0,10484733648821
0,103242262168825
0,101670203254858
0,102021354527609
0,104700867421419
0,098745469538093
0,102964450585373
0,103388760521071
0,100085128999101
0,0973492136099691
0,104576551226603
0,101862680841505
0,100018252300681
0,0997108432331084
0,100147291746142
0,0924420188693967
0,0970734328068956
0,0966196455237681
0,0973826422736157
0,0970173780351569
0,0978724525667098
0,0958823633538584
0,0978145770980482
0,0927252612846103
0,0956521135714736
0,0934209850201816
0,0960033771711432
0,0966018276221868
0,0944114895427509
0,0936325176621443
0,0949659072116943
0,0916238024834968
0,0939013889536252
0,0926987562106018
0,0953350592901269
0,0936989989515785
0,0923419119391237
0,0905554566064722
0,093900768984052
0,0919458380589993
0,0920509221050094
0,0885697211908773
0,0949504994406329
0,0911860478579592
0,0909646897231067
0,0895116173488943
0,093082113246192
0,0872160997309552
0,0898311832345894
0,0909200473244621
0,0906762985878959
0,0872905303333366
0,0851457677018325
0,0863416803814691
0,0920879334849254
0,0886015797037951
0,0880936959546469
0,0868800103764041
0,0877230091549963
0,0870601023584398
0,0885568625617487
0,0858475328246157
0,0867442652746566
0,087673870561651
0,0857589344825574
0,0857907167212219
0,0871748973193346
0,0851730852721481
0,0888052859625423
0,0846251797818285
0,0876599193420245
0,0826835461251928
0,0859848837079746
0,0852354204516892
0,0857794703842309
0,0844003047388933
0,0844460129351187
0,0817704018268464
0,0863222404755029
0,0837634332599307
0,0844710061438633
0,0827113202364743
0,0820164129520838
0,0803524792944563
0,0832953878452572
0,0822082597228585
0,0843426823847615
0,0804828160360354
0,0825963946254286
0,0789694865888212
0,0803386088845953
0,0798758541959133
0,0831755901611649
0,0787146656069304
0,0803690182985368
0,0791076019856831
0,0809036891352779
0,0778706857704115
0,0773576389658166
0,0808211425503543
0,0799725366760435
0,0793211636979162
0,080550068563301
0,0788268017717064
0,0808485760686374
0,0771449249333528
0,0800344453424284
0,0802446039290068
0,0768959792783515
0,0733871457602364
0,0811762401769217
0,0764039954751941
0,076676149193
0,0766113083822453
0,0780006866682
0,0727010606089104
0,0765951682568492
0,0746564079973245
0,0766698130735057
0,0745218397269734
0,0760197224863652
0,0728028947182661
0,0752321276579807
0,0726980283059182
0,0742115618411552
0,071394907251651
0,0724734500646074
0,0706909754153969
0,0752163681790934
0,0714094855455629
0,0725545616222077
0,0715252756067937
0,0723737693914828
0,0708964350844514
0,0718208743850286
0,0690086711092109
0,0706187043595657
0,0689165237296471
0,0697561263111249
0,0696336745041599
0,0702951414825451
0,0675433049650333
0,0701119329993427
0,0674634955338134
0,0692103722341474
0,065900237130086
0,0686626022820731
0,0651255827799247
0,0660962417250971
0,0651837884162782
0,0664371198842218
0,0639263312678636
0,0667867339857471
0,0641447849548174
0,0664292224737858
0,0638649816489193
0,0652886572224264
0,0636191024831679
0,0655031029257927
0,0636171401347905
0,0654703813418188
0,0626363337998418
0,0628389763459002
0,060716031952245
0,0632211598536938
0,0601628962002074
0,063530210959317
0,0613128023928524
0,0626677265343704
0,0610357604306775
0,0616906268566322
0,0594214744029347
0,061789077235091
0,0609186918290398
0,063078439286361
0,0581271928616659
0,0622934273743428
0,0583769384854996
0,0612968695271993
0,0586182171074002
0,0570496216450051
0,0555623093203845
0,0586139141870499
0,0563837244371889
0,0581285113404037
0,0553186419000982
0,0590493381371082
0,054344709729598
0,0552695163083182
0,0543917180952499
0,0595117115123565
0,055566186927466
0,0580036028016169
0,0555767886167123
0,0555233169308118
0,0545447050577927
0,0552777729737936
0,054334435132044
0,0572595778261767
0,0536756497544226
0,0530412711500426
0,0535670776063736
0,0550957520814569
0,0517956732872873
0,0567051307715888
0,0510428136538184
0,0549519563125076
0,0537905117408136
0,0518332766487197
0,0534140044910025
0,0550708818806086
0,0508620665111648
0,0537214055352043
0,0489862692680622
0,0511457781912305
0,0507911223791979
0,0501542962882615
0,0487647894808521
0,0521713059269983
0,0519824471256127
0,0523404502521751
0,0484969369684198
0,0545418633621174
0,0507362090456268
0,0540152037376568
0,0500579526177772
0,0512937824390243
0,0490638117049879
0,0509861766274027
0,0483830381291321
0,0485558378258313
0,0458924391370778
0,052750233872649
0,0505483160570372
0,0505535142044743
0,04819996846412
0,0531207453233825
0,048491441422663
0,049900450885016
0,0471621421407518
0,0494042914433796
0,0474436924578921
0,0508319337135134
0,0455633885313962
0,0479846059079671
0,0449098132144358
0,0499915495494327
0,0448559627829562
0,046455312580854
0,0470544432990897
0,0488706471126444
0,0416229513823012
0,0472134268068318
0,0432432646392566
0,0462353683298133
0,0450421161861502
0,0472613157642226
0,0397171280913123
0,0488685660800502
0,0424835177986929
0,047775242205246
0,0384013031882507
0,0505097465216764
0,0379558025187101
0,0473893323933809
0,0414154461123544
0,0517005549232892
0,0428613684351823
0,0495229082274486
0,041629317921546
0,053265296668642
0,0406824525052846
0,0514270803386668
0,0425990061424733
0,0527129487116113
0,03912314532432
0,0543130869563449
0,0368889942619401
0,0578818136363314
0,0355023739444467
0,0530797754891542
0,0341168694792078
0,0538019742541427
0,0270141549027585
0,0552048593453563
0,0271713485722006
0,0564286171734358
0,0338337081847356
0,0600969668181823
0,0247058493399019
0,0587947322765691
0,0210642678374764
0,0668733101683227
0,0283036878421598
0,0618334838557142
0,0184913094041697
0,0591284604494685
0,0281211748876044
0,059847945618
0,0241650659915965
0,0545449738723706
0,036308206099241
0,0495097137997807
0,0398249197811867
0,0413927794460329
0,0508143872296207
0,0358574853141726
0,0542601700369539
0,0339999493354774
0,0550707541120594
0,0328153522868658
0,0550516765438476
0,0376625784330033
0,0525586515426339
0,0382633136183169
0,0442758984320188
0,045312217468433
0,043888226053103
0,0422976528594207
0,0441948270499823
0,0442278582342217
0,0436478014701617
0,0413782711266528
0,0460430132612239
0,0383257742557162
0,0422482726797928
0,0407057348098964
0,0449749598777339
0,0414978474856891
0,0420290988424661
0,0421091206521148
0,0445836554441982
0,0429978057435383
0,0443271127246129
0,0448225436486311
0,0453358013838773
0,0418087734727588
0,0429369219927805
0,0426704366237641
0,044997342284718
0,0431959831351065
0,0432698598503092
0,040751844567289
0,0460523942788992
0,043843174612681
0,0455299230590235
0,0441767373122494
0,0434777262973672
0,0432256860585501
0,0435460186261238
0,0438547464532365
0,0437833158489004
0,0413513834666883
0,0450340604023549
0,0424291621914855
0,0435355987265723
0,0430642192309201
0,0446960174605764
0,0425369017254616
0,0465981693168925
0,0423385571592836
0,0438879727396501
0,041702648202707
0,0451235673932671
0,0420129269829166
0,0432110132407871
0,0427268143286201
0,0462331600103577
0,0441170561592578
0,0436229882715807
0,0431362787965072
0,0439154271517389
0,0437339770470858
0,0446187617806026
0,0426765588353794
0,0443885712890937
0,0433374730594171
0,0439240138667683
0,0420763338080056
0,0449135500200527
0,0446080766262491
0,0437730885529642
0,04202207869876
0,0449993140277848
0,0443181460899503
0,046751000501329
0,0444127164463903
0,0463535606501122
0,042592620993105
0,043323672831333
0,0442949301736234
0,0438008936014217
0,0424476305656856
0,0434400168515558
0,0424401439400059
0,04464345585628
0,046369248668572
0,0445513345733949
0,0413208607754185
0,0433714430225019
0,0454761832607124
0,0449336133811979
0,0457087338297745
0,0458601496355374
0,0450220095543121
0,0454655279261788
0,043689902299054
0,0452268419930457
0,0439827451229742
0,0455171724257811
0,0448780686719155
0,0471946012325807
0,042859265665886
0,0456456117431099
0,0451914895839233
0,0467629900401353
0,0467284183130739
0,0461982439050971
0,0451287394587403
0,046395098576196
0,0451693747651286
0,0460344925728016
0,0461190638632567
0,047016113275922
0,0476900403656468
0,0470148264783235
0,0464569298236714
0,0479680536566535
0,0460739522351211
0,0436866134319937
0,047497209982591
0,0467944789434608
0,0440701423274346
0,0459379221864051
0,0471053251839731
0,0465469371328796
0,0455564960747327
0,0455716817023925
0,0468165881050875
0,0469165798593062
0,0446635832552644
0,0478452778382419
0,047624768834167
0,0484477334825927
0,0472933045517809
0,0476951205634188
0,0472269666401794
0,0466492776731344
0,0471685959776807
0,0480046300368897
0,0484414589871202
0,0491121013491733
0,0476946612484666
0,0468230943617775
0,0487632201764968
0,0498848821034728
0,0481928918516626
0,0478447663365552
0,0481657739527184
0,048483108543916
0,0480429891288108
0,0500087902767397
0,04821389835763
0,0478638974254814
0,0487493349708452
0,0490496799429735
0,0482904157733066
0,047726692257462
0,0501831158337023
0,0521859013048672
0,0506288046108947
0,0486725276092989
0,049723516222632
0,0484168500665681
0,0489208555432236
0,0493429599005132
0,0506264674726107
0,0513633823304725
0,0505227183187098
0,0515299932992297
0,0491430230807561
0,0504567032503592
0,0494721887651223
0,0519439322317883
0,0490469053166933
0,0485767324410629
0,0498707844758277
0,0500302247363131
0,0486717940298709
0,0471404718943478
0,0496263514930032
0,0506380866959497
0,0490442893847109
0,0491969146101445
0,0493491984203414
0,0489713459470085
0,0489305852403147
0,0479381361391633
0,0482057871446439
0,0491778711491454
0,0456628886110659
0,0498407909453736
0,0513832388996463
0,0488079460885019
0,0461454019757071
0,0479327719663137
0,0481139817726477
0,0484730842529264
0,0481473334638307
0,047043184977786
0,0483020961691612
0,0473264766491284
0,0478689942687506
0,0503143659486462
0,0488813218208936
0,0481517655752658
0,0470767309811226
0,0464711507003504
0,0452931626728281
0,0460038234742961
0,0486370627886057
0,0480372401616767
0,0468434691204012
0,04872274221738
0,0467635404165581
0,0484562287440578
0,0468293538341375
0,0460645542694303
0,0460213803562949
0,0442625301082805
0,0471827479958651
0,0453022563732159
0,0476139745143088
0,0482028284062717
0,0459158346124213
0,0455133878380536
0,045914474941934
0,0453435369530102
0,0450506037979006
0,0471670471149361
0,0455879210916246
0,0450497941827644
0,0455917232428529
0,0436818246783848
0,0463763799083172
0,0441955636711816
0,0439404595978896
0,0456128532885714
0,0447280423485114
0,0443457240090112
0,0436491450326223
0,0461658460258779
0,0451646046002333
0,044657812505199
0,0457460016748872
0,0427302525511886
0,0453177894754998
0,0463136251415687
0,044988038120008
0,0476324125951318
0,047359718723293
0,0439328981917231
0,0445354562967407
0,0459941225892401
0,0453197639257647
0,0465479030139369
0,043789539982783
0,0457188158947699
0,0467188694501178
0,0443180058933137
0,0427416753754783
0,0451507398208588
0,0450382089722366
0,0441097123253697
0,0453259715717073
0,0433145216835908
0,042991327773825
0,0451336684202804
0,0450894499326476
0,0432352352116994
0,0434171396430517
0,0422691379405921
0,0446800136062389
0,0440808188725556
0,0448212069676841
0,0472659202434774
0,0424254518320348
0,043050879584204
0,0425817509789938
0,0426859201016452
0,0417926569497765
0,0450816591783223
0,0437148937905158
0,0430800760890414
0,0420108416530209
0,040404730065584
0,0455731455076144
0,0427667295074543
0,0426063000525512
0,0449254801036367
0,0428287987255685
0,0439451317552148
0,0434018760014705
0,0392740978065384
0,0418483662199485
0,0439238717810162
0,0418034921632587
0,0439711105466422
0,0393391467413653
0,0409371640400488
0,0404633837904735
0,0418352512766379
0,0405861135944592
0,0420984421440295
0,0429205639607598
0,0421189676421353
0,0409427879362299
0,0431674757782862
0,039327737355439
0,0410839763618884
0,0407927859919631
0,0392442915760902
0,037980122621434
0,0412604750994304
0,0394125292865257
0,0412158600607457
0,039873464311675
0,0384559928631573
0,0381484622451879
0,0381999082210955
0,0395506003152915
0,0392679089350944
0,039639251339591
0,0390945571103584
0,0375118242162837
0,0369291908647321
0,0374350752950614
0,0367932393820498
0,0361411449043155
0,0370058860768551
0,0361924754545482
0,0365802985558485
0,0355947781001848
0,03748962721743
0,0357515707271051
0,0389730290780828
0,0366660926708979
0,036499022629386
0,0380358691539444
0,0355956604145907
0,036897767269301
0,0334970590248534
0,042020103445555
0,0352894350832391
0,0372927264417047
0,0348113034901066
0,0367406924720352
0,0338776411111267
0,0385113530237665
0,0347475352939071
0,0353910158537572
0,0341447513826447
0,0329011097280965
0,0361513098557988
0,0361200347145919
0,033360513889177
0,0352104250389311
0,0343441044300157
0,0375322865042286
0,0342014186387782
0,0332232709904375
0,0353499542476395
0,0342376185416255
0,0342523726964285
0,0340430192927959
0,0365268180878678
0,036104677358974
0,0336886716757888
0,0373182657570381
0,0341677685238877
0,0346430742055443
0,0344676087134318
0,0359860408518825
0,0356346202768153
0,0335904071183296
0,0364738699383015
0,0332079376778915
0,0344381248893959
0,0331570566544924
0,0330808408492877
0,032358745361978
0,0338583491352324
0,0307844352169119
0,0343933937693702
0,0332997081675172
0,0352710924794176
0,0340137011247089
0,0319160710622298
0,0354996709850936
0,0336022866095766
0,0339696432023813
0,0316923105939528
0,0322060815474896
0,0355741015114335
0,0319700063170137
0,040274668513485
0,0295843404988463
0,0374395136569624
0,0302964546133847
0,0334057378124767
0,0330512977409931
0,0324999144562201
0,0305708780903203
0,0330763548111644
0,0296339842981575
0,0351410114464228
0,0312322928316041
0,0334191155444351
0,0317591170861126
0,0333824391319895
0,030460270513015
0,0326251975841094
0,0328255954254562
0,0329563300438122
0,0312845684767454
0,0319158972374486
0,0345487359614958
0,035826824720059
0,0295906009075276
0,0347188784556706
0,0282917598801094
0,0349102413367954
0,0336473455625139
0,0306088187545449
0,0355254999803266
0,0325142023060151
0,0361402181819604
0,0293978904363685
0,0338219494728488
0,0292854675400915
0,0367926613867294
0,0312809255830691
0,036543487465324
0,0319305054632165
0,0316826857498866
0,0326273744507674
0,0306013601954006
0,0323442081837575
0,0313162228427508
0,0309592079359956
0,0331815453415505
0,0339166264739588
0,0306959362645539
0,0303417555363987
0,0317871872827528
0,0286243533222419
0,0339904937612944
0,0304150571084626
0,0331226796165053
0,0296147030695855
0,0341959743986692
0,028666293720165
0,0371458185218891
0,028071938301034
0,0347476870597526
0,030288352079835
0,0314161341934561
0,032001435013823
0,0332153888287912
0,0312312708109409
0,0310149088395027
0,0332629130246001
0,0324565335671571
0,0303295047099178
0,0292230006697864
0,031570122645858
0,0286168136727018
0,0343653879728787
0,0306398916874224
0,0339621097524518
0,028744171750249
0,0332989488129198
0,0298527089533808
0,0327264452852871
0,0378474091592373
0,0297664752524987
0,041840391123341
0,0300122776415693
0,0343679192609839
0,02881065579067
0,0354885474057736
0,0280741403268803
0,0348934696466304
0,0287953507005113
0,0326982331621052
0,0292511900124037
0,0355612909687427
0,0271616766624875
0,0305400414817346
0,0315401369661236
0,0339330439664099
0,0296744533448745
0,0348617871520449
0,030032120986393
0,0334420893429202
0,0301096058784959
0,0335192039569031
0,0357535040517487
0,0340982048765837
0,0306995776908738
0,0316304512986767
0,0530026794628608
0,0255306027088364
0,0427277496484503
0,0278621035378515
0,0336162260287219
0,0310901881322282
0,0328649801833534
0,0331737306179641
0,033263165403574
0,0328499429972321
0,0332888056572472
0,0291381541859932
0,0330486670117205
0,0299431746199143
0,0344609599095626
0,0377259156682881
0,0392302561109649
0,0322481029803072
0,0362474969709891
0,0289645614703312
0,0463139713381193
0,0300312349202628
0,0344214467460944
0,0352719003625789
0,0344478681377779
0,036664669679972
0,031783883409104
0,0353233890729499
0,0339559435064067
0,0371231492008832
0,0326315129696192
0,0373399498201776
0,0329497710333883
0,035675595371937
0,036130269460951
0,0347517608199196
0,0421222235203035
0,0355565731657795
0,0333328232923424
0,0367226869880795
0,0336905647032172
0,039880428489122
0,0332843698469772
0,0372459751594279
0,0332670826924357
0,0413406726314643
0,0373907484460443
0,0403536544234742
0,0400620992983741
0,0363866250571315
0,0393639066852562
0,0391419344804502
0,0369115293084147
0,0424022081467358
0,0311866721984213
0,0591682537027594
0,0274421766580981
0,0537497010036953
0,033772639548663
0,0422485218724395
0,0372648163533995
0,0404581203348118
0,0358366818372209
0,0426938703976973
0,0448222145900552
0,0339409540312735
0,0447044612562838
0,0307218073183208
0,0510794687802095
0,0339942677317231
0,0463812099290455
0,0377988807058743
0,0419376743686547
0,0390788383043791
0,0508596220667782
0,0322357182223335
0,0511000982298772
0,0403676285512344
0,0484654641525853
0,0513559228811579
0,0366180051942697
0,0504801922098776
0,0452398090634856
0,039110253478388
0,0464534315704422
0,039577514460358
0,0496748659554128
0,0356950922219381
0,0559359352796992
0,0450067026625212
0,0402511142895299
0,0468987030497758
0,0432981986358039
0,04627769123062
0,0530671639637224
0,0412314018565915
0,0472239416768704
0,0430311614858687
0,0484353292636039
0,045802356135548
0,0803898832804082
0,0343851334771899
0,0728165147998615
0,0405178450172894
0,0657228426167436
0,0442415980473599
0,0616107519263464
0,0470483853840795
0,0652427574973091
0,0504461355385763
0,058187359218815
0,0466702594808009
0,0745788039403627
0,0440900516586572
0,0631559422645966
0,0566404525043809
0,056051082256796
0,0619627159960504
0,0787506702885987
0,0543467760854714
0,0693035004964945
0,0593626881799324
0,0700274256316517
0,0717109903716138
0,0624766353808936
0,0698980590853609
0,0639599761308311
0,0686054157003345
0,0667289176651956
0,070914843232957
0,0731996448458942
0,0675934930974326
0,0798647954096531
0,0665154557931937
0,0817002098797481
0,0763752619394225
0,100099066589591
0,0725658694522861
0,0831448657659419
0,0910142197972047
0,0799427556156441
0,0884207163658092
0,0815695808724254
0,0877298942196289
0,0859165353005739
0,0891259775997452
0,0887275805899471
0,0863502665892198
0,104661189155298
0,0852460731590757
0,110141524221354
0,0853189240581572
0,102898541902245
0,0966993119830251
0,114120258387646
0,164983471086231
0,0985924377401251
0,126925205336101
0,105332057092341
0,14615382323276
0,116260347714566
0,128538617470819
0,133261705578309
0,13264909642552
0,134855772149634
0,146989406240171
0,145588529101421
0,154997592730428
0,164174690587071
0,157303759105836
0,168442904851593
0,180753627103369
0,170912233745589
0,20559140276739
0,185332544364162
0,196011473134491
0,202594469044092
0,203842501063158
0,201897241259574
0,217230230411995
0,212283676948089
0,252213465218522
0,224887184722827
0,239811812652007
0,237268610391756
0,251561016424552
0,259980910652139
0,252224589795124
0,291325570353131
0,254861957804855
0,288020574952228
0,27318759252897
0,290085345426553
0,283135238568918
0,299934417493822
0,303197680091415
0,303799514836692
0,312438212524647
0,313300046254467
0,316876594852566
0,320535768216149
0,329797984518746
0,328939735634997
0,327606013805915
0,346774105300687
0,326993586246974
0,501810975813284
0,32276860974953
0,352366773056568
0,338816627033384
0,356693448941696
0,353286262224787
0,345558930991413
0,363792907759552
0,338937436802365
0,349043208991947
0,352382380229334
0,350519755031267
0,352699539158454
0,349784969739848
0,349886980120797
0,342899035389751
0,375963043746428
0,33367260682359
0,412059301379646
0,326192034942499
0,356636140108485
0,340416706377238
0,353507438254824
0,340000675084139
0,34725402929722
0,332370249042019
0,343744871584365
0,336166088637686
0,338863572240037
0,325310618055279
0,330495268605459
0,330931070839468
0,31440357095047
0,321301825427033
0,31488894917153
0,306660301389974
0,321039328906093
0,302723937932638
0,330334438036436
0,303869322455534
0,296046905740531
0,30188494130035
0,298057658236208
0,285431001304265
0,289921304603968
0,282061830043559
0,294464060471872
0,280206424466042
0,28106546651837
0,28459362562126
0,280420311829712
0,278676953173706
0,276483969386815
0,27999005634536
0,272058139697141
0,277387126648981
0,271917570879197
0,272795099100439
0,270849116193305
0,275869163507067
0,271386203244472
0,273262196584095
0,271439519186356
0,271798206959992
0,267486755584285
0,269964620963569
0,264978534715556
0,275837280177132
0,265711507793054
0,262799733010679
0,266475004790623
0,267560978128742
0,266293562599267
0,268923665685356
0,267546454332098
0,267305571679793
0,263524372834229
0,262396115681348
0,264415696667046
0,266697708009229
0,258998160207592
0,260065684724107
0,291877500387757
0,246126883767357
0,262662532113771
0,250144647852784
0,253274551747123
0,250995320215466
0,25063668548533
0,270559846049147
0,246231009446174
0,251971371047386
0,247499289927984
0,245458887625107
0,260315169419334
0,233011514354098
0,242590774769482
0,236852094098806
0,232506984569106
0,261426246467614
0,201433277266964
0,303100279151595
0,23465118162848
0,235548573215185
0,221785961368418
0,250825622998991
0,235995797936175
0,226772376098748
0,232465408282651
0,215979227428993
0,250526884316542
0,216667579154223
0,221942071658204
0,21706774537031
0,221124008347067
0,235177309936636
0,221383035187739
0,218253399057013
0,227413020233863
0,218119109667462
0,224131929368417
0,247781251106367
0,220875495914045
0,211707148535989
0,20113202903556
0,206708327367586
0,201414220433739
0,209589365981995
0,216859016006065
0,188097028501907
0,206803697551405
0,186798879743333
0,201293542278581
0,189774047593364
0,198654125322173
0,181845557562373
0,199415149648509
0,194460397972474
0,175083408234628
0,201024143300503
0,182633615686337
0,205463609504055
0,18735716014811
0,182274412365088
0,174347048566462
0,20085558054771
0,176046710953542
0,18129873912366
0,179312078602479
0,164156456926351
0,175757707725653
0,173646518568163
0,159855946342989
0,178165026687133
0,161593903386679
0,179603592026657
0,174401871758543
0,191283601799208
0,169969798320201
0,155899390964235
0,156943731518815
0,157743139003783
0,153085989303621
0,156821844304336
0,151931718979666
0,191294644150567
0,147957858949558
0,165235887682083
0,172092779423611
0,157927147023415
0,161211081250518
0,164534854318722
0,160274431856598
0,171128182463216
0,166378304247438
0,183032563668108
0,16683183530782
0,183552989041321
0,180247196927081
0,17758224676189
0,181677501467061
0,178993740038096
0,183548990649142
0,1899609801065
0,196231575971576
0,193449542291207
0,195904699654443
0,205391491763274
0,199950663207851
0,224011938442283
0,215157829662271
0,22040837661529
0,260340430799106
0,217419770667537
0,260649452517598
0,228115712983643
0,253231451504461
0,24699591377165
0,253914316668278
0,259253730453
0,258985301658107
0,270605097536482
0,269632561248155
0,266290262045741
0,277003986786227
0,275248391304607
0,286696807856189
0,277666798832472
0,311421455688419
0,279085824357625
0,326644984043428
0,283842340633492
0,311999917577131
0,298170063589242
0,301659754643223
0,305890303209395
0,302827742775607
0,30463795226006
0,303958632222789
0,307336806876547
0,310729110597443
0,306402960050975
0,318022273566967
0,311513655905107
0,315176618933776
0,316797988024832
0,323613999997328
0,32051724686033
0,324427565211877
0,323924480833678
0,328871613208708
0,3277036798499
0,358485040658354
0,32342305756764
0,347701400947014
0,332687173868597
0,342601496937796
0,340694781909991
0,348367204740701
0,357777568452765
0,354306202767149
0,35992583720315
0,359025567467964
0,361068788615268
0,361087219784361
0,362098158945276
0,379221873076594
0,361046073049928
0,38504602405545
0,35903269550909
0,41605799032383
0,364843115061966
0,387750614057447
0,38403688578777
0,385771388270628
0,385052587376569
0,383166311318357
0,387261497287153
0,387805290680093
0,390693581143019
0,386911414578926
0,395435405807631
0,388249805241002
0,38932178586675
0,388820925795086
0,387660410793257
0,405426870102328
0,3870402614515
0,391301806184169
0,384207460767636
0,394970261614665
0,383200697368474
0,403032994501804
0,380193770146459
0,393241142624012
0,385607588442558
0,392723388849329
0,387378832503464
0,391058759924139
0,383783250077268
0,394426007075776
0,384465554978157
0,389119390672398
0,382379237173066
0,399779060060758
0,397586281727711
0,392779599676524
0,39403368001845
0,393415754725324
0,400968651360636
0,399775714327995
0,400051908058585
0,399282976446035
0,401288971657886
0,405134719323573
0,410878121335242
0,406987192442994
0,402357860887174
0,411883467970018
0,418857549172941
0,411525109864044
0,404450670230602
0,410143272695886
0,400690406798266
0,406294234719934
0,402011289925675
0,393753663140498
0,391006608476973
0,390020312492603
0,386236268797898
0,38585598269173
0,389832758662246
0,370533787607019
0,386853337125152
0,369687191465542
0,371026394790566
0,363811465456247
0,361217074142206
0,361409293397273
0,3585813339376
0,359169729768527
0,353816229380741
0,353442365102754
0,349926135282771
0,350748429960535
0,345642358082976
0,347677142080244
0,349249232959726
0,345311703978484
0,345176139383196
0,345508828216425
0,347395742294436
0,344286624074705
0,344944439542528
0,342436951621288
0,348954282180989
0,343773064466462
0,353028528632023
0,34567511499718
0,345545879243593
0,343528726896802
0,339055686614428
0,344216075939714
0,339085892343256
0,33990409200281
0,340722243376213
0,342331029116765
0,336629917457884
0,339850355448296
0,336559008058195
0,342414568516344
0,340133890935607
0,343547475817494
0,336249312818753
0,340739856969653
0,336244982014938
0,33972358277645
0,335481646220748
0,342430524091533
0,336903539384635
0,337407900018617
0,338685164132585
0,336832127746949
0,33677559630309
0,336386491743774
0,339909475331713
0,335287777613487
0,336914521637976
0,337655930001104
0,338286810317046
0,335529306884065
0,333536516110373
0,336453653221143
0,335133795986122
0,332249631715658
0,326428835314307
0,32958185039564
0,325317494274856
0,323050187502219
0,318003623936105
0,317647876886648
0,314690556789121
0,313551263145301
0,308541436662724
0,307513204496018
0,305433532651989
0,304099856948016
0,298456609957333
0,298494431036017
0,294478278322718
0,295214177495209
0,292436258785183
0,294537804789926
0,292172018408699
0,28894365039499
0,289699134766901
0,287596914262717
0,284439685074844
0,287755431206787
0,29325941381781
0,289697237961606
0,28671985747865
0,287414050895702
0,285048327555017
0,289754720245128
0,290530161650961
0,291409217576522
0,294489920701697
0,292042693317082
0,289893209297459
0,296386708516486
0,299005148739508
0,2951472796465
0,299820429070607
0,302368197416225
0,302936105460662
0,302087266735411
0,303731571165981
0,30793378864044
0,307996441574132
0,306893355516281
0,307641577251498
0,304559913420891
0,306172257920766
0,309707698643363
0,309691190356145
0,30802591612271
0,30688081908043
0,302920969456884
0,304960386663687
0,304331758838916
0,303453973745844
0,303029199165497
0,304042966245766
0,302923530021112
0,300245805840793
0,300476415975418
0,299393981839017
0,30058810461912
0,29984937113244
0,297561977224541
0,294424280488796
0,294724051611387
0,292693227446812
0,291318597569008
0,288954636926518
0,292119092961691
0,288525586774951
0,286289891979023
0,285915226873301
0,286273399806979
0,284936629673863
0,281311166080451
0,280267773856394
0,27994676061063
0,280632430463889
0,27987956140481
0,280442722929914
0,278942823759777
0,278705224913366
0,276054516383252
0,27486762917827
0,275353384036979
0,273332616171567
0,271655748436022
0,270715456926981
0,270898088648627
0,267525461511238
0,266756183974773
0,263729216727529
0,262954712939326
0,260319888331637
0,257893890476793
0,257079247289221
0,25288672509625
0,252119002876664
0,250878006788485
0,248928679782968
0,247733760701666
0,245629358656203
0,245829894663665
0,242319566116343
0,243152088091459
0,246830552923258
0,243336343400921
0,24130264807284
0,241087039465158
0,24275178847528
0,242249362649207
0,239938780851407
0,238071932564825
0,234723058644684
0,232494659010945
0,228913979310399
0,225078001995132
0,222953733602037
0,220514458619201
0,217941748156863
0,21629840909043
0,213648975705124
0,215697652120412
0,214874817552839
0,21852351313676
0,218329245724979
0,218652494524788
0,224547894518458
0,230861188673265
0,235089496297246
0,242149135141068
0,250199505446353
0,257738201088573
0,270561144453901
0,279727210576476
0,291673829127208
0,302331626615708
0,314068265271512
0,327820036830561
0,340055667031448
0,350013257280644
0,361263243491429
0,372724926099994
0,385583915179866
0,394229155636484
0,408293850617982
0,418998685552119
0,426580043902752
0,439421220845436
0,450508429276939
0,458284177522563
0,46465230951065
0,475360687176656
0,479898270951921
0,483802134707478
0,496277818166253
0,500247558274045
0,50767867592812
0,512729470193436
0,513840505743296
0,515467278916691
0,516962078602749
0,520144578082088
0,525415295369725
0,5256651771714
0,524692448285051
0,527349850626765
0,521144980767863
0,525978411294018
0,524957129484258
0,527234370429334
0,527927470214899
0,52916126025328
0,533285060464797
0,537082054344111
0,538828271156355
0,537258513902869
0,544434532682894
0,548387026293614
0,551758117224949
0,555398990398164
0,561600253255379
0,567803464129125
0,573985825401588
0,579194249311085
0,586086247106681
0,591521387004096
0,598936487382266
0,610662746447665
0,616575413252694
0,627866153181539
0,640247950512203
0,641345702583937
0,655427940733857
0,66152126294642
0,666049180823041
0,672423765005782
0,675439406843243
0,676922739671725
0,680504634716549
0,677801193081439
0,68263432794169
0,685215820606336
0,676334808852827
0,673288800691178
0,671608608755487
0,668529363017893
0,665820231460362
0,668422345285278
0,673030532553076
0,676596657374059
0,680136189176931
0,686148845600707
0,695172251634239
0,710054092833574
0,717616644403421
0,725803253336227
0,744039537391018
0,75341234659907
0,766664743270939
0,777237491747216
0,789016257611561
0,800803151766978
0,812855105219988
0,824336650839107
0,834806734313707
0,840587319301039
0,861914092736352
0,87541954254635
0,895437023300832
0,910706923962251
0,910253414027454
0,931785379089284
0,957097217306371
0,975683732703861
0,989717313927554
1,0077953995149
1,01155062787992
1,0468100624988
1,06151146220613
1,06304217997022
1,08628767848882
1,09678122595496
1,10392463892389
1,12689832895829
1,14274097822742
1,14228108617159
1,16051107810773
1,1743021048015
1,18354282483508
1,17940904834393
1,16802867744824
1,17569448910263
1,17378214737498
1,16568149842522
1,1671140187975
1,17174358037635
1,15553817841931
1,15098811966206
1,15271559694079
1,15169721448048
1,14881547801972
1,14623875800642
1,1627562407152
1,15347213869474
1,16235326668812
1,16398906953631
1,19750673414871
1,21293299000399
1,20620902464836
1,20596330972297
1,24313857849106
1,24899841488759
1,2648899182395
1,27151139334353
1,28714983656534
1,28090753433816
1,2983160232801
1,32970083507898
1,35458746922564
1,33260419081569
1,32123219039655
1,34644776211156
1,37193932746184
1,3572121859843
1,35993834311424
1,40479637716684
1,41467824892117
1,35903520468872
1,36526069884594
1,40161372572407
1,41338722533807
1,40893072905684
1,38545677713825
1,40896991249435
1,40040286329538
1,40017018359169
1,45251653454475
1,39346939398199
1,36862956837696
1,4155782907423
1,4082308970905
1,37358114930494
1,38020776165635
1,40611534868013
1,37096180233723
1,32965158910375
1,29624612872916
1,25985402323395
1,21763923823377
1,17323404326879
1,14721420996535
1,11698277411499
1,06655503619244
1,01108541621986
0,965685419865171
0,92729176485818
0,894815636592222
0,861429876991434
0,839675686061952
0,819567494990868
0,795577370687327
0,786710615208157
0,782242710543909
0,77426464456364
0,771636444225646
0,768627969595879
0,754762708943399
0,739681293333634
0,739576695377449
0,740779233521989
0,719714235701263
0,701370421451965
0,697308605060004
0,687075232122253
0,674190318561502
0,657167930821193
0,64571792255428
0,627861716908249
0,607021946749187
0,590843573426412
0,569882770462033
0,545482743672882
0,526422475179285
0,505854037125421
0,481277999915794
0,462906414815167
0,443292104412297
0,419152718038931
0,39755649547389
0,378069938305057
0,357326671652524
0,343286066387148
0,328902166670858
0,314216146320262
0,303030106045397
0,291114648544236
0,27466569435901
0,265305497433614
0,260202556103933
0,248885416062913
0,244197989692284
0,240373978499896
0,233604580262725
0,232804537798686
0,229182475735929
0,224817355651562
0,223007945757587
0,219451526501295
0,220297308267202
0,221093010219856
0,220294489941934
0,220193511497574
0,222371071824906
0,224159546736381
0,225143641005864
0,225960420535267
0,2268906822468
0,228194649354096
0,227791112959213
0,229540539927302
0,230717824998082
0,226975587505316
0,228459328893608
0,226399101733999
0,225014021113294
0,222379079523705
0,223010030322455
0,224324429546935
0,218962612182668
0,214951992171771
0,21640862875608
0,218133845507255
0,214159869343577
0,214359179435295
0,213186812525302
0,21169066450361
0,217454289114581
0,217739094733819
0,218087676190232
0,220111828726958
0,22410604365023
0,225008472743453
0,22666732903122
0,229760032171769
0,228549620001282
0,231614761930368
0,236437015170872
0,235543419835895
0,235763204907849
0,241536985835555
0,243530495608419
0,240083254428688
0,244388704513033
0,239426008819787
0,24233276725397
0,246827420876103
0,246153625363841
0,248138194873922
0,249278525099981
0,248016818670102
0,253756411489673
0,254935972213766
0,254143457358284
0,261851072662661
0,265897473061475
0,269456659919982
0,276238583086843
0,280866647276323
0,287504495994124
0,298531619016835
0,310266620148265
0,31956972065589
0,326243998726154
0,329384683060531
0,332332505816029
0,338872977326528
0,342900741694701
0,341225553039698
0,341202276582822
0,339253914049165
0,331924864644127
0,329324585431504
0,324243047565371
0,314724994364133
0,314146750034156
0,309273555130543
0,304637672619347
0,298070915656468
0,29722406096619
0,304180929861839
0,303151490514949
0,302834688696759
0,305415261852686
0,30209025976594
0,307916996619729
0,30901766840044
0,305772022224471
0,303569859963827
0,299553710502736
0,29410350791046
0,287754970923104
0,285707461021245
0,286299426678643
0,283217154167597
0,27921042790757
0,274446029230821
0,269374193617908
0,266421739609996
0,26645890882756
0,26468769457308
0,263840896482053
0,261966475408668
0,263904718897109
0,258606310076381
0,256809274331156
0,25387433051248
0,251452781360332
0,250539270281889
0,253382674733578
0,255143920850927
0,251338840320904
0,254675303703639
0,251544581943024
0,23917919602099
0,250690475589704
0,247583285430321
0,24136999245582
0,245756213231852
0,244104985026618
0,240018363825268
0,237150775006597
0,244637293388606
0,245932618722916
0,239000245736748
0,235584557652174
0,225853007803022
0,236586721235698
0,239227810653981
0,23331941906049
0,227726568044486
0,224497084571103
0,225300528886503
0,225117761130116
0,227118076425226
0,223388545261144
0,228802326631127
0,231354414181071
0,234468674658682
0,232399069963944
0,231887515471219
0,235602169613165
0,237064270980138
0,234105074803998
0,230797386380526
0,235220400243375
0,231377551255747
0,236334935835173
0,244144258986307
0,246832986361013
0,246351516200741
0,253526861477519
0,245670847147988
0,251229987238386
0,251503241934741
0,239475528548892
0,255848387692098
0,253960361402627
0,258165194589032
0,264734028187522
0,261520888084398
0,271874589622123
0,264888687951475
0,274970860329451
0,286337913995093
0,285208925197611
0,286942875193165
0,297934742869938
0,311021245654211
0,312862637361825
0,319723634939331
0,332294789951178
0,344341249457678
0,346825104668577
0,349762659138098
0,360733972414424
0,383602353261371
0,38834096039538
0,388340476667305
0,407861233587119
0,401617251024119
0,415177521538769
0,420259448799862
0,420000067642431
0,440167934560278
0,445111966884435
0,429776682794892
0,424222377674884
0,429909543634014
0,418255758049049
0,424291458852001
0,425108357234161
0,43098536430114
0,406146462745074
0,404320005055164
0,436603868032901
0,42213731141191
0,396138972533177
0,408088849669266
0,39613611170517
0,424085304782802
0,428768395361846
0,405115440417721
0,386069006311091
0,395853804734975
0,400809501208052
0,371129632286148
0,391397311029989
0,397899238354214
0,392590737082665
0,383496873475657
0,374996825026739
0,386607317304803
0,380448249202306
0,371818064667857
0,37185342509246
0,373488902315997
0,382297215456627
0,380960611087261
0,360960347060619
0,370767847279347
0,368791450425009
0,365381989238058
0,358463109941163
0,346359943632701
0,379406718379305
0,380972372784962
0,381015258141751
0,36995680085366
0,366615822255128
0,383015458819886
0,363890760383943
0,357884432816178
0,382223637757869
0,393243085267773
0,379074746661407
0,38662765097987
0,387898505047718
0,407472581551196
0,400175359564545
0,423829896264612
0,406346886279865
0,383240590593273
0,405328721453678
0,390411153067192
0,407300067046943
0,416254245165929
0,393089145584872
0,412156475174906
0,415178411384658
0,417955989482866
0,437058596052856
0,440104094155841
0,442629428346122
0,406021808334735
0,420490538376117
0,446749733994607
0,45509587981782
0,43488117747536
0,437543529831087
0,532401847556473
0,473694023866172
0,50050969696623
0,565773542555336
0,491968887797976
0,567145606314052
0,564884572749397
0,496362738956284
0,522074125971836
0,532892113140849
0,556084628108094
0,511873275600922
0,523472300299003
0,515831291077417
0,521777478909733
0,507341080615325
0,565542782266274
0,557851396829466
0,535115094123212
0,491224120786934
0,513198134494995
0,476306985639211
0,494644849445363
0,516971547037735
0,530551210691405
0,441343351709108
0,443433444788881
0,604722772473862
0,488663108314868
0,436234770148557
0,509710839789485
0,480438688510355
0,572044276466105
0,546953807269248
0,544637001209271
0,453587961256017
0,439915129655198
0,435838862266082
0,608917088531425
0,516030866705481
0,513516683276461
0,543783985596721
0,562841483419994
0,47446552474856
0,479651654544527
0,544738877247685
0,441496646521941
0,359026543809845
0,697503688331338
0,759272969654831
0,53966394003575
0,553182064312036
0,575076669971176
0,580075316338061
0,568285529541713
0,469285887634026
0,49355607006282
0,553803746810012
0,586392635590211
0,39743250571041
0,578489451024009
0,76999220608477
0,943459262985571
0,615349090291938
0,58064952965832
0,247406077887557
0,917283496540205
0,793482250253743
0,732299559729767
