3596
4000,36533379555
650,420452594757
1
2
2
0,0504955512798125
0,0505814767578271
0,0477355814180518
0,0507024565848036
0,0425411259119743
0,0526930766822478
0,0421729284932619
0,0472887950708858
0,0351197746121366
0,0523536511210011
0,0427194751703573
0,0430038626370502
0,0456843786916357
0,0484126526419381
0,0495318593019818
0,0443751278145794
0,0391554519510229
0,0543122977381553
0,0502582511847084
0,0465578769318567
0,0400798636305829
0,0469597716825329
0,0361738081277075
0,0460242898735092
0,0345464067819798
0,0504945231679839
0,0491774689831207
0,0508617974102331
0,039528282747112
0,0533072046085872
0,0468684791377554
0,0539664846908597
0,0395999964793254
0,0466967550388411
0,044496697157528
0,0505076649984022
0,0439916007959952
0,042114613965461
0,0424737457369915
0,0545182991697045
0,0421631512579796
0,0500045411219648
0,0458056456831961
0,0535038401991772
0,0421535832108924
0,0549125327077195
0,0401686239346745
0,0457706942143625
0,0404482105279581
0,0478686424676377
0,0316319502590474
0,0508438900812953
0,0508324621557214
0,0426346707235439
0,0528334436009609
0,0550377474688011
0,0472697356860552
0,0503788565887401
0,0462532191884802
0,0609182105193651
0,0384190719465849
0,0465283269146608
0,036122552478339
0,0387610326310857
0,0490746221184074
0,0428629624542491
0,055083138194772
0,0453523369717098
0,0439680156116939
0,0383240695067098
0,052612074443283
0,0420611321085434
0,0423098353048472
0,0505466029825669
0,0393160884413195
0,0433697431619579
0,0404463227690422
0,0491197406147074
0,0514520259251998
0,0488300167508569
0,0453475370072335
0,0501579307913985
0,0431864844018709
0,0441816274793157
0,0420512150192888
0,0387850156733508
0,0555941241494305
0,0547148001168765
0,0449898598389469
0,0413645593790433
0,0435510342804031
0,0502969015475304
0,0485390893399856
0,0435351275913353
0,0402467474779619
0,0354640240759243
0,0348841121439399
0,0396395451822232
0,0564672867775689
0,0428185812713458
0,0377900066949974
0,0743251724251871
0,0128204369801365
0,087988958463582
0,013966617440403
0,0353032820340546
0,0498957446904193
0,0356076512432737
0,0463700438937073
0,033389738971692
0,0414363347516317
0,0433036801357936
0,0493209320861679
0,0343260156381243
0,0603635578001797
0,0560482138932153
0,0384594040893976
0,0267449965661386
0,0432890116166907
0,0394314729865722
0,0624731209085508
0,0663212384694088
0,0239324997894471
0,050760860126141
0,0286667093227907
0,0446072155642348
0,0629596410142823
0,0546212714353311
0,0261370062699847
0,0392577851244289
0,0351610059562147
0,0503036785276735
0,0342572860481451
0,0724804113705992
0,0329160054044882
0,0461300547163216
0,0338289033505909
0,0612240959998827
0,0540648650915001
0,0397617935679392
0,0362043994115291
0,0346516491604491
0,0461824498296741
0,0575753362736585
0,0352822694742421
0,0384873736452004
0,0411532053405359
0,0376640265415804
0,0413690017551086
0,0461101598147142
0,0342236653589257
0,0616878374573337
0,0385012675165899
0,0399448190092087
0,0712515255747664
0,0522489503887761
0,0267475335688852
0,0939560079485605
-0,0206124217785323
0,0525899518942375
0,0181167476496708
0,0468181210877363
0,026568800964428
0,0560336881790829
0,0401096771652568
0,0595274434182282
0,0530535714583899
0,0383230802385937
0,0389115741610713
0,0465645220419107
0,042200994432363
0,0438563512083592
0,0784781359155822
0,0138701448231388
0,0310048183381699
0,0608381901912336
0,0335225794545894
0,0450574130727797
0,0459263975494293
0,0529687762508904
0,0225804855138195
0,0425449839684006
0,0322865132788772
0,0496408034339682
0,0371106246299305
0,0476077923726799
0,0393222535798161
0,044596650494658
0,0362805980274883
0,0650948025045187
0,0535634422923335
0,0642896866691923
0,0319122251361585
0,0525769099900113
0,0221430505553529
0,0786373123425637
0,0285423329988565
0,0380134756057611
0,0335215957183067
0,0407220399336115
0,0427859662832309
0,0447271094133151
0,0373049561312535
0,0472799978056427
0,0353726470255219
0,0818136043299767
0,0277258062096342
0,0437818480075797
0,0292168267025435
0,0545916290631599
0,0510069712360374
0,0699228850275
0,020264559721049
0,0319275397635369
0,045308094478034
0,0312772601749696
0,0497849637760277
0,0569194255454377
0,0408961223847099
0,0465343733204362
0,0376597628721427
0,0457178527958977
0,0397347933738691
0,0521276426620334
0,0442706788866467
0,0447555237229451
0,0434772048258463
0,0397124041526012
0,0397547726012755
0,0532186308089564
0,0304124237518149
0,0470706640921866
0,0435140693788395
0,0336156637973187
0,0508881482346352
0,0694472173428729
0,0336446313973807
0,0520755578571617
0,0365272666524683
0,0489267667614019
0,0352172241630763
0,0564454908364557
0,0378176803269015
0,0485387661055368
0,0313688660454104
0,0821102663779357
0,0192083057461043
0,0586102066012439
0,0356003781870593
0,065204641690165
0,0443413148885977
0,0500557747150545
0,0368237248083748
0,048988974211712
0,0402789476515439
0,0500171541784264
0,0637837753760048
0,0473513750312829
0,0456229370299801
0,0601396569146071
0,0427298604555117
0,0427912353188058
0,045646941826269
0,0387027882207935
0,079333816976613
0,0179465094461337
0,0467948274916931
0,0983641536821445
0,00970347536169781
0,0616623101316854
0,04785638399309
0,043453536527912
0,0901477825218387
0,0445351834587058
0,0401374430695794
0,0377581307671716
0,0531452649207119
0,0430315551948307
0,0521358571960602
0,0417150038503037
0,0533929735148597
0,073086191760393
0,0542057210843823
0,121405912185378
-0,00699597264917509
0,0736659088682659
0,0441533844951174
0,048401426267457
0,0418272217599164
0,0470667712953477
0,0417405803086942
0,0605490507926464
0,0546548181376371
0,0522705701534657
0,056594752739843
0,0353474092574101
0,0718670712484426
0,0337071268769213
0,0536185584876458
0,0501041602790625
0,0680789580092285
0,0320682900225199
0,0572446023734339
0,0425023287872508
0,0694091691158882
0,0455336211627154
0,0544511901191512
0,0919126529633805
0,0612605444181735
0,0495456820452507
0,0741544218847809
0,0454465088060053
0,0546698622276993
0,054194115587067
0,0576192788623971
0,0518209452617533
0,0570542718484457
0,0546917653628971
0,0851570420203977
0,0512733276364443
0,0522374671228668
0,0565952266459082
0,0550532216389435
0,0587454254295705
0,0599968183315378
0,0622040918228917
0,0597355531866818
0,0625292405044878
0,058076837949914
0,0700231527454304
0,0856195051834391
0,0450469741587298
0,0946934064410941
0,0713493720634388
0,0432337652881895
0,0673231858849476
0,0563042273258607
0,072330948249798
0,0611463134392503
0,0693193733331649
0,0572468782016584
0,0716228642468499
0,0902534959709451
0,080266554003071
0,064403529003671
0,0899194610165466
0,0975684333881473
0,12930688644798
0,0525219782125841
0,0794371450386854
0,0629019906836269
0,0980968386949791
0,11409014030774
0,0823354653503361
0,10561537873389
0,0689158772428351
0,0952713181385508
0,0713612105811079
0,0955943411791588
0,0794683604531577
0,0960450112550639
0,0903002652446403
0,0957020624448629
0,0985231408816777
0,102958607444648
0,100797771313067
0,106512487675571
0,133004347537029
0,104737816862431
0,105131809856653
0,121451913295397
0,103776462092547
0,133565763473813
0,149774599097584
0,138819602805309
0,123643666370907
0,0930250720093792
0,170567145074402
0,100815042986633
0,134082807815809
0,119279048396423
0,135232176150214
0,136027392202754
0,140736772344714
0,128030167996483
0,143589098285485
0,140361335370938
0,163336232168402
0,134201679391498
0,156339128815871
0,138277369432081
0,177266359457921
0,163471340442412
0,16733302796433
0,154379593577851
0,179882658641477
0,197687720069362
0,226122489705471
0,163167268186346
0,164086701337544
0,183405452853091
0,172010680264765
0,189066795550985
0,177748055990914
0,190851031655808
0,187802193499381
0,21985640362043
0,192661774614705
0,195457776511555
0,229253344414409
0,186115934107756
0,221322771409052
0,208217493244191
0,212068166078
0,241635981222978
0,212689684921347
0,212736567298238
0,230093354257855
0,259354861373881
0,226779433808157
0,276698380571529
0,225737974881797
0,245008212896365
0,228296504121357
0,253721388057284
0,24495363283836
0,268348350889734
0,262277862733894
0,257939231348607
0,267193035346147
0,267492291648623
0,271779737887195
0,292930029742936
0,286283391884626
0,27122830181193
0,292724617421074
0,275145076195423
0,298839635411527
0,288280334724058
0,308981603371185
0,331769144449719
0,303461904742312
0,347003720629858
0,305670123403361
0,313545723640113
0,30336734488158
0,334185821067862
0,316447318675496
0,336689319697303
0,339810260167608
0,344999819772176
0,33791599973349
0,35715776382519
0,341337068888602
0,353949026122534
0,341927146850763
0,355372787885809
0,365312398025112
0,37394491061075
0,376302424153923
0,377048496267665
0,389325970212701
0,440591670667469
0,383970985586146
0,477469832246093
0,375380955522984
0,419951619777233
0,392526605293016
0,416232347975271
0,407541504015618
0,46052286409414
0,427673316263853
0,420481049126619
0,412760368238722
0,436399573878893
0,423597570782692
0,463574004514946
0,440006188752857
0,475287460175127
0,464803171063306
0,465937392950752
0,460631239461601
0,464143824953236
0,474798844030431
0,503905214128354
0,466269879673298
0,482650244437183
0,487177468432355
0,503254928517239
0,494523009316672
0,510059419661014
0,490278787172854
0,520139106047717
0,522995879589826
0,50280133801689
0,506248871057538
0,558104387098494
0,530370364156444
0,550446250728248
0,530609101297664
0,561922119208951
0,558709358925839
0,563506288987716
0,54916418894597
0,583211989505209
0,572063649213357
0,586791095990143
0,56042959545529
0,598110946200472
0,559886997961601
0,63123558208574
0,57821983604908
0,641713316251525
0,58771212928377
0,614417662089641
0,608396999057181
0,619410371691724
0,589561321024841
0,661004304245208
0,613639622750265
0,624397705825804
0,603739748634454
0,670503847895143
0,648126268952546
0,674614657115777
0,705252161034483
0,687925992395407
0,657792504518519
0,657622479177368
0,626697896311674
0,695196376370083
0,711786867218413
0,719392935742781
0,695885753939046
0,762929436726584
0,72915113986218
0,702904165694777
0,706762282882185
0,754234071406616
0,706870078401485
0,746149618852693
0,710877419583085
0,755820277791386
0,731923617012868
0,763253553578719
0,718763524932491
0,76211597044423
0,775462669128955
0,822814476593062
0,736230052223984
0,806311064958149
0,758637716983902
0,779896242356042
0,790421350385014
0,811819655792638
0,791814167413775
0,797920769708083
0,814254246028126
0,857276796315647
0,825686071465022
0,879951593686011
0,799788060760091
0,924311679717121
0,810868281548407
0,893847775193317
0,790020625213076
0,847747192088017
0,789134509200531
0,853202565178155
0,839748358110187
0,895330479377435
0,898811039540959
0,892590108486854
0,851609906266377
0,914669540083756
0,900736791841078
0,924655998458123
0,865128776674338
0,894845248123413
0,876787607682765
0,993696433389406
0,9128907962427
0,943351203410397
0,982844057724875
1,01534254876658
0,931266920511093
0,958751727223033
0,925886357457614
1,02719059242607
0,950339986720229
1,02598023003919
0,936293943575404
1,03648119056631
0,903644665262617
1,02849598906441
0,96621493713207
0,954983159418431
0,982778568703041
1,01999217439286
0,983711779622292
1,01398532364054
0,910236777889099
1,00145087128867
0,938600377587082
0,993770948829708
0,977910751185466
1,07653907298278
0,966793176552572
1,07836755863915
1,00050313588489
1,09758667096398
1,07461237142484
1,06807683597265
1,07452768450509
1,09278204800263
1,03706078683274
1,14162287838944
1,08051027881852
1,11456270051222
1,04841521446058
1,11579879303193
1,03408006798643
1,15151643319829
1,05458258867427
1,15931038392515
1,05708425884974
1,14131803824131
1,14884317224004
1,11298985674079
1,05634469515054
1,18100041481293
1,15763336804333
1,12497163439644
1,06667657876829
1,1909691617355
1,13132745674623
1,23740713439109
1,09271415376906
1,16808452424683
1,11908973634421
1,14512647672007
1,07301645069117
1,193035799519
1,07628609245612
1,29599287742876
1,18788926846904
1,19588080179908
1,13059880284623
1,1797831296627
1,13015798194949
1,32359542664001
1,18262683910862
1,20341469852345
1,07619035337092
1,44838839697442
1,2337230535247
1,20827308225026
1,22234170334781
1,27088375802094
1,2010725781568
1,20281667890181
1,15019362582309
1,16063568733717
1,16101244326946
1,19863732629245
1,16300013258607
1,37497726487887
1,25408973228078
1,28227012168176
1,15720308147716
1,33378153764428
1,14030756650217
1,43531077046367
1,22146230851946
1,38046272372074
1,21204197784254
1,25030414108437
1,28894689041654
1,29040139049946
1,15053685845505
1,20907106285474
1,27551235784537
1,42559723781536
1,28135363749127
1,41542140191134
1,27781902450388
1,45335429448064
1,22255564278303
1,41463068527313
1,33199986192851
1,42040387025454
1,33653612420815
1,36527740153114
1,20623513142489
1,40138214820411
1,2449900347245
1,42835527542095
1,30243781891275
1,37785484732902
1,24439696964283
1,49597961373981
1,27763136048317
1,40668646316029
1,32383097897534
1,31319273603856
1,26956670869572
1,33240578647035
1,31564199931685
1,23674163973494
1,35097577508564
1,28803939121881
1,27794580016128
1,54550644270043
1,28907045371233
1,59366243289089
1,33303487593918
1,38352844750142
1,30787315002813
1,48307869253389
1,28318657633729
1,43204985013458
1,23425358784476
1,32223180522016
1,2167355693834
1,45182689753952
1,29930779791027
1,40107837022857
1,43461936095028
1,47262985920094
1,27936868134641
1,41949456578185
1,3124607885541
1,35574901732542
1,33796700578262
1,47977817613421
1,23410307537434
1,37182049474419
1,39811228710001
1,34758582468054
1,28992300297837
1,32090099681928
1,2849869944942
1,37820237919239
1,30789362085388
1,34746752485937
1,40119747056487
1,42915169953688
1,36435757773535
1,54306186662069
1,3467769854802
1,42504232240988
1,30940240362371
1,39155794910415
1,32098234857353
1,53075224283421
1,24995791140868
1,33016038200189
1,21548060426375
1,42843994198733
1,3617667157707
1,46143172439098
1,39605649692445
1,51107421467051
1,32001771023937
1,42360794388382
1,30573091582405
1,5082031028986
1,30398922509015
1,44576157251328
1,33644686584768
1,5601429117778
1,30404343511912
1,37401518644238
1,39080063398827
1,39464881648479
1,39003417913962
1,45922849478645
1,31097788136668
1,51986318738366
1,36815196505827
1,42462233332052
1,25020663551884
1,43730317577504
1,35850444197083
1,38467389529172
1,23885835242683
1,54578740483929
1,41996170004811
1,47753761769604
1,3302982715635
1,43229655106274
1,31725526975387
1,43525121000473
1,33077224937632
1,39223349171979
1,33357446276103
1,4354756460462
1,29607552446015
1,33322256511688
1,34842853725853
1,58851580775656
1,26257084406789
1,36759189724926
1,31992359601746
1,56205497105825
1,2983413020188
1,43158458915146
1,22261546027993
1,36486142664267
1,31680205960623
1,35065579372528
1,29856341280431
1,41277340955086
1,29708465771847
1,37335063770138
1,25896052925871
1,39325565355977
1,28426924420566
1,27001583231181
1,25778859264773
1,28557684008571
1,236715003914
1,35991875597693
1,32941750842264
1,36443960056274
1,30987811969587
1,36503691731003
1,26065357432542
1,28521079326066
1,26149929151887
1,40480729369111
1,24248125011737
1,31947917762381
1,22437469549606
1,2620685919667
1,25202588673752
1,32705400147933
1,23980691896076
1,32610144408229
1,25905468310268
1,37434260114965
1,19386456390666
1,44160270790487
1,17926558511341
1,26124822074528
1,18086472349139
1,30479848666993
1,19890226621337
1,28382125211638
1,17539713235153
1,22669091008131
1,16528381124763
1,28049110432761
1,15752744052518
1,25856094889266
1,19366951710135
1,21835996471163
1,23343795250396
1,30074370072037
1,13488775393026
1,20767103676524
1,19792152115295
1,15685115341795
1,15483010374611
1,17167553760869
1,09150843087684
1,18035759171024
1,15240208647822
1,23215113182433
1,13841895592605
1,17221457305038
1,17093965204827
1,20695065983912
1,13524027931578
1,11149419087103
1,11879054789715
1,15420797909515
1,1151198360691
1,1368863846439
1,10687225719554
1,13144192517904
1,10711895690627
1,10945318871782
1,06016325218216
1,12038304348159
1,06312747993499
1,07008912658117
1,0829165470729
1,06109049277174
1,05060014609791
1,07533172229181
1,05074204155517
1,05853902841586
1,00822884229893
1,08888042179176
1,03392488235187
1,0769900725333
1,03601300204998
1,04402546852499
0,994973520390084
1,05751547035865
0,992636781655451
1,02726107583835
1,00528093473963
1,01688352156817
0,988804324762367
1,03560632695523
1,01266672164527
1,00315397898666
0,965451411461774
1,00001413844254
0,970809185587997
0,991260880044289
0,950467147683996
0,997577578588385
0,928990983294417
0,999468283428737
0,938646084216109
0,955600992550367
0,90200983772726
0,956018553200113
0,91982094540792
0,93900046532742
0,928707185788647
0,899811277952375
0,947819280074537
0,925975531902059
0,905745052687372
0,932511919192564
0,873826195148168
0,921983359529791
0,857040921438311
0,901820777350593
0,888200844944853
0,898273368525433
0,872931579539153
0,906326036161873
0,875023308569338
0,880446364917843
0,851331621732405
0,856012154854257
0,852860701728117
0,873041953468538
0,85362814555207
0,853628213987946
0,853874558638956
0,844174768545808
0,821104748228967
0,83961050854052
0,813580767811924
0,835573649944682
0,800553182527424
0,851204371398236
0,806437511175103
0,804146350094984
0,781196629902871
0,816069332731149
0,786300364880794
0,801231013741644
0,774492062841284
0,79557810945817
0,774752052686575
0,792654628716257
0,762167303285546
0,790981031660405
0,777205910573715
0,758542145901255
0,746688681851445
0,760136334804284
0,754656546282263
0,7579475771411
0,754780844244359
0,745640726726773
0,739203844209537
0,739930405919832
0,726499035616454
0,751493722052516
0,69124881568073
0,729654020766898
0,719813212404896
0,724583008568741
0,705887258349474
0,724847601200141
0,687484194625453
0,718341807780161
0,697300892574841
0,699523770908711
0,693274982233388
0,691776985427398
0,680931710749446
0,691052323049863
0,666167074050017
0,677483762509217
0,668899902589518
0,683003373127471
0,648701558998027
0,671591134619476
0,652263755383449
0,67669191880546
0,643840253275063
0,664681078863757
0,655077763727834
0,642501047490303
0,647555573953064
0,634009071603853
0,629714778335028
0,651097392637761
0,628586963068455
0,627333932858875
0,632587791272799
0,63297057931709
0,613586677079815
0,625787204934021
0,609510317783337
0,61273645541916
0,600183216558057
0,602184326858099
0,594549845587814
0,603474832937378
0,58730069863297
0,59733715378907
0,578658904856369
0,595608261036548
0,584074032073486
0,57927632743665
0,5651486783305
0,579981220966121
0,562568001275325
0,576779728727605
0,561887524615911
0,560740961547577
0,546999944100248
0,561516697154283
0,555562896353791
0,555718972184208
0,546236765054278
0,56225083400713
0,546631302409186
0,557532619745381
0,540207650475783
0,55036922239353
0,525911438612012
0,544619130395061
0,525262493924314
0,533827235180069
0,520899058661423
0,522426489475949
0,514779023001227
0,524927780702144
0,509521223689682
0,524886863572832
0,502717413184386
0,511838185101702
0,503165281790865
0,51041680914857
0,493620195130438
0,510863432210048
0,486703083608343
0,499177897632845
0,491189547268233
0,493574405722712
0,491947983844235
0,490746188634341
0,484264485598479
0,489191693916133
0,47342868134368
0,482184635963701
0,481998264707608
0,482459368203432
0,477083844657301
0,484909539331708
0,473767251293951
0,478269033997468
0,464224700997481
0,475203117355095
0,46958689198952
0,472495625633763
0,468095123811833
0,478381053576667
0,459506353715112
0,477647075437435
0,463870872826114
0,46809263299395
0,455760184129107
0,477822749391439
0,466176887087949
0,474588189265294
0,465154403807593
0,475102313534846
0,462251848258889
0,478478039022629
0,460064596727878
0,486407401921708
0,47252874361007
0,486861966888752
0,479656572803178
0,484756890901818
0,477558465589511
0,479402155256289
0,479850754705442
0,498594346790311
0,483233011080262
0,499942060394851
0,484542072541186
0,500920423537323
0,495527954374567
0,503649452821226
0,489909641481275
0,515370356977426
0,504312074326163
0,515334382912929
0,502428745870465
0,513931615212851
0,499340378770496
0,514374180664029
0,49912803085575
0,525427430055743
0,517998603293701
0,536834613148888
0,517249028130008
0,537475766233757
0,514233894302305
0,538687260646498
0,527902704652806
0,544051495239127
0,539196449636546
0,547280339967317
0,539446704879448
0,554054825049112
0,538574557244335
0,565072154871829
0,553154550948067
0,562007142169637
0,548524674184946
0,572882513451691
0,565203265194472
0,57935117752251
0,578547852241577
0,591521475424622
0,569141073915762
0,596124799563296
0,591164820080948
0,592079587182659
0,583404205941345
0,601326187681282
0,609767059343498
0,611299475319828
0,60528749113823
0,619301293138684
0,602558173660775
0,622554294174422
0,603731897682336
0,613689348581595
0,595539866491947
0,606970051610321
0,612594270483618
0,623846130575253
0,611033184777141
0,615470952200289
0,60665527783602
0,616697411658382
0,609042837983484
0,612967199957523
0,610452500602329
0,592820590876589
0,59927026655523
0,615962965969716
0,59691140388466
0,613693370841008
0,599384112036545
0,604587599571066
0,587659964358002
0,602682472072089
0,591856782146199
0,593646583718863
0,597351912311198
0,598726874142533
0,598960753467051
0,604063295269717
0,58404966839473
0,612092269942939
0,594465172057034
0,610275273891536
0,602924619511209
0,595712898175464
0,584982906779266
0,615604449298027
0,584996624418285
0,591364431400122
0,583278124385156
0,600997499451901
0,598884168889126
0,617343457852422
0,59456459548777
0,602857913142231
0,582921841935773
0,587814591953881
0,593949892739039
0,590541571967363
0,591537341303479
0,598865647941929
0,588651520255907
0,599761107091125
0,586060729467143
0,587213601630622
0,584015190919774
0,581422617281631
0,585248463687397
0,576312254967738
0,575194357143767
0,587069254938999
0,576156234498305
0,565905384600635
0,556082621078579
0,572467581999196
0,55769433786028
0,574394387031329
0,553299785276216
0,557574862076974
0,550651520009148
0,544749224644164
0,541012114672306
0,558008060432804
0,537623923250352
0,532128653555356
0,532902283914032
0,529520087651022
0,517705672941449
0,537412476296453
0,517838200982101
0,515184479647852
0,503636458071471
0,510912569402625
0,500409224847554
0,513041766215899
0,49235125406419
0,498563825191709
0,474913513342155
0,484491805142736
0,470256657060322
0,488133605641001
0,479316946828414
0,479766776798422
0,465081239181113
0,46491526839703
0,460065952656149
0,469139182558625
0,458848800150765
0,459760251904043
0,450282621370893
0,451447366171602
0,450870474326338
0,444645288281309
0,444295173749323
0,445636206807474
0,43437147772685
0,439966844215738
0,427911256635197
0,435406991812567
0,430688011350278
0,438339529909178
0,421599199894254
0,42995051441197
0,419806645636062
0,42424298959386
0,419296484156351
0,418265399384797
0,413846484476737
0,414858845026612
0,403383607411139
0,421118995812843
0,404493793233386
0,407748387066604
0,412405088122534
0,408972057763583
0,399141833521135
0,397284373670157
0,404194739825692
0,406676108561709
0,397339039325958
0,395515951666845
0,388710356152909
0,394457865423637
0,385139574724869
0,397546061125279
0,395703450630108
0,397665284533716
0,385187635375834
0,387590907073944
0,381906785022376
0,38562916744853
0,38059802238929
0,39050156507211
0,379314799947523
0,37466909309527
0,374075733929838
0,385236920704602
0,37277864602532
0,371020548746651
0,371818678757171
0,372017085246417
0,364587486467148
0,375976612071859
0,362534946598536
0,369076489339862
0,363576961759041
0,371973800166074
0,359403606466467
0,364522201699462
0,360554671649299
0,373724488010689
0,359017665298585
0,365704661182147
0,354060492366067
0,358329465343671
0,353159819809657
0,35671900410035
0,351409713533733
0,355380953845163
0,354782784526323
0,353889733753306
0,350260294254732
0,353473661210991
0,345032126358533
0,353352224506101
0,346722512776861
0,348539952384001
0,34413877496189
0,350035248654069
0,344333871753715
0,340665199385117
0,338446161939156
0,343866643358027
0,338478567753128
0,346281340247247
0,336013999133855
0,339202964449614
0,337843836856215
0,337434829145994
0,331344853152487
0,336894988545755
0,337896480936744
0,343221941696581
0,334884630716541
0,332394282205515
0,32639466440517
0,337848365770415
0,333928819160266
0,340616308648356
0,328628169151099
0,329673358072007
0,326796049748799
0,337090033946808
0,327599214922892
0,332409950310364
0,329229093203318
0,329440573645991
0,328125072805803
0,331857325914989
0,323221147898934
0,32788375410096
0,322051413008473
0,331602973782079
0,317540443462729
0,32760373702871
0,324299205024681
0,326393583681602
0,319495376593998
0,324861017291819
0,322276111066585
0,327518298877937
0,319611877651649
0,321090282996766
0,31428107431658
0,324179737174448
0,318293524412743
0,323369567930988
0,320658164514601
0,323469290064835
0,319676779808
0,321328416908421
0,313985721441195
0,321574237267324
0,316602249126068
0,315994564315377
0,311275094840649
0,315906585052829
0,312322310794945
0,314931176555681
0,309775710336933
0,313131486443223
0,30451991484961
0,315227237015945
0,308269355192904
0,305042548267391
0,307800299108293
0,308129678487109
0,306190459194653
0,303944654282874
0,301995733015372
0,307622422740115
0,301679366221354
0,305496076647811
0,300980037739838
0,305489757257124
0,302127022668518
0,305856122948462
0,297831176954697
0,300360906338151
0,296128973332706
0,299021714320159
0,294917665000506
0,300705933139495
0,294136554096363
0,296933976723638
0,295874346318818
0,293818786486046
0,293635812858377
0,297715401736621
0,291067682756773
0,290002038987154
0,290653193766027
0,292848151169895
0,284774140117066
0,292644968854445
0,285020274710325
0,286352847092474
0,286249571960203
0,287020481795629
0,27920678423802
0,286723980696013
0,282027755443055
0,285131767169356
0,278514996036517
0,283989257198917
0,279819877948637
0,283211903130598
0,27730291444568
0,28125664292081
0,273801899325377
0,28014120075037
0,274309500951494
0,272396367261157
0,271923442168765
0,276051768923309
0,270918813505026
0,269469823551444
0,267490360499078
0,272353914698183
0,267154074235111
0,270203660768611
0,264703267342811
0,270161330459746
0,26588036256567
0,264808293023228
0,259382571369158
0,265372646895742
0,258747863669749
0,263151289481968
0,263011305023748
0,256770418222293
0,255234120850019
0,260641300636064
0,256830101483964
0,258190092102334
0,252708855338135
0,261330469032805
0,255290986949194
0,250031290250403
0,24813049417103
0,249369008054927
0,249335715680904
0,252436662030242
0,248346249658173
0,249187447066147
0,246842519741475
0,248903761132432
0,245439276603116
0,246002278755964
0,240485591237437
0,24150031368053
0,240867247788362
0,244731853703526
0,239792190206236
0,246075966564436
0,239354410641328
0,242819064109219
0,241537643565032
0,241620324753859
0,237034546795785
0,237366234103637
0,235252530778429
0,239345208511982
0,234564241260212
0,236319158293844
0,231451325133457
0,232896706372975
0,228849276680181
0,236293090161651
0,236949208941813
0,234576028829861
0,231777934001915
0,231708698340122
0,227252935708057
0,229487821860383
0,229512507905229
0,229477113115872
0,222512040760625
0,227882123879368
0,228308673366382
0,225211611666167
0,22005464816719
0,227046645176978
0,225016234754693
0,224697263106925
0,221518831483137
0,226955858906101
0,21741229316162
0,217438809930543
0,219568637065444
0,222119142333499
0,220542760175608
0,220504928307307
0,215577876847469
0,22115474287255
0,218027815450476
0,21785412266363
0,214350604647512
0,220513116416876
0,213744016204112
0,217493587231127
0,218796936994617
0,2173378294911
0,2131027448972
0,218428560050998
0,212194858136802
0,212202376376563
0,213617738199572
0,216884401497993
0,212258721699036
0,212338533168474
0,213007392435384
0,215110151347323
0,209582894922541
0,213185523574222
0,207924934246229
0,213697844476694
0,210154131955504
0,213621075780523
0,20721382048207
0,2106374772879
0,210703328918531
0,211650713773093
0,208890781766069
0,209205901035516
0,207769054096837
0,212796101519977
0,210833266589286
0,208669084937477
0,206058855569226
0,210212282299278
0,201205785967305
0,204796676861372
0,206091619618629
0,20788096778378
0,204056251079116
0,202647568730092
0,201424198474839
0,205021103290543
0,20354976640922
0,205259291407703
0,199984668872215
0,204303538318569
0,198475020555365
0,204163838934106
0,201094939439446
0,201063630508779
0,201453980707501
0,201651645593878
0,196849813038488
0,203377509195673
0,197961232494865
0,201282233011762
0,197947539618406
0,198597832600777
0,196187714248159
0,196709783020957
0,196029387693574
0,199791172912513
0,194942518429224
0,195473161810521
0,193207865986416
0,196918736049878
0,191123155329115
0,194947576044011
0,192064474278142
0,192904349828181
0,194424862655039
0,19662410764335
0,1906735945964
0,191944221382216
0,19384932570524
0,192483487334778
0,188832316405208
0,191557511953968
0,188671138482215
0,190272534872537
0,190402189047001
0,192667839811896
0,189896865297257
0,189211616633999
0,184294994945881
0,190817955865515
0,187365509175739
0,190856317077694
0,185400392312101
0,186754822003307
0,18498410687243
0,187493937664451
0,181696649248158
0,185196169069955
0,185031017756125
0,184552841572259
0,183122232153842
0,183208803962206
0,178486779916963
0,182686157914102
0,179689863994446
0,179933738804321
0,178142773383371
0,180922872389213
0,178872806039798
0,178719306888224
0,176066456479409
0,178017699705911
0,175221113560729
0,178037295737227
0,175403280670017
0,178701966885673
0,175646372648595
0,177647270915809
0,173039935888267
0,172473740727758
0,171006841972074
0,174037209166347
0,170347465367401
0,172065913136986
0,169558161145815
0,174217012956717
0,170219182445719
0,171926067247408
0,168548252798969
0,169839315690371
0,166878238977142
0,170023430501987
0,164129800695207
0,167354038673125
0,164614105860314
0,165289550843675
0,164123076246628
0,164905427443336
0,163226998383444
0,165436162384575
0,161591185744757
0,164389961461038
0,161866708738158
0,164791669334752
0,162670591972727
0,162429544537818
0,158825515014087
0,162126813269828
0,159969032197579
0,16175385743767
0,160070771143277
0,160325874875647
0,155492328674802
0,158418718584258
0,155306953856706
0,157528531216673
0,153312531708148
0,157915117888532
0,153512853468132
0,15387008548086
0,15230428848481
0,153986499537203
0,150349892413455
0,151985713963862
0,150332634881217
0,153802864148425
0,1515061309695
0,152184385953855
0,149637474250046
0,1524475154352
0,147196507158368
0,150452940180297
0,148891776494074
0,149353008471327
0,146825940255225
0,148999096646596
0,14681633038361
0,147662071040324
0,144820218501689
0,145878195624231
0,14582071581735
0,147045840986801
0,144112832666721
0,144671261046199
0,138764825062612
0,146370386700045
0,142713861741725
0,140761162083785
0,143272420918545
0,143566488530839
0,138466861817526
0,142126232719382
0,140131262565029
0,142366940430377
0,138772089167603
0,141324858028273
0,137278825644179
0,140182225276283
0,140629435070955
0,13765305233802
0,13583362362545
0,141418825602925
0,13661031250088
0,141566243255959
0,137903105575518
0,14031931531439
0,136571549457899
0,139676281426484
0,136838312988319
0,13788415160364
0,131326523519767
0,139176441885419
0,13814953747747
0,137268600519297
0,136946641453664
0,138845428521759
0,132586962721028
0,134992932401917
0,134122356982546
0,137967133437931
0,132902847457392
0,138447301197534
0,135298729241586
0,135101128208582
0,132108936420612
0,137580178788616
0,130376215506752
0,13415261829925
0,132380334121966
0,13302297750924
0,125492055662759
0,132268103634307
0,129050942562534
0,135732553462842
0,127980329148592
0,131907426009743
0,126468822217184
0,130211370871724
0,124933607172481
0,128719201268421
0,119916134844402
0,135078411487855
0,12486786117206
0,138505681956105
0,124652710886778
0,13185142136221
0,124409648892204
0,12967594767748
0,12422944172825
0,132377374784348
0,124785167721348
0,135106289533037
0,126021768914944
0,134256847075036
0,120804079893405
0,137484129268889
0,116993295415819
0,139049907300998
0,117290953389286
0,135139549378947
0,113428438511829
0,135986283051154
0,10902693321498
0,135703481217116
0,102945890015723
0,14252742864757
0,112007091010869
0,149758751746883
0,10837341425216
0,143024871244761
0,0961570504105096
0,15156819266747
0,102754693739336
0,150366104762749
0,0902873461826518
0,147570517341063
0,0996649027617044
0,151667329620816
0,092651055852857
0,145777390676613
0,10876846983819
0,13956845367638
0,108898571075725
0,126051576441674
0,126680713012274
0,120181461375335
0,13101359376707
0,117131723050866
0,134370147234405
0,110347486636903
0,133724624373873
0,113833238401648
0,133163130763618
0,117648988825075
0,124760647638048
0,12314401497286
0,122958079470722
0,123160750857961
0,121235184455727
0,123078997012565
0,120488206846287
0,122777677335262
0,123899245744622
0,117793481949483
0,121632942653522
0,12129091125367
0,12365499761307
0,121620026003134
0,122922040847339
0,121238072506085
0,121510471853997
0,122511908666215
0,122730876408325
0,123280673049574
0,122920142665255
0,121062899799333
0,122545655805367
0,123078270410677
0,122395079801892
0,123542637053919
0,12172200719497
0,120139812846531
0,122649644265044
0,119810112664205
0,122975820697656
0,121206413993409
0,121302075361007
0,123505079052778
0,121132981678284
0,120631376333804
0,120497881711067
0,123875176395324
0,124311093536274
0,119926702901618
0,120482491155906
0,122561924840795
0,123354687661244
0,12048555452459
0,124280395621095
0,122022779038603
0,124000204401483
0,121187113052077
0,123550839988282
0,12321025280505
0,12350235057314
0,12127164779173
0,121219586172263
0,121070435975892
0,122983997931897
0,121307584045489
0,123061378144929
0,121328351077258
0,122610934115479
0,1222798043762
0,123649621092773
0,122129774379535
0,124839602525616
0,121231726456434
0,121857481116503
0,122580907030023
0,122131968554617
0,12237714751065
0,124006582969468
0,122400576350601
0,122973554897995
0,121507472929356
0,126558538906099
0,12110560257053
0,12236301919812
0,125428432821728
0,120678852185259
0,121724510776258
0,123500899400703
0,121815656091099
0,124843669601176
0,124405311552182
0,12189633371614
0,125156051339111
0,126193434665795
0,124055601221985
0,124230679871424
0,126488953666613
0,123711290699947
0,123983692987078
0,122823057267
0,124607000113549
0,125062621143925
0,124681685899934
0,12504811976697
0,126341756305708
0,126374150190464
0,123794240245441
0,124255995165154
0,124937374351963
0,125763466331374
0,126389266366933
0,125975573510866
0,126003075775877
0,12605700385965
0,125748735054944
0,12692181016203
0,127000535041046
0,127850482247939
0,12920876060599
0,127571632362462
0,126203089218063
0,127270237709431
0,127242296084511
0,126800272923327
0,127315819034463
0,124988247560346
0,125748481565876
0,125710360240074
0,127756275965766
0,128228613621222
0,127864456615584
0,129519655891739
0,127836577078761
0,127690653512359
0,129504327206072
0,128694234422975
0,12819320677023
0,128307025509552
0,12900237203684
0,13054929785288
0,127888098296629
0,126770823176834
0,129950960343681
0,130376502230187
0,131520000580778
0,129166785971147
0,129078207561449
0,128391803850782
0,129251558086617
0,1292664065709
0,12883789311796
0,130513032900634
0,133076384336426
0,131334604501344
0,130480842029064
0,133337358388757
0,131746349406991
0,129735368273186
0,131769976389844
0,132108557728806
0,132773667894948
0,130502374455108
0,131865172599869
0,133353341211526
0,131901622689801
0,134057895181763
0,133775208338321
0,129965167832608
0,13276574128771
0,135478624423647
0,134138006688876
0,134942935827345
0,133356628857742
0,134778123940863
0,134177176770583
0,133651917440707
0,133169909510398
0,13518108768302
0,133243901801168
0,132797840510142
0,135295845668161
0,132690150825041
0,133271491849949
0,131682271494773
0,132104565980752
0,133791942054197
0,131854537175313
0,131692970087253
0,131636779434149
0,131536497235763
0,133146498528378
0,133092849019458
0,130813684317343
0,131465752980712
0,129531095075626
0,13532617695917
0,131089824295291
0,127221078013802
0,127510955422841
0,129456968069886
0,129395385761314
0,131195362737119
0,129466897850437
0,127813122261377
0,130323838956173
0,130947957874446
0,132194512425111
0,130226173432079
0,128273033495246
0,127222853043081
0,128904174023337
0,127660320369388
0,126703660881778
0,126440381983452
0,12901498368391
0,128826276100189
0,130376386630916
0,130977321414186
0,128490971791537
0,128061591560128
0,127672427779954
0,127788840177421
0,125190515280507
0,124133565223612
0,126893982462823
0,128785352267374
0,127413738349983
0,127003539703253
0,12659914137008
0,124999648278992
0,127895575608613
0,126477138636771
0,12531805849014
0,12622602389155
0,127594188792212
0,124869540733778
0,124857051163021
0,125924509687239
0,126717068854247
0,123018438015827
0,122396923301432
0,125439553773298
0,12416110928657
0,124540370068047
0,122675672299534
0,124874431593737
0,123785896015069
0,122981371828277
0,125182075592488
0,12294641811718
0,125180174852053
0,124491175931709
0,122435602359765
0,125420501608548
0,123062904702579
0,1233088532334
0,12287770835951
0,121794842429884
0,121095148342105
0,123471393186005
0,122671716632504
0,124453272476261
0,123604736013822
0,122027291076249
0,121290566874094
0,123339607103049
0,122850151666778
0,122942789851649
0,12212138119459
0,123278250769273
0,122211016854486
0,118889693651116
0,121389568479471
0,119568539942072
0,121627249765477
0,11970752887185
0,122971624687467
0,121779388277101
0,122106659224551
0,120338026344733
0,118921461047017
0,119446167237652
0,119039636597297
0,120559614919803
0,11934263533299
0,119566225087401
0,12056559081996
0,118059945765933
0,118150712606766
0,117395535301357
0,119688464347991
0,117981119204676
0,116806156039735
0,118920377338321
0,115854383841482
0,119152783854344
0,117272119584884
0,116802010269167
0,116980818464497
0,117583373123485
0,116055958503141
0,117774134818346
0,115822679244143
0,116258616534454
0,11141413537304
0,113579048881194
0,113203480973344
0,112875476323134
0,115440805124479
0,111725701253683
0,111847467396959
0,114359928424855
0,111681235715061
0,113902670794175
0,110208060209796
0,111624028542612
0,108392009080728
0,113409310450202
0,110715547527965
0,114363203850973
0,108609045914036
0,111588618184238
0,107613474466429
0,106887152150461
0,105395893983381
0,10736841580514
0,108345062099472
0,105954039153865
0,106445486236651
0,10602843586421
0,105184702243621
0,105483881026949
0,104329405861227
0,105920230975845
0,104284657733397
0,10295431373093
0,100954506339576
0,105445208803679
0,102543915718424
0,103637351632864
0,102600698506228
0,102409973197356
0,10255775812861
0,102451494896987
0,101870107171315
0,0997502680956993
0,10947076499302
0,101066143916114
0,0998060152070939
0,0986382835359597
0,104357758861798
0,0977359086555771
0,103066649152462
0,0987372048849475
0,100880353152334
0,0984316541979706
0,0992457053581274
0,0980784884562429
0,0996353683524647
0,0996762898543038
0,100016550630204
0,0983550806794554
0,097612037526898
0,0973824122714621
0,0962314051184058
0,0948338823880762
0,0962575118382775
0,0976057583271113
0,0990369665939338
0,0986795308247661
0,0996654751627673
0,0948441602358581
0,10065632151172
0,0947754393947899
0,0975405628204046
0,0963493253072827
0,0968433336891616
0,0980608997757049
0,0953802687501247
0,0956351802210778
0,0963294489494739
0,0942309209279695
0,0933568184439841
0,0948233709235527
0,0920447869369095
0,0944871056787152
0,0917313062172736
0,0922360259195555
0,0948805760837078
0,0939820108277953
0,0908763685331424
0,0917476767673608
0,091953368844463
0,0906038040156455
0,0892446084370403
0,0915743211433094
0,0897443058196301
0,0941592814303661
0,0881908995204528
0,10326944501164
0,0868106300336
0,0964469641603074
0,0866508749864241
0,0920192006203701
0,0882578460810164
0,0919797844293183
0,0866353779091987
0,0885103673022385
0,0869870593586853
0,0926965861380225
0,0859614454005782
0,0881471307097371
0,0867575230981754
0,0901864774140472
0,0868834006012752
0,0912470520137788
0,0881715619779788
0,0908593524016659
0,0869493835199535
0,0882980697253213
0,0945135069154722
0,0936290702347854
0,0834051100428446
0,090637504008376
0,0811707666521135
0,0973774289965563
0,0894066413789456
0,0870373085205769
0,0887440502933335
0,0861659466349112
0,0897442825048737
0,0849046541168139
0,0895079315535571
0,083267414338583
0,0948080902754425
0,0820608313144906
0,0932353194001496
0,0827980613574703
0,0854996104400363
0,0851096530473826
0,085300479386406
0,0830565253604266
0,0829990082605834
0,0839956750724156
0,0854136096236653
0,0871752460362128
0,0845131202148728
0,0836281570867543
0,0854598568632278
0,0823964128064706
0,0912960544168268
0,0806526181770051
0,08789103318008
0,0821508783606931
0,0866757012917201
0,0812282629831897
0,0974377106596132
0,0762937392593868
0,0894902285333782
0,0814524113875779
0,0841382754249965
0,083924422008297
0,0860084746716617
0,0843972967583804
0,0840970972875223
0,0831383022028949
0,0843503302529498
0,0831513037970406
0,0821087465014535
0,083005943242318
0,0840251074866009
0,0834596542488095
0,0822090500066457
0,0854857042285489
0,0800078692348589
0,0844393083042246
0,0812227130373561
0,087658158962277
0,0921410218546766
0,0841879123371745
0,0956976806907149
0,0824916376790846
0,0866273234663599
0,0791779871877903
0,0870214478988416
0,0785386112385066
0,0863464995472196
0,0797464406496656
0,0854507305347404
0,0785214852273169
0,0868559178245413
0,0781740021057904
0,0846691275162543
0,0800759377708276
0,0878874997661275
0,0808630383248181
0,0863213531138826
0,0802719516060037
0,0871361240359945
0,0792807437630802
0,086591216801412
0,0893092740145614
0,087108943934715
0,0799296958200202
0,0907278666638488
0,107701253991802
0,0705335050833901
0,0956356262146399
0,0758143279590904
0,0873790797586152
0,0787790517943871
0,0849996120447088
0,0865853314952729
0,0847312098794209
0,0841851445661651
0,0871184464164471
0,0806145650477668
0,084979787005272
0,0823154570150369
0,087400472254173
0,09889683050502
0,0917377513093335
0,0850726243763893
0,086136757618722
0,0791625806678601
0,106237440152463
0,0777607149631529
0,0883422010976036
0,0842650294190785
0,0839076337262377
0,0889583086944615
0,0838039484519342
0,0882970458401532
0,0906056904792513
0,090974245820572
0,0827374565358367
0,0923106804534789
0,0828607302219072
0,0901972979092021
0,0890798151701646
0,0876256373868051
0,0989000886721157
0,0872342048847585
0,0887523983409401
0,0954602177289183
0,0870017576433595
0,092498073150141
0,0871012290142861
0,0888873427913797
0,0888774316693434
0,100213743993042
0,0895025930625471
0,0994441123551421
0,0981626337014949
0,088434853914557
0,0913463281127089
0,0968111636263664
0,0971111017263967
0,0989462516273955
0,0870923780518841
0,128881423689544
0,0755949104945194
0,119022332397724
0,0810382469886035
0,102237892735735
0,0892469084432148
0,101943472998172
0,0858910349972518
0,106997568687342
0,101500585571436
0,0917477217034703
0,102007969275572
0,0926021900300459
0,114361185977096
0,0899945658079686
0,105173592258303
0,0961155574277547
0,100322564816262
0,0996581819162591
0,11777758629796
0,088437402125382
0,121586567300162
0,101086204202296
0,113974351293695
0,113682127482046
0,0901811033803568
0,118302916187492
0,102596047620066
0,100540373694334
0,1075770134606
0,100346842139402
0,11375620461799
0,095619614984949
0,127286984199951
0,107121374212177
0,1059717431125
0,115828910017281
0,105687671578821
0,118353911952685
0,122951228810801
0,109670492786959
0,117807509962505
0,117406987935848
0,11536860723984
0,12546750175517
0,160126788134399
0,102658160120675
0,160771931214264
0,109901701288439
0,15032411094266
0,121225585899109
0,136952143665429
0,122180266909312
0,154669729190816
0,127462852325803
0,138674104336074
0,126997734599319
0,174179647646944
0,115948946777917
0,148560823331757
0,133935030286346
0,13795859892301
0,14994276722894
0,173508909250064
0,13876312549882
0,152475085258785
0,134983945997679
0,157823909472432
0,152228791551739
0,143862794121764
0,15049064995085
0,145562414148553
0,153576819494417
0,148599398714526
0,156766332046167
0,161068340817906
0,15110516474437
0,167187939364236
0,152794652635253
0,175870766915583
0,171756224136927
0,208816082970433
0,156615321883598
0,179998057066985
0,18099250366354
0,173086543478508
0,183602537394366
0,173663302583856
0,179375858735352
0,184073838180952
0,181853600052723
0,187361715474382
0,186955195151142
0,209646615321922
0,183294969880231
0,227454954426022
0,187425568253627
0,214083788369903
0,200651636938365
0,250216763770322
0,236491201655413
0,212654202241318
0,243690136093876
0,231147245433745
0,28111097899028
0,249564973196344
0,255398614110197
0,266058157166159
0,270683331479292
0,278219313542074
0,296517927515753
0,289129415284412
0,310758885225776
0,319500207403726
0,314522291224702
0,337270760704039
0,363261295571784
0,355275206693663
0,37999099627775
0,362911421677506
0,374503491575713
0,400334079911486
0,389960703797677
0,398992699636325
0,416122828499974
0,411487322876341
0,467677126062008
0,447727302583094
0,458839448092624
0,453426475533828
0,479246843484643
0,482860269160777
0,480275508753796
0,53966027612959
0,497468830067041
0,525450270930501
0,515718359868765
0,557901152819389
0,53735272597948
0,57539658672754
0,58686551255047
0,583656507271259
0,590004543949093
0,603572559466985
0,610452171185842
0,61555842494331
0,628406789572386
0,632075415742419
0,637828725286008
0,689352775354489
0,618570143584511
1,11352503283615
0,644040204924092
0,666977644067559
0,646114712673897
0,69017808000318
0,697028739143756
0,669845002309288
0,730742142142771
0,673219963847302
0,678251192079872
0,680379125905985
0,691664400857937
0,685057728152821
0,688925991150477
0,687074669829765
0,680606108636453
0,724408510529437
0,684294659745139
0,813135595407416
0,679607725237461
0,692054176384634
0,672384659270331
0,682021674241835
0,677399040533512
0,698233230968006
0,665615603754401
0,700664216608861
0,663294245703291
0,680590895877072
0,674868482235813
0,655958062607813
0,672675282717085
0,651237410681677
0,632589202767849
0,617176323894705
0,621059000982723
0,61490772132098
0,605579676944512
0,663266307421503
0,613404491347223
0,589267937296797
0,594515432050227
0,581634844562723
0,560566595576068
0,572199627300456
0,559058893563441
0,568955821470119
0,553124255766213
0,550512578454729
0,560378709274496
0,544900909423016
0,541349724359624
0,540186845077597
0,541093567101601
0,538749697749487
0,53947008732924
0,531527535881517
0,539693772498913
0,530839161490401
0,533638097038603
0,534953360633558
0,534727417355295
0,529680412157008
0,536795125704183
0,529810335937286
0,539619219800798
0,535819406025134
0,532595238662617
0,53158044759134
0,536268934020462
0,533919301087272
0,540440168315621
0,534940385487906
0,537487569253866
0,534553615776391
0,539408980963398
0,533604939857404
0,535722666628276
0,530654546253549
0,531758379432161
0,52864383650931
0,540682040908779
0,622875952016921
0,513780675708689
0,536829475426316
0,511636188138974
0,528278278935254
0,51523975407115
0,523428165830825
0,550220090961721
0,523984907862675
0,5152065153001
0,509616982464215
0,509456807249719
0,541225563193328
0,51142428176889
0,513838601600447
0,503688578118269
0,504376384837621
0,573951361375386
0,507684181262654
0,643119351677301
0,554539870466526
0,510150354983885
0,491254090204483
0,538582389567271
0,507947319474222
0,504048347981383
0,498827256694827
0,483419217634781
0,536549159703342
0,489808268544249
0,493949926034938
0,490701784815513
0,491354516831501
0,519241066131912
0,501320773632298
0,489539342815846
0,507903551059419
0,498513713653812
0,488826617851074
0,502846757505517
0,484456490099006
0,470396121119309
0,456971370486522
0,46529337471431
0,454770776168702
0,463184670995899
0,499351638353131
0,439635648047279
0,462277135025223
0,42978112604374
0,445701667729877
0,434493743785836
0,452005086258479
0,415335547756749
0,444299816784064
0,444140431389339
0,405984658891545
0,441368011968437
0,415341924113249
0,463081637839053
0,405506329263649
0,413815695623119
0,394428085914146
0,439139016904418
0,39736462770325
0,399343065567884
0,405725996140924
0,375540283459219
0,395850026784914
0,380452679394413
0,366824243834553
0,40068494884834
0,369967602454896
0,392285685645652
0,382070769834159
0,392005487436262
0,371970939764762
0,351632809308175
0,34996358797585
0,346513225953512
0,337792407564013
0,348273472146256
0,338873534339009
0,390854371633244
0,324358247190974
0,353553954727381
0,36647031287455
0,334429975038847
0,34240685180128
0,344881527790996
0,339543549431377
0,343171517097235
0,353690395615551
0,371612976870399
0,339388385667667
0,373551291497263
0,360074404294484
0,356132314011479
0,35767214350843
0,36090567835763
0,36741149851866
0,372333243939997
0,386084944167382
0,37704598534097
0,385352394629181
0,391883960244388
0,387985312541644
0,425057268197775
0,413349393688521
0,412641744943319
0,45705584319539
0,426092004432403
0,481573836024975
0,432989492480882
0,463278307719278
0,459886995107141
0,473461950737793
0,477937707029918
0,478689176726021
0,505171531593249
0,505488813800227
0,489007316295961
0,511339728427124
0,503656095170005
0,519806001734405
0,507734530216442
0,562578351608496
0,521773242646033
0,620745990425296
0,53118179694257
0,561836223932993
0,53597094590432
0,550411512959232
0,556605346022615
0,545429260451451
0,554429555938025
0,55172884963539
0,554158375037861
0,579059655417489
0,551717424044947
0,563858941908645
0,560776954254248
0,574529543059518
0,566360279003597
0,576637401298002
0,571966896279539
0,586760209866997
0,586720764721058
0,586480851240627
0,595444751037984
0,653114828245773
0,5853346437302
0,612035529688937
0,590293953538483
0,616218653734823
0,604070440129884
0,618356326847096
0,632048101822067
0,624772208591506
0,628497297636944
0,637914878278104
0,628075325266754
0,646319161543389
0,643169840306028
0,666930222890059
0,636920713502175
0,668459357408615
0,633290659498691
0,715217808975757
0,660901145162957
0,67602328560617
0,678407262174863
0,667012452929389
0,665898359418012
0,677544363290757
0,676568926796187
0,687247554211765
0,679415226938466
0,67953384243066
0,687838559452542
0,691283426817847
0,689534085840805
0,68895850296466
0,684670164442871
0,704841446192025
0,689322421834144
0,698528580518927
0,687816204541086
0,698833817428211
0,67615321930714
0,709931746289072
0,691826259864798
0,689143534594717
0,685415375083628
0,704066295479005
0,688155151946753
0,683882626359243
0,68107679582535
0,686877978435615
0,685808196163322
0,703289957981354
0,687823012143842
0,708891230950349
0,704597684291377
0,691731786979731
0,697919703494557
0,706614324748551
0,703611302727963
0,709162987137617
0,71241160089882
0,711790255166018
0,716953270932222
0,720141464976664
0,730738914783629
0,7211638625514
0,723161752073165
0,730901854205276
0,736090808638062
0,723869927460032
0,713545709637127
0,729315572904025
0,711931533603647
0,720349978309875
0,719251862327217
0,703058533393248
0,700667138832272
0,701284155785383
0,699042116188625
0,691747775919483
0,716100943437443
0,685508977651705
0,694449011054219
0,668342141783789
0,664745236230563
0,66365026563223
0,665433645577619
0,661397238385787
0,656123188854722
0,656521963533153
0,646200393305723
0,648428279728057
0,64432342505142
0,653034048080065
0,648649801909809
0,636092555148884
0,635373244990051
0,635304179869593
0,638545483421796
0,642027563233308
0,640379554477321
0,631525504079235
0,635021302076496
0,630754087961609
0,647286692765999
0,63047821624186
0,641862244424671
0,631766410373867
0,640091141827739
0,632529312059696
0,631459653421373
0,63377541300888
0,630274523272556
0,634202517597109
0,633099391586417
0,636026952833722
0,633666999119684
0,632255558217938
0,625029345305183
0,634070836494149
0,629130220075982
0,633207422922462
0,632329333166037
0,629618538046494
0,624235580209874
0,6306660246138
0,617385274253584
0,632358381876552
0,627119908110417
0,634085389145337
0,628927870768333
0,62796450725654
0,629052299725281
0,63143724783679
0,627467662144927
0,628774408726326
0,63065280063055
0,629995895434075
0,627962237241578
0,62664998700734
0,619132633994174
0,620783658149409
0,620777647515128
0,623770124938941
0,612593969470716
0,608770098036497
0,606154929301695
0,6099827568017
0,60048186608651
0,601815869463674
0,591883172155482
0,589775014515037
0,590946120735455
0,581555688002562
0,578536829849041
0,576015736487218
0,573285752049946
0,57224289928214
0,567272526336884
0,560510132304614
0,558780561113841
0,563630469861259
0,561047201258839
0,558010600072391
0,554298834215728
0,549612794617509
0,556616327092359
0,559074539934946
0,552239070382375
0,554062215833878
0,549724655994857
0,551165764538731
0,549067717636045
0,552202736618964
0,556553883918895
0,554312509915389
0,560006880506477
0,560767798191522
0,555736410082922
0,559916337048264
0,562874531812521
0,561750262382244
0,564799066447235
0,567080339655807
0,575555057110469
0,574683994161153
0,573101583849644
0,580560378277066
0,583327497788359
0,576851169572565
0,578743466447208
0,582953428464953
0,583889219369099
0,582061728956672
0,578413125042604
0,582764666822584
0,581992770617037
0,582899160693232
0,579096925902119
0,573422857193871
0,576893492732534
0,5799517421436
0,572639745074212
0,57839682916553
0,569672127673859
0,568940542925071
0,570462303560791
0,568607590649278
0,566982765947136
0,563500504830307
0,563788285504584
0,562039710399035
0,556528431307795
0,557277312152694
0,554905593955641
0,552897134779475
0,553616042236781
0,547371061187178
0,548182956955238
0,545883606763235
0,542580410992289
0,5426634390595
0,537758608709693
0,534993469206278
0,533878811690681
0,536533971479467
0,534246856799069
0,532123839294775
0,530079330466022
0,530751612989171
0,528035469756273
0,52473114455973
0,517726241139396
0,521490548639857
0,516754143172113
0,515152199983842
0,512021989590439
0,508126462637134
0,507439357889301
0,500976006434712
0,497999322603616
0,492578368676893
0,488494495163935
0,485234262143431
0,479367220265795
0,474376048961909
0,472533260468207
0,472465923820423
0,467536049404467
0,467845527659366
0,469639437299753
0,466650645987203
0,466183461624201
0,465955632472746
0,464539606277539
0,45992572757964
0,459162905713146
0,45728501250734
0,45451414454038
0,449981660008737
0,446991021133939
0,443792118151513
0,434928450847171
0,429504000575555
0,42611771113044
0,418617960200626
0,414066358860798
0,4085771025764
0,404135250536055
0,405880677264165
0,404007252186982
0,405048426011575
0,40539884107017
0,409468842047285
0,4128488431271
0,422884710272009
0,429330432333182
0,437276690158129
0,448142095617423
0,461117347236665
0,475554180198754
0,48870432377171
0,504780673685361
0,52283574018518
0,542971176672872
0,556798092501108
0,575392313016362
0,597230965219201
0,612355310729915
0,626599789334682
0,645554686024607
0,658210021334667
0,673963621769739
0,691914929549584
0,706708773873922
0,725119545328511
0,744674626287624
0,754735489373393
0,762766020860556
0,77549183262086
0,786767358280149
0,796194014140477
0,813323534411722
0,826418513695741
0,828813905052337
0,835083114219092
0,845381870307954
0,844992503607118
0,846630436972376
0,859234445935644
0,856826749698487
0,859512676101427
0,860797292677888
0,861556404140386
0,867193272006697
0,866297876105726
0,862684305879399
0,868051108360629
0,86320264233615
0,870693752377458
0,871770909761805
0,867976867587395
0,878729508884413
0,881969357644913
0,88224642980868
0,892498690359238
0,896686206933287
0,901449127234003
0,907303275579343
0,909758966093755
0,925846235342966
0,931015483205464
0,936546933654605
0,953987240620371
0,959149943477902
0,978131843101264
0,985463919225794
1,00403554943902
1,01985717310853
1,02799379033245
1,04621065729764
1,04139083867078
1,05861758668946
1,06410589817259
1,07057753809018
1,07463181270886
1,08262449984794
1,09288564233954
1,0819314960418
1,07905860738864
1,07113960433135
1,07927087966758
1,05931360580284
1,0648800345512
1,05527986389584
1,05057575674414
1,07109607481895
1,06408624335653
1,06745592192663
1,06392292490178
1,07775208886184
1,11153772958427
1,1085745758832
1,13579427063055
1,16029909407745
1,16509201944504
1,158573549294
1,18679085369858
1,22394136793243
1,22689409666435
1,23767799108375
1,27093413897674
1,26846511533561
1,26212131833952
1,2965412825851
1,31162051927041
1,35231765335069
1,37351494872788
1,3910416023662
1,37679875540682
1,41250902833602
1,42918292484122
1,48276438158682
1,47635151951817
1,51608601442161
1,5381778199846
1,53773887248961
1,55990727570027
1,61495164996963
1,61890796794731
1,68259504860131
1,66205984270025
1,66853668026863
1,65978934198189
1,69333942795374
1,71638154470546
1,66889780485342
1,69123122535663
1,73138304381851
1,7026171581855
1,69610301734487
1,71128989539692
1,67935051087395
1,64643480965364
1,68965145784819
1,75662232385733
1,712797748814
1,73045191499379
1,75909674632809
1,72245602185272
1,70926568524348
1,71770527877768
1,77799313861586
1,71865828808615
1,7689071439741
1,76697213899655
1,82493611325263
1,75409747255299
1,77157784451455
1,86391615151011
1,89270707082059
1,8827478739977
1,84890252462568
1,85608859448645
1,86062357252505
1,85273823379024
2,02130943846683
2,03902606571426
2,06073574813466
1,91912353742738
1,92391502965977
1,93001996565343
1,99228970571858
2,12554859598181
1,95645164718529
2,03130622361048
2,18484349473818
2,13229084125017
2,08832085277813
2,08825582901979
2,18839653270545
1,96487055892085
2,07186346408437
2,20426518567338
2,06102185281295
2,22121969998058
2,27410390279456
2,13864254588227
2,23530813837432
2,02217216219714
2,22210337873139
2,08824124605261
1,97014621876156
2,09783755257505
2,22943154067167
2,15957645323654
1,97354450633633
1,96350888587275
1,97614434618859
1,9593007907679
1,85532084331205
1,90211436560184
1,92604740452446
1,79665215515367
1,78060368071478
1,71282253094425
1,75006924581114
1,65550360503319
1,6482554892366
1,64670372238867
1,64531091771381
1,64404157433861
1,58150754222901
1,54213413023104
1,60371803770617
1,53833425584444
1,59409978282521
1,5380988453635
1,58714316609867
1,5482049893173
1,48350644624965
1,48683537768041
1,51088345800447
1,4454253547634
1,49166452539114
1,44712583026865
1,42536701155749
1,36874590477353
1,36046727048198
1,3234476681219
1,31961880063447
1,26292848798058
1,21986506540462
1,1975926389247
1,16172094934819
1,10950693256443
1,08324340339401
1,05209825628069
0,999855270102783
0,964548899822795
0,941992967284723
0,898631067057596
0,871394826921729
0,849584770271502
0,803072600135888
0,782352631596411
0,76365073895844
0,735866251391027
0,724466118004258
0,705366792833479
0,684767223384198
0,672974161931885
0,66250524040372
0,652064484669495
0,644396149983885
0,635215756986777
0,638643421971083
0,632104616276803
0,629157652232547
0,623420299782616
0,622895218036821
0,62192478569332
0,635653625293655
0,632303084285379
0,624279648042492
0,630404129897548
0,629873452119472
0,626648224995538
0,626190877941671
0,617013302939398
0,620137161994476
0,624215339292597
0,613377379613968
0,61068503460396
0,606324547410696
0,597572150165771
0,605557475861466
0,591533871284093
0,585283540483184
0,588019724680235
0,583817086138805
0,579621863028675
0,585259529865703
0,584478740246296
0,578399868684695
0,585516997781386
0,593203221824027
0,592869781597374
0,594040983199748
0,594176155595249
0,598241907031944
0,594670609600099
0,605851150344012
0,603708816731632
0,607236009072631
0,61144991103267
0,606503185598194
0,612005233539512
0,623700075326376
0,624082455721069
0,631088645476176
0,620270301888682
0,613450152736445
0,61710518244617
0,621733562780907
0,619608902709699
0,629966644184682
0,624564214757801
0,618256887552471
0,626965419891026
0,641151851064591
0,645243383285885
0,653216494245665
0,656291624195375
0,66766786038702
0,669020002389659
0,685374336885816
0,706378766191005
0,720701186689941
0,731646461416577
0,734705014688177
0,765753408433424
0,783402921997178
0,786179688923792
0,771786847213535
0,784088589663244
0,793028114090331
0,788558410420188
0,781425358667848
0,787447529657054
0,782789310385934
0,749185207533856
0,749932840542121
0,747637179164764
0,73503797856063
0,741245198591188
0,742962173191354
0,71815675546388
0,720389544732763
0,731451385042491
0,737410389239963
0,735037816855632
0,754754492463631
0,745550728338609
0,732696808082855
0,732765674055902
0,731727796350645
0,728663279558671
0,731027544757392
0,724642781855852
0,704631154887186
0,686520582784723
0,694682161639257
0,701525154279311
0,695006336878095
0,704182729669203
0,694493122891157
0,677170867666688
0,67812374403404
0,675056223309108
0,671460653958541
0,672630679201531
0,684487158060274
0,679746380865958
0,665403326863367
0,655902916483053
0,677237627165366
0,680250882821126
0,650540917316092
0,658562741665542
0,671149221604489
0,641129106010254
0,642592419085112
0,644083255635533
0,644710971387486
0,639804556928352
0,641679131962455
0,653477076137175
0,640307410948354
0,637356892218413
0,64342968047531
0,622931383232095
0,634070808465195
0,633013755051285
0,634780268578043
0,631284119753787
0,627384702084884
0,625507487489488
0,634677394725457
0,648551657886322
0,621464602724494
0,614657560311813
0,606546659902819
0,611630213503586
0,630491388278736
0,614443277505767
0,629926462066134
0,634114210695719
0,628186516437213
0,629072350066836
0,631789156083186
0,625160389851841
0,619063094084059
0,61869528679843
0,623033149422314
0,634370788609754
0,634453064244183
0,63218273101931
0,653272527169608
0,6535745748157
0,655086125581919
0,650343502268385
0,63614302378643
0,665990111602167
0,676760061464774
0,643809917270929
0,644647479131185
0,680168242768662
0,686898440115978
0,687658537241934
0,718537871559024
0,700627863302003
0,702152370711208
0,715772022891294
0,704571114554691
0,707960835478508
0,765942872605881
0,791885161097092
0,765210360863257
0,799029432073129
0,812298427562055
0,819276001481397
0,848655631093189
0,860081274427492
0,856673874271084
0,869671201169253
0,905689371736895
0,898117221162562
0,934705527821891
1,00855341518449
1,01347878862309
0,983913729397655
1,03180347668314
0,961629831191237
0,956909750848553
1,05302896536899
0,980047664119878
0,967113918131002
0,967873222189742
1,01189127665897
1,04991641007993
0,981111739475501
1,01662520924626
0,967838267750001
0,921007924407019
0,978120547100597
0,984571335085279
0,952655568017146
0,951987840660539
1,03120170120667
1,02167156765239
0,945372242240797
0,897346260310272
0,940064470518149
0,980019920626056
0,940463679842695
0,915887024688099
0,952479666511426
0,987899277514426
0,932673925069589
0,86904482063471
0,88423080151886
0,913804611316407
0,910032252710603
0,908261690100141
0,901911451586934
0,862479340121428
0,892613559728478
0,868482319180939
0,899512768717939
0,917270439002957
0,970158643117133
0,933610489867502
0,858116849856472
0,919604731731776
0,989112522812716
0,952119977645772
0,953270036665534
1,00199914059962
1,02884103044956
0,956322515053748
0,926030822544463
0,941246390066993
0,968464683868799
0,911307339841541
0,882812923674924
0,926618139335762
0,93369788414308
0,981103782259544
1,04276412072134
0,908682763388666
0,962282911769527
0,959026382039351
0,974156951600724
0,983509004247443
0,94706664172738
0,989786331570957
1,03083322920821
0,92739046243716
0,917330561972797
1,01457099819623
0,989564104102648
0,911481073361402
1,20687348772893
1,08784256997204
1,04728079481361
1,12490180995446
1,05987383749952
1,00214517400899
1,39300314461599
1,45610380695627
1,36283980283904
1,38920888733319
1,15960643535601
1,18704002334838
1,20843995787326
1,04688311695876
1,24893924629766
1,25048996270237
1,0819182217204
1,20226169933565
1,10198081376207
1,09586396775761
1,28803305311542
1,12581755739809
1,08581106688498
1,05384147467814
1,16952914541136
1,24927087303441
1,16607263499171
1,12406158773348
1,2661893917142
1,06800968007268
1,92567263602445
1,28715384422914
1,24675800483491
0,875995635983715
1,15846878171202
1,48596468305081
1,27697188316335
0,893224096650525
1,0125763455578
1,39950591030652
1,26507637460981
0,977463259776644
2,00015405048301
1,09748490524006
1,43032982387394
1,26795351536502
1,15090524560682
0,88665543659082
1,10353214152024
1,01907746927459
1,47717569304543
1,75437872007374
1,11456620576346
0,611202856249436
1,40621368160758
5
5
1,93390700004571
1,5180879371693
0,870004877674024
5
5
1,82835649963109
5
1,45670872319315
1,62558310295683
0,882287652144689
1,41365872890743
5
5
1,1250256809841
5
1,98880348938024
