3596
4000,36533379555
650,420452594757
1
2
2
0,0542501434377885
0,0680052090952543
0,0598122736114843
0,0568253066182871
0,0509103878670542
0,0690346740463241
0,0492902485187819
0,0642759139191213
0,0552595296158488
0,0635461797778674
0,0515159067769245
0,0604835365158575
0,0457575415696746
0,0546562852577899
0,0531037700132167
0,0626051950711644
0,0485721913524528
0,0661947808367846
0,0533561059454288
0,067123402496233
0,052716619247533
0,0614957191341936
0,044352692102712
0,0631962450242659
0,0507584754285514
0,0595230211289353
0,0568776422245969
0,0683112607473657
0,0477458596602355
0,0684227763802027
0,0594919298258562
0,0695891295529378
0,0525522314473665
0,0647388683166421
0,0574401066325489
0,0634477816524998
0,0481402702418091
0,0605373415679263
0,0535098300349378
0,0684736784913021
0,0581164994017933
0,0582278752609477
0,0458430735964044
0,0618352286318197
0,0459093696595692
0,0661602373579579
0,0487142546660824
0,0529492033945694
0,049731947137716
0,0609715949203019
0,0415092987945917
0,0632689557530215
0,0595622749439014
0,0619933837997651
0,059730097095208
0,0678965606375099
0,0616678535984332
0,0582317668149446
0,0513110215061701
0,0765434060893791
0,0548862553732324
0,0624251300538402
0,043248256984386
0,0559287999187032
0,0532501085349794
0,0549292005394434
0,0510638514828608
0,0609062951734272
0,0500365412919683
0,054613654089492
0,0592585483815701
0,0569318037130489
0,0490694453603265
0,0586379761083342
0,0505225906346495
0,0587411224152671
0,0473620090394825
0,0623300573935743
0,0590043190948808
0,0598835179479261
0,0521740261993842
0,0596084452290338
0,0442855979696752
0,0606735009936371
0,0577260136471676
0,0507266574278912
0,0590330507650675
0,0618590057308372
0,0564423130977941
0,0498562374368354
0,0425828157201899
0,0595490036605231
0,041253593902852
0,0478280029312149
0,0515968391848066
0,0472186437635217
0,0421916289652517
0,0509682587704972
0,0617192424663685
0,0490820537313658
0,0521096706320515
0,0755007585200441
0,0248426684636337
0,0862613502550653
0,0446929973930596
0,0607646202530412
0,0572636039182963
0,0532150870159557
0,0386161781534525
0,0459714887966228
0,0444112479649333
0,0507665184629011
0,051480707189821
0,0496813503099149
0,0662256120213269
0,0694029094941944
0,0449147437015115
0,039693838713154
0,0497246700349605
0,0465507148673604
0,0726103733780684
0,0684715928704229
0,0374617726290629
0,0643041394637778
0,0398326972398983
0,0483407172493065
0,0695528933977312
0,0719759719104496
0,0326376100449565
0,0427399581633103
0,0420380096413711
0,046637902620863
0,0476641264025179
0,0685102246583499
0,0435599698658536
0,058671001459919
0,0421592573982321
0,0724746273564128
0,0556428161457023
0,0466406281858176
0,0332222066644082
0,0391448613531005
0,0575037023310265
0,0744861949674598
0,0500442448374624
0,0461126320656048
0,0460619861621432
0,0490353237080803
0,0463563682670483
0,0429180574817918
0,0372242731588401
0,0604436166858164
0,0480356118437836
0,0464856267579769
0,0766914356940183
0,0758513066630422
0,0495098613082941
0,0837043618529369
-0,00635529501127745
0,056311207137324
0,0212260245239548
0,0440647645514119
0,027135199300894
0,0548658666522622
0,0380533131009312
0,0654496315668739
0,049875736419436
0,0511062237216656
0,0440306167927755
0,0610700737885811
0,050700038054362
0,054797869348854
0,0715816901891809
0,0471619113237762
0,0430830678796425
0,0618838700907852
0,0461647885045437
0,0452404770413577
0,0476004539718199
0,0534969458442556
0,033237874961366
0,0458197377967393
0,0299783668579776
0,0498518753561047
0,0519184153203808
0,0581021192859821
0,0434904035527361
0,0468544953877993
0,0465119386120555
0,0682470543260035
0,0583651341932149
0,0609045457748386
0,0414424428082408
0,0543820587605057
0,0301285769780535
0,0755314189734103
0,0289007324211262
0,0443084771288794
0,0364805196089856
0,0434689040973208
0,0377742175914554
0,0404320220736528
0,0394768806817357
0,0501313548331423
0,0339894589822663
0,0741879310464102
0,0287864287877166
0,0503869630144393
0,0263333919833343
0,0557760190556438
0,0516172659655619
0,0996862728545374
0,0220904401228782
0,0335167171225807
0,0387555071596948
0,0439653130122399
0,0567960636194449
0,0525944979790164
0,044967646256537
0,0457320359592197
0,0358674146636549
0,0425402162022684
0,0354587512217325
0,0570814642556704
0,0396822078719856
0,0435584034233874
0,0425939507648787
0,0489481099095477
0,045062080276812
0,0582973934778015
0,0321726848466088
0,0469725409434795
0,0436662298540917
0,0391782460507221
0,0525635770991774
0,0647423241011138
0,0369946567519767
0,0529482246554123
0,0405179056086196
0,0514384983351306
0,0338545542499728
0,0542435867860773
0,041296916504298
0,0500619089750535
0,0370524468547589
0,0843870257806906
0,035657172927104
0,0611704232294914
0,0336393297385109
0,0695222656838278
0,0444223157368814
0,0592181046730939
0,0372801059662788
0,0546633546015625
0,0343367701920754
0,0608914392399843
0,0640572568559667
0,0513636819354122
0,0433179084598522
0,07064454534342
0,0486411125435802
0,0491158073409551
0,0393060238428086
0,0500592259657573
0,0836029520855343
0,0427746614654812
0,0616732135877342
0,0977836210676695
0,0144591877009737
0,0672430533822975
0,0432242439473879
0,0580882389837492
0,0996324519784143
0,0546720337944089
0,0230241794312311
0,0475598454548837
0,0611836865167599
0,0514610352480584
0,0520007187397626
0,052824215162951
0,0564033078225285
0,0676489603984973
0,0694824676528145
0,137082603663847
0,0127671659871328
0,0827920304406772
0,0426740614219522
0,0641901375066325
0,0459338371234919
0,0541304137337817
0,0439602322981728
0,0672780524506348
0,0564278747503078
0,0692675569809444
0,0551303916026802
0,0563233244564212
0,0764063426478442
0,0485623035853847
0,0543239645616837
0,0634014318910629
0,0654090222759889
0,0466883360156239
0,0599080261148836
0,0503870012951347
0,0656789883281491
0,0547363298094172
0,0609019762014575
0,0972243736056514
0,0710264468779604
0,0702155045534286
0,077937452925039
0,0578375890295519
0,0534571549234921
0,06111992718652
0,0605597326065327
0,0589838378658692
0,0558529475937748
0,053100193564287
0,0853949308858748
0,0681706757191276
0,055915344577356
0,0605780052253099
0,0581881510798562
0,0598628824102015
0,0620446805243564
0,0717917857092652
0,0631776143333249
0,0684290571104683
0,0633053906301844
0,0846675715353839
0,0970141611417115
0,0537642850126532
0,097460896251135
0,0899657300874643
0,0493870106832875
0,0660437017671221
0,0620749851710957
0,0714974316023229
0,0632594078438594
0,0764394299482216
0,0634692202734495
0,0778928795777614
0,0898068714904991
0,086002642987559
0,0737692036148375
0,0963836958525006
0,11234979370975
0,140014932535695
0,0431938092774867
0,0633792759925468
0,0566972228488194
0,107085253381506
0,0889995474127836
0,0863468438804552
0,0948487801995508
0,0814758406782236
0,0873596856022244
0,0731440126078767
0,0945292945944421
0,0829905027586023
0,0889726991607078
0,0889890184404637
0,0947569604413928
0,0947899685894894
0,103028740749452
0,0937042848531054
0,103927304995555
0,133499665466146
0,111993084002061
0,0973428403006694
0,0985856710579943
0,0962749316401564
0,127387446131936
0,129363990571626
0,136728232963354
0,126558875572941
0,115659631545851
0,156363116909049
0,086043888228314
0,118803472954877
0,104536044836701
0,123903833764227
0,128573643268816
0,133668818148458
0,117087177718062
0,131768044177426
0,130741457074796
0,140480489641715
0,1267682401843
0,142447199796286
0,132237049314766
0,166455777801195
0,142026046520973
0,149606921460623
0,137333508173737
0,173028036759275
0,178880608700409
0,21538393205934
0,136946511928052
0,16753625375761
0,159343051816861
0,162801830319501
0,169196597857391
0,160756968741294
0,179241741341236
0,184304139625894
0,204269046593172
0,173935995970975
0,186994991622132
0,20310498145798
0,157862415809693
0,203248150286941
0,189715975438766
0,19997193042646
0,212285071928308
0,202255463925349
0,199810356445422
0,214393323733813
0,21354859669262
0,215575688667358
0,234300352284249
0,206209593028351
0,228088708515543
0,214911464246888
0,240401338747223
0,226769561222852
0,237254198142439
0,236995570146959
0,238069253832613
0,245923200589639
0,244043329271517
0,245968790435594
0,266958655597358
0,264034427184077
0,251279295839926
0,277271588655818
0,245812881232816
0,279208114587436
0,26018980576563
0,292230847709317
0,290029085029991
0,291175734243692
0,307220639909409
0,261587140036164
0,282661893373057
0,27372592917004
0,285192095419179
0,283928049243754
0,304847685997774
0,309602967041055
0,310352341728456
0,313747955448774
0,332270215640417
0,33061708155024
0,339404512259786
0,332369449740904
0,320953871098849
0,335229722767901
0,338920281127507
0,343261203992143
0,345362167337469
0,368184530767842
0,400099932531341
0,395566850001862
0,432459891593881
0,352699277141067
0,365434789194558
0,36264738814538
0,377332478599095
0,375464766851699
0,401577926148188
0,38381633140735
0,399423212755394
0,395557837655936
0,393731050184832
0,385884853773998
0,415314534125978
0,413306965200812
0,425531415064583
0,438805554027159
0,437582882052779
0,430747204782996
0,428955210357861
0,436767954120716
0,474650178864565
0,440572690856523
0,450055339936622
0,462731378682368
0,468538880636794
0,473330003850638
0,479524086305035
0,485497827594028
0,466534637156809
0,472563951584583
0,490095113970682
0,470895579437674
0,500033628759249
0,512338417791034
0,497631068021283
0,498711140095873
0,521166190824909
0,518718767100255
0,508364116275781
0,523468367456752
0,562928246202933
0,541298998473757
0,547295489285798
0,538270191669884
0,553000300355565
0,515629194466785
0,540295504592627
0,576358708546656
0,590406705629549
0,570043741336777
0,595015073495599
0,561798231453913
0,563150067229391
0,564033199347618
0,578381855297377
0,578165467539881
0,616847240303947
0,597024518529774
0,619533048351405
0,633833052907127
0,674732808477629
0,643499320874632
0,638483875617677
0,640901437681889
0,642958341372311
0,646919940252157
0,652476823413743
0,630006465932824
0,661892612496937
0,63727010008755
0,658396912815441
0,670013001704383
0,672943029474633
0,664190559639265
0,720668064778642
0,672577981360658
0,690029588347253
0,688092041138118
0,707581387687675
0,709279914577689
0,714974831079198
0,70885523073242
0,755897565494535
0,739439079564525
0,743645800804175
0,729570415872221
0,749468373093796
0,769749173806409
0,762250615591082
0,753192586650353
0,77901402765608
0,723664754278906
0,763126712397626
0,728413818030065
0,799767197820105
0,77272161632303
0,835534494929861
0,798464130448095
0,796605889825148
0,792302401599763
0,816681375637871
0,779091601638646
0,78037841111617
0,779645667311648
0,837685884254698
0,793181557467002
0,865500733032341
0,891173156647507
0,886771247303847
0,818261959379094
0,888915362127645
0,862809410989439
0,891067846441649
0,848306081044814
0,879122684666688
0,913385723641729
0,955370960481459
0,862134141870706
0,895276370643023
0,875334532439853
0,92603003393985
0,902573974184053
0,887300095888914
0,883738612359764
0,904126343123113
0,881497991906878
1,00659389409611
1,00861153984868
0,941379068799164
0,919423905351199
0,948289718071253
0,923291033083917
0,956633660195351
0,942586824667741
0,952972291774808
0,955262335189523
0,978665735308943
0,902392449949528
0,98311671647816
0,981514930578201
0,957064490866236
0,90575788143356
0,986557756017653
0,989891072695328
1,06690861420131
0,978767534208386
1,00043499099349
1,00340141444349
1,07913860295157
1,01945803085072
1,08856607887811
1,03629549353644
1,04661643168824
1,06859174965849
1,07697733631295
0,998960230456343
1,1059284100792
0,987105622520522
1,06423712726009
1,07657720738092
1,05073626106726
1,04202884509379
1,05671192158048
1,08115145081805
1,08631629440813
1,10521651456714
1,12779194199518
1,10701861096226
1,08393977038503
1,0677559423451
1,13013822807054
1,09395079151717
1,1873096247919
1,07400511882513
1,15309420214869
1,03118114222957
1,10089950090993
1,07536845428108
1,11192081477904
1,12011420478073
1,22858707591614
1,15638041050982
1,20904722991564
1,07627948411754
1,25193191879023
1,20586238973778
1,22578724283527
1,11359604114375
1,14005266265939
1,12966767059561
1,2241083478309
1,20972813863411
1,17470030877234
1,1170183914991
1,15593571614756
1,17116169129815
1,27265522642877
1,24995074954736
1,17021567014693
1,10265128744237
1,25176878607874
1,14199134294989
1,2040765748606
1,18929595087046
1,23484621279776
1,23618398431994
1,319120993561
1,13438601086119
1,2852656933084
1,1389869042082
1,16906908116685
1,1189172783132
1,24771344890713
1,36516030922489
1,29827476834592
1,16954367328173
1,42093485695035
1,16661633936337
1,35308601191409
1,21010013843689
1,21937718118037
1,19848423574549
1,26933494477058
1,25162969680882
1,37677878373641
1,19955262469838
1,20871263834913
1,18660050293648
1,29918736541501
1,19023242673284
1,2055298198485
1,14423137923597
1,24640122952138
1,27328551380426
1,35085773731136
1,27645024126084
1,28650552394901
1,26448451176747
1,23409465556038
1,17032688757957
1,35904452535694
1,23149564476392
1,34711977413203
1,29720588701367
1,28657694836626
1,21448958681373
1,31163515403994
1,24978816322271
1,36869802746103
1,21918185475769
1,30106145131167
1,23393345901986
1,38416589633674
1,27577464177381
1,33589147477481
1,24124742371553
1,37062386601024
1,25146623355669
1,27960432778279
1,2573744124792
1,29872585039528
1,29444912091855
1,30439090271114
1,38630522040521
1,29223279688161
1,32142736770862
1,3169541852017
1,2402519014673
1,40666463733428
1,2776100522439
1,30366973062084
1,22645174789961
1,27628470176006
1,25803523738843
1,35008773039612
1,27573566948612
1,42610318506154
1,2102028337931
1,30640899528458
1,2837963835256
1,31502288238753
1,36190858460776
1,33859202631191
1,3045248898444
1,44262332197914
1,39117781186466
1,36818541569346
1,27943616379319
1,30248281482699
1,24281437572133
1,34010188643335
1,23374447780383
1,27262093809346
1,19243023450289
1,23278202847777
1,29333494826711
1,38593671846932
1,34091715732238
1,3618575636488
1,27930280916636
1,32339951564242
1,19319227229252
1,33964742158165
1,23293915214182
1,27085161442316
1,26920611806868
1,25481710065678
1,32718875142502
1,40222462005209
1,22097008244468
1,32436907012452
1,29562110623547
1,32414553057645
1,21114599371766
1,34616085251393
1,2183307600068
1,40861135412435
1,26707151555904
1,27920270478382
1,20965544656408
1,31846447047244
1,27741130317241
1,3330102633212
1,24030863922829
1,35590804260174
1,26020995756539
1,36092052412886
1,24445422913641
1,22325043597964
1,22579564934578
1,35806600558109
1,25548658453409
1,32063406003469
1,22653117961925
1,2577871330116
1,21293358314371
1,33851697437644
1,32921986583889
1,23080103578935
1,21792262790927
1,3234938034936
1,17199601810828
1,35322689595321
1,27429455705267
1,27359242801151
1,24998486697707
1,24358278401003
1,18239423888443
1,15441930125262
1,19021090468185
1,26005638335383
1,16255442703333
1,21238825114027
1,21633808876109
1,19295871836609
1,17974185754563
1,23246994286703
1,14616306833102
1,28844614798305
1,20305839432553
1,18388895149691
1,13433092750449
1,23862095930078
1,19007523524521
1,24837071961494
1,17649111529662
1,26371533210414
1,13010778056987
1,19272437634472
1,13873038341993
1,17948966626093
1,17170539314093
1,20719140553631
1,11370511761691
1,12366379573355
1,13330277811507
1,18656364662671
1,13595727023771
1,18898344169456
1,10127484934622
1,10270551200433
1,08740373148423
1,22087578073273
1,1509725821058
1,16992711356308
1,14469214129469
1,15271567082395
1,09028075164411
1,17198639890026
1,07811326080608
1,11229779277974
1,0761801728499
1,13377120302256
1,08328535179582
1,1336763221098
1,09767234237657
1,10538185857493
1,10399830198542
1,11588052053158
1,05712958661049
1,08222880921854
1,04279446459878
1,10178163894637
1,06638516179892
1,06406497707696
1,04814860168224
1,09163007165829
1,03429849744841
1,07628948765328
1,02951276040106
1,02563000734198
1,01501854542121
1,12130700432032
0,989310433424019
1,02382697145872
1,03289415655489
1,02784388590137
1,00567090963115
1,04191421584381
1,00693746041552
1,03524601879916
0,972727244779
0,975221746678142
0,982030989058215
0,988164580043498
0,978771617079436
1,01670808985415
0,956536907513941
0,954829123921761
0,918907019447526
1,00715979605604
0,95164991266384
0,963342995714267
0,895741612961998
0,964800081870367
0,929283361168041
0,942148208551029
0,892793058537858
0,913956261767166
0,90650631380625
0,899105854286173
0,894764052147024
0,934319557949752
0,878730895464015
0,924302767913506
0,876560284626492
0,921813383380884
0,873877433604807
0,907988033807855
0,884512489110306
0,907104711244607
0,865019264185546
0,885189473744508
0,856191046464802
0,844353160305206
0,832821582316407
0,854645212753759
0,84077043011513
0,84559436896836
0,845071431945932
0,847364529398659
0,818255967082144
0,8531908114515
0,809756137609341
0,83644092173538
0,831374087199864
0,824940657157227
0,761001484669099
0,81692266932206
0,772525962390931
0,789622227618482
0,779636357587771
0,796695700084184
0,75041332614919
0,800248980270307
0,75503310075564
0,775718340566708
0,761392023837719
0,781935061160557
0,754560066424471
0,768815198369635
0,749689197410016
0,773185344345006
0,769110440638764
0,74626534893583
0,752033610423461
0,743013876312915
0,710211240016105
0,736083092815214
0,71136075487274
0,731477563720291
0,689689620149189
0,731100618354171
0,716454853723858
0,725298379021926
0,69679902240851
0,71389135075141
0,695887208848676
0,717756363159786
0,698776975093675
0,708563008054224
0,685337962349268
0,691898730974738
0,673271500321254
0,69254438042185
0,678460839347627
0,684129320330482
0,658396947038013
0,686055609245353
0,660231207113796
0,666858092221684
0,641653247288674
0,673215013377313
0,650480707084816
0,651959717911559
0,635462913780018
0,661947014911424
0,62911893671952
0,655221163137958
0,63076406484153
0,637365863217644
0,633146743926302
0,640975654321829
0,605221188224824
0,624715750965032
0,61934853582547
0,634765101209653
0,614410287118617
0,612371877690783
0,603803370503756
0,612336034267023
0,60383558338001
0,608935188759929
0,604352002537967
0,610120174745997
0,581010529289283
0,604069557418609
0,587803531758266
0,587530097835435
0,56065639522766
0,582853923070213
0,569527078324518
0,578070981894892
0,564121801606716
0,582159487923958
0,561238113520977
0,582698964318676
0,551435415438763
0,561771815077773
0,555352639029198
0,560270074824329
0,540715706286955
0,55774597180304
0,527761419032431
0,552502664552551
0,534006665723898
0,552356265529034
0,524284882971728
0,540254966564347
0,522671388988421
0,526945205757524
0,516597450453398
0,520665490476275
0,515797660965449
0,528185830220345
0,518501254168269
0,522587521239038
0,502111415688377
0,514680212879995
0,496749205492065
0,511219494312082
0,496761677033471
0,503849456506673
0,490643459972997
0,51146728560564
0,495939841119469
0,503284797661887
0,487707372152312
0,491319134946888
0,479522981311808
0,482026430197806
0,477539129646986
0,478684699474095
0,464306299841843
0,47989330264825
0,461629759464192
0,478240554888023
0,455823005367183
0,475710181096983
0,459382341916632
0,467255991241611
0,463569926924605
0,45288014352183
0,449632115570212
0,457074152594419
0,452707935595814
0,453865774515853
0,445703369155405
0,45324045861463
0,44342434377119
0,447167488916189
0,438837550362777
0,452317635136502
0,440570730246107
0,448497167701586
0,434686626203713
0,44608622298043
0,43591429202175
0,443678327179404
0,42267080035427
0,436576388767848
0,434785604892689
0,438856390377426
0,425024236473209
0,433113000826135
0,428157985327364
0,441467696309539
0,427843823203613
0,433792913863487
0,430444833065058
0,437810854069437
0,440533088550273
0,435543518846749
0,426489303684093
0,443655474465422
0,4342131160828
0,443818931802888
0,428646198684104
0,44759105536743
0,431882391122359
0,446928572075638
0,439840360198665
0,444963475552702
0,445941140469921
0,450825179632434
0,443737973589326
0,457913482632861
0,456755816836886
0,465924725982046
0,451996456243654
0,462027290193976
0,453387919981157
0,471406283836091
0,459943441244087
0,472379649979912
0,458935934230026
0,469693237243041
0,466532695462769
0,480813377237683
0,47192356843626
0,481130494058212
0,484948368584581
0,492610247517511
0,488046230077146
0,492607444574367
0,495927702088994
0,506561378351487
0,488310360280273
0,492979400135009
0,493342710723263
0,503917902805223
0,489981168788678
0,504493454261798
0,509881337876591
0,518910303366537
0,504669912101059
0,513927582154249
0,514008018382205
0,524764668436407
0,510650603869876
0,532498813439309
0,522904361321833
0,542532851676901
0,530955579978167
0,548366721237457
0,535462702018962
0,55298484211568
0,554453991580842
0,553481609114364
0,554681683225472
0,569063232880003
0,546015290708554
0,564886904465102
0,561421683862578
0,576098215824735
0,567625141488803
0,582171308753638
0,551991328727833
0,579079584353128
0,574045186951965
0,579368258104343
0,561667827533716
0,577764096772179
0,565603373092921
0,58561329441551
0,558917177355491
0,566213833776152
0,5476156177435
0,566694776892087
0,551874251820815
0,574934347344958
0,565866060300448
0,560203414024792
0,570780398354918
0,56828290027292
0,558352830354649
0,567937587217809
0,550192541731654
0,563954668348841
0,541077863428327
0,5681380772785
0,552029516545249
0,559149105548545
0,549033340076644
0,565845841110036
0,529948024847503
0,565433779356253
0,56032367900279
0,552820193603304
0,551807900925087
0,560196803733678
0,549810378334424
0,554911687733808
0,531336401543662
0,564849858971664
0,560522593391195
0,553655579207881
0,555468921720541
0,566468820986333
0,553026424994351
0,561728096076184
0,54165688601668
0,558806176440326
0,537360451654903
0,55887664983507
0,544987387216098
0,55051959550963
0,538995026026408
0,544403705125438
0,532955471526394
0,544622202461226
0,536210457221856
0,551789210936905
0,533960986649701
0,53759551516798
0,528470186473515
0,540281504077607
0,535652415184771
0,527806423966322
0,520424479388108
0,532191218283056
0,525014630992485
0,525242472002449
0,509943267853291
0,513880872040462
0,506157063566429
0,515591933884305
0,493228948647688
0,508525154436405
0,502732711934215
0,496241879542485
0,48483009742838
0,493734185458952
0,489506117162257
0,484348336415181
0,482509268044979
0,481408956248032
0,475444297125964
0,485175475410509
0,465590252351137
0,473735036043474
0,463033357661737
0,467758846279539
0,455816293009132
0,45119167488768
0,441225937645294
0,45437805947205
0,428206801847126
0,443062093702277
0,42988244155884
0,436835822734446
0,432270108683425
0,432078131652999
0,42084326496492
0,425062296930725
0,412443827453518
0,430470196535928
0,408204669786046
0,417678767361512
0,40509065957426
0,415802368133079
0,408783369485092
0,412728343389865
0,400833364771633
0,409250572290526
0,398890735598016
0,409161419092481
0,396878407321942
0,39839611822879
0,39234380696958
0,393607438216568
0,382166627051017
0,395440290816888
0,383277943808775
0,385846203724107
0,37934901302751
0,388555902126952
0,382831914630488
0,383725579731657
0,37662997480636
0,386565004696483
0,371784489963876
0,377843150309338
0,370189692749551
0,380938970528675
0,375468142860339
0,374442639934004
0,362270321861475
0,372201320985071
0,361959979985824
0,371664075951209
0,364187823399831
0,36735645690933
0,356600717830271
0,363294771660856
0,357694948031687
0,352269869347264
0,359660183708753
0,364478591602152
0,359268259841009
0,358746894271498
0,348463512012087
0,352438666563108
0,347525292412954
0,35540015822334
0,343280809584507
0,348903151713013
0,337483536118406
0,346991399020852
0,348879354549671
0,351154525313071
0,346506470733669
0,354181674100198
0,339125524912112
0,336599235085383
0,340117003076292
0,341839693208593
0,338743577891691
0,341229032076885
0,333320913132359
0,340291443214427
0,329273440236105
0,338620111487197
0,326119333519
0,336941384328019
0,334311116757355
0,338060769045945
0,326066098287273
0,332678585183923
0,324788522034677
0,330544169651734
0,322388331424719
0,329286325563494
0,32169935414185
0,329594086994131
0,322361248314294
0,327614715057092
0,319821622494286
0,326765849251068
0,319067533016003
0,32247208233481
0,313121576792613
0,324293831731047
0,317922074952915
0,324745858333184
0,317432466694628
0,318028078273392
0,316297170473863
0,322869194133441
0,315862008996212
0,319441915578272
0,312311689561651
0,32082287432447
0,311519484320628
0,319055996626356
0,314031364471962
0,317721907928464
0,310632546232622
0,312992702812535
0,31075382532627
0,316481885015886
0,307947103355119
0,314895519238123
0,309147534405275
0,314717395448798
0,306823779931993
0,309421138488943
0,30710835639774
0,316712098680085
0,303035526457656
0,311393010773086
0,307669748423662
0,312672709617722
0,305200722334978
0,31012907291549
0,309928264007153
0,317339444938554
0,302417618431513
0,306036854646915
0,301518595453282
0,302758409663293
0,2963901320679
0,310243850735369
0,306612557326586
0,30518802483108
0,299465387136505
0,304198775877346
0,29464600214178
0,304355618541962
0,297899436513493
0,304159814244817
0,298585931504528
0,29990650074977
0,298755800929998
0,301030629905809
0,299343888208829
0,290637128644085
0,289632147116856
0,297478117525399
0,290154074872383
0,292348747706446
0,294445801790859
0,294748046424154
0,290376573859503
0,295950262200651
0,290364492551425
0,291975351040881
0,289438600091787
0,296619587794182
0,286986190002733
0,298142303296717
0,287120341795131
0,290449021154514
0,283971786912262
0,289993144297313
0,280941181541713
0,285231722261631
0,281676500806168
0,286741854417174
0,28187275059449
0,281757267742221
0,281187424859837
0,283165070676553
0,281976015581774
0,290355064629568
0,279614977932731
0,278843082282355
0,277177881305806
0,278505954286124
0,276098864797693
0,282223180572119
0,275722208481651
0,273762117701047
0,266822638633173
0,277233288565355
0,270450862001661
0,277072023717587
0,271827673644769
0,271408437693759
0,2728901914033
0,275286747878867
0,26813396388736
0,269632717077203
0,260993574479181
0,268054793272579
0,262395403224667
0,268946833969097
0,259551496004682
0,261844726919926
0,261410495060363
0,267963318884923
0,265560145902382
0,262655556730035
0,258485697314569
0,259005689288226
0,253017210689736
0,258492208268868
0,253195025910683
0,257323599716732
0,254871762984994
0,2603558699657
0,253189821535742
0,256515783198311
0,248862219183677
0,256440859797059
0,247798417737018
0,24851216652162
0,248362491346961
0,251853476500125
0,244845800610465
0,251886780247464
0,244387937201142
0,249914541052092
0,24520598810011
0,248816509382401
0,244963901324332
0,243948108357372
0,241662346626689
0,244389829441107
0,240767378884222
0,245173393632207
0,24072773828805
0,241823681867937
0,240373731544333
0,242283529724287
0,238087874272362
0,239141996004065
0,238649173689226
0,240533322422695
0,235829879143083
0,239639289850053
0,228280541508479
0,240092244443055
0,232335161855161
0,238712013718116
0,234921483067983
0,231749783288097
0,228723035161386
0,235709521773732
0,22999022215338
0,232053065073803
0,223122529642828
0,230879461246093
0,224454641014233
0,227606416372866
0,228492371972548
0,232307446556886
0,226804813610057
0,228668325848276
0,224933261612639
0,228598411129387
0,225335204433718
0,229822443950048
0,217373507205128
0,225639715748719
0,223933347140489
0,220080183276662
0,221865866636521
0,228275238214786
0,221814951272148
0,224255750728328
0,21930248310538
0,224359294672648
0,212935571312999
0,218232121344517
0,220950797612216
0,221323828597203
0,21844160597328
0,218611001775177
0,216136407341957
0,219377449565919
0,212403219760116
0,218233781686443
0,212564971316233
0,21963126305101
0,215683894696319
0,220932359247376
0,218055457464839
0,21649391144633
0,211385556840372
0,213698492376465
0,211038718311736
0,215969236439255
0,210068861470805
0,215866256471736
0,209050800178926
0,212317974922165
0,213628244002842
0,218941037279788
0,211448642847589
0,216443728135884
0,208290010948694
0,215507387819381
0,210829035740686
0,212874369978177
0,211495118782843
0,210076518065777
0,209617018060228
0,211618199262903
0,205038976581917
0,208832601667825
0,207792855251939
0,210358590793873
0,20791786441347
0,209491838996247
0,203004845561309
0,208490873240461
0,205046933306495
0,206181017157952
0,202789464714762
0,202517359494707
0,205177780217707
0,210690942789653
0,203626152901926
0,205128807472405
0,202711752237802
0,204893447708309
0,200479616789537
0,203070356761202
0,199645433686765
0,207752270733476
0,202179622201486
0,200784562040722
0,200466609157475
0,203712183477844
0,200658468362729
0,207453550074977
0,202209195653669
0,200787508901481
0,199262415783412
0,200616431749266
0,196021525816812
0,198058971459748
0,196495934662998
0,200349146476587
0,196179863246981
0,20318315051215
0,193616459414214
0,195403324811647
0,197221355650125
0,197071788499934
0,191619366474587
0,194349766560066
0,193897230938639
0,20052643239974
0,192648567386076
0,192093316827826
0,195391084474994
0,194253174369995
0,193690276889009
0,197205450243112
0,190940227678474
0,193869942298796
0,190627902479799
0,197308871478339
0,193695071125907
0,192638859460508
0,189954097623
0,19799503540982
0,189553212964075
0,192046531592958
0,189092284085001
0,189244866512096
0,187796889194518
0,193664951064607
0,184167789347706
0,188770054214043
0,187737008062059
0,190527888896128
0,184065234289771
0,186191460978513
0,185519166283043
0,188645275518889
0,18469874822934
0,184993535232851
0,183865212188004
0,189192565296391
0,181816560641558
0,185543670045611
0,182706028224145
0,184406495874646
0,182848087349338
0,183073161137752
0,177521614324446
0,183549119585831
0,179235181093166
0,181527742266545
0,174990356298789
0,179042412371534
0,181292673938097
0,182438459337749
0,176683384565302
0,178443964613689
0,174694289890764
0,180365035169149
0,178744732106961
0,180840165903223
0,174903337311488
0,175667302760783
0,173299696369219
0,17884301631163
0,173095502944506
0,173920089501124
0,174027742429202
0,177018395591239
0,170314791165945
0,172885373363508
0,173495967892179
0,173260347285286
0,169444206818988
0,174495942896393
0,170575621461419
0,170185209386608
0,167312759869587
0,169592985539235
0,168233128490826
0,173462709661636
0,168786700254855
0,169306581971911
0,166776545791182
0,169730488922735
0,165098186140964
0,165909318042728
0,166428592877588
0,171870563968761
0,164037444937534
0,167340398346032
0,161465942140032
0,16403416982867
0,162316950036965
0,165118044944646
0,162407605357357
0,161600609568252
0,157848338317768
0,163941716234255
0,162755245487394
0,163289977742842
0,160746822228529
0,164732912309046
0,158759058232843
0,160392107666031
0,161010000504976
0,160360562762995
0,158255534449504
0,161166194000263
0,155625909237509
0,158116861104766
0,15631887475687
0,156699108677839
0,157504056771361
0,15925069425979
0,154472814867189
0,158138384055956
0,153810076123805
0,155485151042158
0,153400973490947
0,153805458638641
0,151297208194242
0,155203917179166
0,149849372850102
0,15305462459128
0,150747809115436
0,151999811609699
0,15322056922508
0,151875758512677
0,15056602661898
0,153960710143628
0,149533745719476
0,150162756536782
0,147863593642041
0,153503278673946
0,14857147616726
0,15370894334397
0,147572273486184
0,14938743215786
0,149175672719118
0,150054614097163
0,150574805959489
0,150670520115264
0,145298364141254
0,15216869439927
0,150352320534404
0,150135600857215
0,147025780347936
0,150315370767801
0,14654997140292
0,147238594955042
0,148967216084725
0,152549112394156
0,145653136134935
0,154501313862637
0,146807464465019
0,146632886888672
0,142810334019202
0,142153652051863
0,14240158169929
0,145803728195695
0,147854307230535
0,152196892276175
0,14017901061638
0,139154073658596
0,140425270543358
0,147628373753489
0,139375029142896
0,141761363329539
0,137156191670681
0,139229310524358
0,13712737273349
0,142495327878616
0,135528955847787
0,147988515564706
0,131740112245565
0,144150194240037
0,136261132887589
0,142254376511955
0,143311322518229
0,141464834271031
0,135973126784857
0,145074561644176
0,138015435476562
0,143213974768091
0,142365317650448
0,149239486582314
0,132647652132102
0,144639854968186
0,13210513525309
0,146618048264256
0,130358003582154
0,144239364726219
0,127953002839441
0,145262610679587
0,119636759875257
0,14263535109717
0,116023105583249
0,150091609091938
0,123936473669494
0,158111897393907
0,119424112138024
0,15188723576777
0,102961945800555
0,161065765405985
0,112840169539114
0,164579583710242
0,0972934032247155
0,158805416560497
0,102835228632592
0,169342749284059
0,0996383758605642
0,159053983504256
0,107547535768187
0,159398507251031
0,106165246468601
0,14590530046747
0,127344815058818
0,137691448737925
0,132197672498047
0,133564816175219
0,140948439847663
0,125059055276813
0,142946110935247
0,127620994593905
0,141831176295107
0,126042866453434
0,134133710909024
0,133265372129922
0,131225801149942
0,135729232891989
0,130179664548524
0,131817968258384
0,127975853831588
0,132459793179084
0,130440401607743
0,129073277170976
0,129290701504053
0,130635428869415
0,133015492855132
0,13150098057761
0,129557737033686
0,129710435508867
0,127144854430762
0,131164125210294
0,128275553527727
0,129890164298292
0,129068789981279
0,129759334979975
0,128541685024494
0,130432375400759
0,127916219007312
0,127480837221007
0,128867408895422
0,130416888698652
0,129637345363246
0,130367801757842
0,129231402037617
0,13098515216822
0,128003431910271
0,132884179227181
0,130213415941054
0,130916588138704
0,12811129451558
0,130197763198714
0,129531554489278
0,128943593574413
0,127534207693481
0,129145393777491
0,130959230923282
0,13007683244026
0,129799161297493
0,128111866930166
0,129006979712069
0,128263135457796
0,129641642025466
0,130224216105058
0,127803162124387
0,12846046365156
0,128432740265315
0,127698300694249
0,127763103338919
0,130014728099834
0,128668578512649
0,129427311946061
0,128093895023687
0,127205502385615
0,128851415945632
0,127936258547706
0,127547194690013
0,129601943019747
0,127190696737593
0,127928694931191
0,128662045556197
0,129039780367056
0,128930908685798
0,129553955520818
0,128020632341232
0,126119530484576
0,130729807783789
0,128508815034949
0,125938367565302
0,129085651109437
0,126478176574774
0,126685130908462
0,125345606564418
0,127234078879078
0,128296555385315
0,130119925008224
0,126604124846282
0,126583706841207
0,127360425586041
0,130278016133057
0,1277412263942
0,130135436463883
0,129779267473704
0,128866028826272
0,12716141214028
0,129730486503811
0,128602436030611
0,130936124126787
0,128681300379508
0,130079235206288
0,129991121434762
0,128961032038622
0,128747125391474
0,128503329844007
0,128976122233698
0,132267500051663
0,131170461312117
0,131185019548021
0,128585602043999
0,130826935580299
0,130860724235802
0,129308351207522
0,12915986983222
0,134467706527681
0,130662871063516
0,129796180235848
0,130297664839179
0,129000405866118
0,127294540141603
0,132271419854481
0,127949241525232
0,127806270789805
0,128267257947579
0,130331681477829
0,131765855443153
0,134009483271972
0,130762624828882
0,131199006863093
0,131959676021531
0,134286103308771
0,134379219424576
0,132614290510751
0,130648216979958
0,131701274525879
0,131925343174299
0,133777493394638
0,131475264264201
0,132678468798513
0,129944321285363
0,130255699255521
0,130689726190612
0,134097397526442
0,130769126591745
0,130673661553373
0,131009801243921
0,132629145266393
0,131282384110708
0,134838688858003
0,132579799625957
0,133053102092899
0,134886339651689
0,1349327106067
0,131540764857401
0,131068395826112
0,131452884593415
0,132900543940831
0,13336827703814
0,135328446971582
0,133500271865469
0,135118574444174
0,132692912900678
0,133000935345193
0,135154284873584
0,136096874428437
0,136186929768211
0,13953307288396
0,135894333343647
0,134245859952568
0,133501222032453
0,134436685346516
0,135337111526929
0,136053390662818
0,136438169845379
0,136759947465183
0,133263887506078
0,136347316689416
0,133985754675584
0,13364653947499
0,133052258002265
0,132839411392511
0,130037766604266
0,132557309560305
0,132885871971559
0,133758868032091
0,132506009318162
0,133583707226789
0,134113808514753
0,132619712737326
0,131403805604926
0,130528503884091
0,132399871391345
0,132849879992557
0,132779921342407
0,130351554371673
0,130799216922184
0,131930294406968
0,13338599478824
0,132693902192378
0,130085552915876
0,131307553628432
0,131520600472654
0,130102594170879
0,129824865176029
0,130809463322287
0,130682771417881
0,13379963488108
0,130001374366485
0,128471157733951
0,127125577132788
0,129394034794315
0,129520173645305
0,129206966702251
0,130602580024079
0,131341464646319
0,128729759940374
0,12974672627843
0,129548657254884
0,127642954311032
0,12572343631229
0,128674561644167
0,128050794283731
0,129705204198156
0,13044209528573
0,12848643072583
0,125304994209
0,126046405274395
0,126918133367225
0,128845279578212
0,128887819231148
0,126820191762878
0,125798902444694
0,12595761290046
0,125611737871821
0,128869912373865
0,126104188921349
0,125873542708396
0,12525741915428
0,124935253450965
0,126126397359586
0,125859427918397
0,127345777623051
0,12658849628224
0,125893137609712
0,127196664922183
0,122103906360099
0,125469039709092
0,125033461624047
0,123426821799277
0,125686904661073
0,123820262398214
0,12240297934885
0,123881454864723
0,126593094798511
0,124794980609069
0,124600734918965
0,122463098814696
0,122266770998461
0,125521226882563
0,122355293687183
0,12311088148309
0,125917352466134
0,124230485651724
0,124012174036452
0,124098356320053
0,124358831233858
0,123426469459788
0,121358318536036
0,124887547310634
0,119740680432611
0,124204563817165
0,120787193356753
0,125600826453022
0,122406480271146
0,122592147638283
0,122249483350639
0,120587486766282
0,121723609760954
0,121476824736948
0,120858785710841
0,120633461139137
0,121197407697741
0,122460594049855
0,120885952832538
0,121943713384636
0,119413507377004
0,121958615691346
0,119317878210234
0,1213271388713
0,120100940163002
0,117443408336642
0,118727796080725
0,119314769296685
0,118319943087355
0,119420921668647
0,118401395371198
0,118369397944017
0,119738153239288
0,116027127104421
0,11631619378289
0,118460088783317
0,116857331911288
0,114503986934397
0,117091950933262
0,119215129555995
0,115922996979227
0,114397029495541
0,117466514949209
0,116601874770323
0,113793100574964
0,115107683181163
0,114249456125125
0,112416321400993
0,112958650285662
0,112609334152439
0,116330993651346
0,10807586577643
0,113212336210371
0,110083427966164
0,112661821102291
0,110987806716405
0,109765613566149
0,112022100506747
0,11140273486361
0,109677237880305
0,109901583218747
0,107679211767959
0,105378808004476
0,108407974800555
0,108848195310142
0,106827637079668
0,109150939562157
0,105078036433663
0,108773794923544
0,105700639223814
0,108160685720342
0,107083441832703
0,106299183755241
0,105385383418635
0,106177812704806
0,105869379882077
0,104847975946033
0,115981282717327
0,105960873810108
0,10558426996887
0,103769058288338
0,109877240301759
0,100166513615451
0,10516957300827
0,102439568221229
0,103198841597605
0,1007342193351
0,10176362768541
0,0998922303936449
0,103112253523368
0,102856924117412
0,10515217339702
0,102198761341363
0,10287731451118
0,099584031530239
0,0991439161666681
0,0993438802592599
0,101692491437845
0,0979142536457332
0,10215431760048
0,10176165071572
0,101691370248127
0,0954093963444049
0,103672784475321
0,102007471104142
0,103044324185353
0,0974730232084829
0,102560537649623
0,100178532705364
0,0984837883666028
0,0982497859706797
0,0991453754738052
0,100639917760371
0,0949910151277781
0,0963594323446609
0,0976351411490138
0,096719078623616
0,0966302766598044
0,0964053449175975
0,09814596353646
0,0971379798250867
0,0967302328721793
0,0928501562544526
0,095288007944222
0,0927762383589282
0,0954915132223199
0,0922969599137389
0,0967739240369447
0,0963896224293562
0,0923365818129828
0,108688982995896
0,0887312294011681
0,103547202885322
0,0922426122272801
0,0958225347589697
0,0915244873321422
0,0952387706187929
0,0898874199220764
0,0927797380246744
0,0906524061751841
0,0970309226788161
0,0895564021472095
0,0951535641694485
0,0907134199994999
0,0933906978621898
0,0923789799901734
0,0928213216897589
0,0889493758654419
0,093037395648901
0,0904697762758756
0,0941679551599634
0,09768660135899
0,0981836319347145
0,0889102968517645
0,0939497404933612
0,0846626653497925
0,104603830513488
0,088806565712616
0,0917906265418795
0,0918563399409805
0,0904937789068368
0,0937686662919925
0,087917985643541
0,0935006456495067
0,085982452099488
0,0995256651057269
0,0864242905727313
0,0978095512160755
0,0884045665225571
0,0916416982956777
0,0888374943149386
0,0911361586871762
0,0885935394638159
0,0900270699719626
0,0889555226661401
0,0893564334346341
0,0917204492114494
0,0882464481012604
0,087934636792217
0,0864778520697221
0,086142551730602
0,0962184140087435
0,087110850292619
0,0922759680682752
0,0868570144963494
0,0906289735449467
0,0888456911164962
0,103172936712623
0,0777653335345962
0,0947004267643403
0,0832928384260972
0,0916238888004048
0,0878727359809366
0,0908396135194838
0,0850098956669026
0,090586797411734
0,0859710425589004
0,0893430596819979
0,0883304172014864
0,0878368438727117
0,0867329269006792
0,0864786565799582
0,0882030242429422
0,0856618480027384
0,0888501068789385
0,0840337497052599
0,0895675113294565
0,082899247270046
0,0933812327773782
0,0999071112887458
0,0872326347344497
0,101269275696134
0,0840065659904456
0,0912790022559535
0,0838221113886981
0,0901810726227951
0,0820100939305188
0,0912282755640259
0,0811091937467453
0,0917002799662821
0,0834473901717045
0,0905637613051833
0,0800309328682453
0,0899139305064281
0,0835539627894175
0,0917061097108847
0,0797695222615482
0,0919319828442792
0,0807749138941739
0,0920251942091164
0,0808834568840225
0,0927288383619835
0,0893667295754975
0,0948263576046768
0,0811021784911235
0,0994011963557701
0,112125517313749
0,0764370454961592
0,100737079690775
0,0781610320864861
0,0909404056908358
0,0828255959317787
0,0868647662597019
0,0908378353896331
0,0889894442341656
0,0844345036576312
0,0881544856416362
0,0844799407933433
0,0877631969220844
0,0814461191669127
0,0929331460728508
0,108622278620553
0,0945202469590584
0,0918215413074912
0,08861266885094
0,082126541116507
0,113398224606257
0,07877082620423
0,0910951495242117
0,0872532395144075
0,0889909525405054
0,0869340283018156
0,085881896396544
0,0891172560890134
0,0894760267659321
0,09165344148945
0,0821880217350856
0,0942241210932666
0,084266978571278
0,0889867748713787
0,0885968581406774
0,0932459709487469
0,0976804024801639
0,086682029929377
0,0887312899647933
0,093161621489964
0,0869264179154656
0,0914732525161652
0,0861484092382561
0,0881481754273128
0,0864136262588184
0,103217389536557
0,0896403774773966
0,102715739989085
0,0958541332453146
0,0884468586644456
0,0911806946906765
0,0928537952854914
0,0972842343307593
0,0954728356351071
0,0864354405883948
0,125100173425139
0,0723465413693828
0,126237058941243
0,0785375485012662
0,102910211965982
0,0818554096419046
0,100683004889279
0,0786707762254092
0,1097527191301
0,0931377743312206
0,0927659173287969
0,0938753857765217
0,0898708567137833
0,110747653705024
0,0942645110913013
0,101957477409298
0,0913465543579696
0,0945974157188202
0,0980760135142484
0,11027563618887
0,0847686849287141
0,123249178330278
0,0948643521551802
0,112696027222899
0,110905213782271
0,0832627616228287
0,116937421507829
0,0933441299287837
0,098822461106895
0,102319508491446
0,0977993261879438
0,104923702385
0,0908021270715667
0,129002328279188
0,103073636275996
0,0987608057967651
0,109229342478866
0,100003400424999
0,116837133728197
0,117218536592194
0,103164234965564
0,110316299717154
0,111616567523598
0,106076236611325
0,127128119011095
0,157759776102165
0,103399197840413
0,154878278257312
0,108194981443455
0,151238891603167
0,113636946494784
0,136925634118205
0,115045360610041
0,15139384448905
0,123746155866103
0,130517940527242
0,121315648481556
0,166515193124057
0,101093670388951
0,143354246640698
0,119433616246604
0,13249614240352
0,142608877983435
0,181647854309398
0,135689696076051
0,143960503189212
0,120568045736868
0,15207905054409
0,138020055380128
0,135799218686852
0,135606676409485
0,135650787588587
0,142159485519984
0,136188594323101
0,144857496067056
0,14723356268624
0,138977561561449
0,154419259470692
0,137416467111269
0,163409884342492
0,156692389562146
0,208073050366337
0,139534262402135
0,171978776703848
0,161529817911012
0,159959594080706
0,16194053530851
0,151945236343879
0,165231667884423
0,164298803218112
0,167495197207255
0,166037231212267
0,173893275649647
0,187987965659972
0,165215660107861
0,216717766377618
0,163150362984691
0,198497019231659
0,177916004612271
0,24934789177691
0,175833227994429
0,199545231168634
0,216161766850991
0,20571066179138
0,276040774826754
0,203697852975121
0,237252250080894
0,23996249254864
0,24164061257573
0,247195054904722
0,267278977943284
0,264656950749819
0,281370707490273
0,291468062063703
0,284304983961511
0,300992021120134
0,315508594712118
0,35702101828654
0,341570899764582
0,321210890623973
0,334416910356331
0,353269584605457
0,348763263928455
0,358105285997542
0,370842967092333
0,364883778478663
0,425348051093262
0,380239358432744
0,415841662121571
0,400990361186194
0,434811244894588
0,425376433787807
0,441857974453521
0,490408749618947
0,441640945342861
0,480697158451329
0,454482074528503
0,500188635038348
0,475555517421477
0,518948144977787
0,518315502391847
0,531139380941526
0,532198670383955
0,53515689559099
0,548956203759072
0,546263609042642
0,566777663873914
0,574226753781061
0,578805432169449
0,641422026403042
0,600475697862055
0,810719365807094
0,566072405708712
0,605151508282445
0,56895673344892
0,612527976448565
0,597811904200833
0,626426916594146
0,629153121675526
0,588735624553961
0,600697595743662
0,593720428573943
0,606607413194472
0,615580309737175
0,607660231195078
0,60509317945296
0,605974428566841
0,629106271019805
0,600180404663046
0,715777993656226
0,604857787057529
0,629556417245731
0,592631803404059
0,611440677160837
0,590350871824869
0,606783494121978
0,594559800643465
0,62890075899192
0,591692990957153
0,602503530754725
0,570787400555322
0,586078484553533
0,59828927640951
0,557536754165659
0,563759050703445
0,55601110590467
0,53766341106263
0,550630102491426
0,527045415997811
0,586626088835665
0,533723479150621
0,539900202371335
0,505026423129927
0,520526271963766
0,500072372484287
0,506587313671903
0,488972031648592
0,50528432971576
0,487097750287655
0,498824702559216
0,490412681428933
0,491384565040957
0,47536464665586
0,479056959621371
0,483420906583795
0,483922415731383
0,485620131579465
0,477748376974377
0,478712006067504
0,480914281416112
0,467753523274217
0,477857379981561
0,473924438237436
0,487346209931811
0,474293642501571
0,484271332605388
0,481214470237292
0,483201800593569
0,48727187925835
0,474771953893248
0,478410821896444
0,483163412086024
0,482418218796958
0,480200406494817
0,482749636647403
0,485037959449528
0,481496768682795
0,477186917988655
0,481232659467973
0,478007091152866
0,485290192961202
0,478151158592685
0,48356002339317
0,561294599318059
0,460538414936192
0,478252805991024
0,464500322292822
0,478432040739412
0,463270359267319
0,479028948090067
0,505881301598095
0,468491042432844
0,463312148243305
0,461287672638493
0,456516764477296
0,487150056033376
0,453805796107362
0,461014953031998
0,454250949352556
0,46095951444235
0,515603150546412
0,443536894059524
0,590537074934775
0,467643831680171
0,461525163576826
0,448147126661676
0,483436209599796
0,447045026604253
0,456680992394243
0,453208234699515
0,438546110280278
0,485605348069026
0,440201550058535
0,454223632579048
0,433522696254061
0,444467389115974
0,48574864464663
0,464527068234438
0,44642804687707
0,489243758899117
0,436388161392968
0,455519485961132
0,484567324651903
0,465350341824209
0,421590322463799
0,416530876757434
0,424629442425714
0,408126820772335
0,426050057044274
0,436626688437149
0,401724605368762
0,428049426140043
0,384773628579384
0,405986746767622
0,38882527127173
0,41405445560545
0,375380375792212
0,41479468578887
0,385388540814745
0,370159281108061
0,406005925941099
0,382083555064496
0,427105107471991
0,378860180296122
0,367587722358958
0,357678490922366
0,415847198441607
0,356841607808087
0,370014001429944
0,365216782523543
0,341165263591714
0,364107491698985
0,350663686397817
0,330759879364923
0,358060927431519
0,333223551417079
0,368715865812892
0,345958290394567
0,386160033398599
0,346516903103762
0,307813724989786
0,312714056692257
0,310007479182399
0,312841931412955
0,314688420025888
0,302261805080892
0,364946814238137
0,288043544825378
0,33836603435147
0,32282412695429
0,311198994225203
0,31093108832882
0,309350788766764
0,304749928180931
0,316309918284543
0,315597305528749
0,354413805227996
0,309846988102349
0,34630995188668
0,317954614346206
0,326052744541595
0,319599043691185
0,327305085112658
0,328930828931204
0,335460783875017
0,352391497757035
0,341545026850862
0,349607492326079
0,360976589641842
0,347058760787603
0,399765246705874
0,364904368530774
0,38039689525124
0,418786330655098
0,38231788760221
0,456025321881816
0,390203921837266
0,427930061130898
0,415461788851501
0,428904249573361
0,434930180859696
0,42964070275114
0,467210070505088
0,449819042289328
0,451934864958453
0,4614744540998
0,454050644774069
0,466264370817572
0,463244553634464
0,507295717269767
0,468320918838475
0,568241843241993
0,475919576132133
0,507977600046958
0,483328275931531
0,49528213398998
0,501214199274969
0,495205490652597
0,503199663346593
0,492643389950356
0,507130776198739
0,526910072058633
0,502401106153382
0,525502804186828
0,506269779629561
0,515040956501939
0,510339527063662
0,518317202549384
0,519792357436939
0,520924992279807
0,532884950852723
0,523451989449158
0,535889088429592
0,592029321805038
0,52745580143516
0,559315136275269
0,534522447336806
0,559096084804835
0,544892319570742
0,56037700640164
0,566797790758486
0,55756508223065
0,561910215401516
0,579385729472907
0,567590608869378
0,575112491941053
0,581596238721893
0,599415481884535
0,580618382942676
0,604389885283968
0,570288696361811
0,652362802324361
0,596293700560708
0,618353036177793
0,606200480910069
0,61809015330701
0,609597670423369
0,611613244945957
0,615907135177876
0,617444386879993
0,611086539598608
0,622037424350075
0,6239884020832
0,62484309822484
0,627049477461621
0,618937194664941
0,627573750156892
0,641840050134942
0,619397784860102
0,635689529340748
0,618475753519476
0,627068016628544
0,610495824428304
0,657643894523065
0,61175424865037
0,630825970763025
0,614835811540546
0,641861984353777
0,633068625726399
0,646269874347795
0,612663273857583
0,62881320075092
0,619227095093017
0,643367223856402
0,617370483763541
0,649269861591287
0,640074731694366
0,629639356460515
0,623374860388222
0,631630936680924
0,634082235064073
0,641275261959109
0,637411926414172
0,638183706000461
0,63621221836127
0,638574996969455
0,641319870891306
0,637049767948702
0,651102749401013
0,654571352293437
0,660089982721104
0,647329095728204
0,642736607801052
0,640847482352035
0,63350336308198
0,645803886755364
0,63645748555821
0,638632918519575
0,628525292607918
0,626437211138291
0,618234604525364
0,626748570981237
0,644414201754176
0,612119466897668
0,615673907633838
0,59801573596698
0,604033468606355
0,59324516113906
0,597642736757041
0,586448804128207
0,58079722982511
0,592750052760549
0,577165026711679
0,57724036801273
0,570630144262159
0,572092694681187
0,573525678848712
0,569632648339032
0,569751468801052
0,56506998747922
0,57147810402049
0,575928511823928
0,565793969035924
0,562212593600046
0,563731743630672
0,559322320526335
0,578047639654479
0,570639874656109
0,58171352613938
0,564777491255881
0,570945402575691
0,561706968951107
0,552239318793534
0,560305012578989
0,561616032173325
0,561655523802864
0,562403061935366
0,561906755951637
0,553548170703593
0,567807432541695
0,555421511480265
0,560761698715368
0,558971395999502
0,563749532202273
0,559019757446347
0,560197538242237
0,554968474118942
0,558468902243766
0,549581755687881
0,564644412427145
0,550412080080039
0,563755065696306
0,553108205308534
0,555399994730831
0,556162406829599
0,554707442800498
0,564004479079516
0,556661954703905
0,555981419455397
0,553349696797254
0,556646466494279
0,563565008301365
0,557428640230698
0,55615387448029
0,547270542387693
0,546067915077214
0,543823377691203
0,548084991083204
0,542461063492378
0,540963780003826
0,540351745414605
0,535711134912631
0,523926461932105
0,527159441089986
0,523070975085913
0,523038334909514
0,50952067562598
0,515814624051204
0,505636643221841
0,504850681594246
0,500263420206489
0,50657484369998
0,494690575669039
0,494459499244747
0,487772806235822
0,49349032141363
0,491692298276512
0,497373017605605
0,491663828472345
0,491545358484546
0,491500503420508
0,491972314663884
0,487327400919724
0,489661071115277
0,491338176738995
0,49398472712578
0,490859468251231
0,495725062232061
0,489083484028067
0,493887352057788
0,489798009987576
0,497428547744196
0,501383080475946
0,504325438085605
0,501472583891843
0,502340662771551
0,508138048103634
0,504390808593508
0,510383148521362
0,513809086979089
0,510078151652462
0,508692805314373
0,519764797199635
0,51424991572331
0,517249954264402
0,516502983876996
0,515296233299163
0,513613102713667
0,515881380910943
0,514817531625546
0,516610817312681
0,514319858479289
0,512710190069013
0,512895387553859
0,507062944078881
0,507162179925786
0,506946088119179
0,505292509560558
0,504521252160329
0,5046762632667
0,499689517021244
0,49763781671669
0,497155320419779
0,500045897758473
0,494768493007862
0,491406219492688
0,491939551708607
0,494692055623424
0,489588835923537
0,48888075100021
0,490153477596928
0,484272951931915
0,481016906745274
0,484022184101256
0,480752572300414
0,479583171461856
0,478239509418274
0,475068435671838
0,474218568086408
0,475076162779904
0,469422457571019
0,46871818012881
0,468852783486177
0,466141871835969
0,468003544835663
0,462611502633952
0,456791987586651
0,458238502971918
0,454809523810594
0,452352867882017
0,448804011593362
0,444669174177629
0,442956443102713
0,439402801822058
0,435261607583787
0,430749421310195
0,427738953642305
0,425057960795562
0,421681861896986
0,423011710029919
0,416170249897291
0,418323376474952
0,414027549768356
0,414391890352418
0,413209811779945
0,411809617325704
0,410750933597911
0,41160828458849
0,408501484276548
0,407428234831712
0,403661663574654
0,399993351856367
0,397070029848205
0,392435837608804
0,384845696646265
0,384370544668222
0,382807178570157
0,372199676906871
0,368834340214822
0,365825360788494
0,362669117890027
0,361958753698084
0,360343387595727
0,361463732356244
0,362632066625128
0,365300761650951
0,368417157154713
0,375301931947507
0,383781771885399
0,394913324308757
0,402593922143798
0,414747603273546
0,4256423471036
0,439120155317067
0,455847805364401
0,470830890414608
0,485015911635829
0,503227347393121
0,515632430897126
0,531928853029465
0,550583678655906
0,562795299665061
0,582545710213306
0,600346477255763
0,615705201193048
0,629632748699336
0,648540837887875
0,660221820427327
0,66693080064889
0,681468449504133
0,698566651115778
0,706325520132658
0,714997372711132
0,730041141761731
0,730779442236486
0,739887052969074
0,754881356831819
0,757411836356067
0,759520364090672
0,768530359552865
0,767574119198021
0,775030816116405
0,776663862179009
0,774461772762953
0,778126866685318
0,779476773174951
0,774405098113186
0,777886714416711
0,780778481693437
0,787008534697103
0,781842404017043
0,783817505138879
0,788297325391251
0,787278445213226
0,79442009607432
0,79531609239583
0,804065602651349
0,801805517576211
0,808972189046637
0,82041919925078
0,825714236824363
0,826629156477844
0,839690831359723
0,839775334884962
0,853484113804193
0,867540481009769
0,876199360686973
0,881720728762856
0,888825614958165
0,903675995532003
0,923241617152626
0,932082387303869
0,942445233645457
0,960010991919639
0,954101590492572
0,967523480155639
0,981624740550379
0,975651575629898
0,983828866915708
0,98168316303887
0,978443385642503
0,977739801241215
0,974682646960832
0,972818372817538
0,976217203117586
0,975669710291971
0,969938447640199
0,962548301877325
0,978892468734766
0,973471678773886
0,976860627843869
0,984553313505841
0,990498297557401
1,01059537167387
1,01443529140169
1,02897204140159
1,03463729554265
1,06203506316715
1,0924465357036
1,10246534866704
1,11556851858268
1,13451674215175
1,14463076202183
1,15096482346753
1,16623259444666
1,1815217859507
1,19942325320328
1,20492536007082
1,24831209838196
1,25683298828131
1,25996564923722
1,29627794848968
1,30978548867655
1,33986353080116
1,37672798268304
1,37054291866231
1,4032157611088
1,4070019849198
1,45575150687074
1,46190905928488
1,47631305556264
1,47988115223097
1,53306486723999
1,56465786019196
1,57406902028634
1,56958848145286
1,58737419895589
1,59217952108173
1,59501762926909
1,60548424997589
1,61399627795667
1,56480462435101
1,55579731443212
1,59925621073377
1,56639432036644
1,58782364525106
1,56957980936714
1,56533055425841
1,53395282581877
1,58708039565537
1,63572213652144
1,60780915960015
1,58696679268814
1,55535985213811
1,64021957159714
1,61186888218707
1,59986395124685
1,59408501718152
1,65204154151511
1,65210601565711
1,68230119250108
1,67453667125848
1,66643803171398
1,69023161698713
1,7920835615218
1,80380401503297
1,81604458653455
1,77394071391728
1,73117878060932
1,70437324932409
1,80671166555865
1,78083335362758
1,83115371455487
1,79152139410918
1,8573747362094
1,84375211007075
1,83490794607489
1,89256858540929
1,85202820275849
1,86277905383387
1,96378552670996
1,90721168324879
1,94991282637671
1,93729428801974
2,0207906775222
2,02175129396247
2,02563911299768
1,90675219679111
1,90252114038054
1,84738613003319
2,0426795307694
2,00021872103663
1,92416862898648
1,85528964212416
2,01877207841563
1,94745812594031
2,04453337910685
1,87862982791107
1,84873936650394
1,84765180722045
1,70720256681453
1,72133604154898
1,6551009717511
1,65667575617259
1,66612231306052
1,56861201429619
1,53596115588309
1,4713615416314
1,44286283474393
1,39304428861506
1,43273698109744
1,47447618786664
1,41783286390676
1,37166226591
1,40109776813455
1,40165638512877
1,37991470422623
1,34117776685846
1,32249148090635
1,35281670535212
1,37897390536286
1,28130255206786
1,33054987130069
1,3388538568177
1,31471415352424
1,28851290723175
1,26007160527169
1,25409630442339
1,25887340440983
1,20916349260973
1,22230143696286
1,18439225057434
1,16470754739866
1,10804379767503
1,08352592504778
1,07378082309122
1,05625025939179
1,01000920114088
0,986061285161008
0,94547770208026
0,911832997849929
0,885244058628477
0,858845330177565
0,824032825581538
0,801601651070084
0,773848108065391
0,745839445250523
0,726358477985389
0,702084688921669
0,678196731078966
0,670375234471105
0,641060920760496
0,632274021401966
0,610445781840356
0,597283885945326
0,589801981691347
0,588238638663336
0,577769313014168
0,570990728054606
0,568086585018213
0,561772810322774
0,556476754979897
0,553288948800543
0,553618253109331
0,558208243287722
0,558338877907866
0,560586656232286
0,553630926246143
0,549082424572786
0,551625092489284
0,557791219074256
0,554544554438982
0,547083631599827
0,543483275962772
0,535215425832819
0,53341991611248
0,54505803009339
0,530899423547337
0,524369088342278
0,525012895586533
0,522056146703549
0,523454212393723
0,515747086313007
0,507924596489775
0,512614854337971
0,513065800637531
0,516227599842062
0,511772346732623
0,518213504732602
0,516207525598654
0,520076998744566
0,521609669877061
0,527211725694391
0,52435169659409
0,526612743875079
0,526574190492727
0,53044975601614
0,53326079053949
0,536154993314765
0,536522549868493
0,538039364953959
0,547953763422196
0,543109907649857
0,534493821975867
0,542128896297685
0,540744753759703
0,540610428750416
0,533779072742734
0,541617994242388
0,548631946154918
0,5454363916279
0,54473259043765
0,552364279527644
0,555863277352074
0,56162459344634
0,55625914815243
0,574585686255592
0,581313923737714
0,592555793778318
0,613747548467184
0,624464031701254
0,631609541960304
0,647620114293831
0,6596478972965
0,668874656450576
0,682391191220908
0,682087256325076
0,682943176272735
0,690525642984602
0,689699160762628
0,681910785219453
0,681478006393331
0,670950395180479
0,656461733503285
0,653451550793774
0,644398031506906
0,630587355253543
0,621183661613525
0,629916182386132
0,631828066037399
0,62947889461622
0,630864961582961
0,627456811940576
0,630501963390415
0,629798120840614
0,624494995150782
0,636941082336796
0,627396769990412
0,628970861482285
0,626965358325674
0,626564547942595
0,620951152752777
0,61928115873865
0,609741733391785
0,610913878509687
0,610013145766004
0,59996794634117
0,591674476137097
0,597375449747044
0,590211012016944
0,583788460557564
0,588048018022623
0,596989815487151
0,586062082279389
0,57867256228944
0,572569215955885
0,577267367826319
0,574399442906243
0,56729385737749
0,562253947736518
0,579320352489208
0,592459411502713
0,580724639643544
0,557178463679802
0,564134078240095
0,568804128716214
0,557383671709557
0,550164439976697
0,562508738748233
0,558504636875248
0,555908301134841
0,564753288986427
0,551271230401971
0,54819134919824
0,550710090132895
0,545458441171036
0,55166980106894
0,542450576497616
0,533616732085973
0,530457465058035
0,538094449835236
0,540945950364036
0,531281249838705
0,535658387067839
0,520796579346108
0,530667688264357
0,538710320234061
0,514999309453398
0,519443038439491
0,517983070322782
0,533399978375599
0,548534347441086
0,547751930274808
0,53007276392188
0,524659307610452
0,531967174367522
0,535316410583818
0,531863381750554
0,542470639440336
0,553083660195381
0,554829121284501
0,541906579976222
0,552157401459583
0,552788274445798
0,567767352114914
0,564610142954012
0,562409278498191
0,566585547228968
0,575288448625802
0,576333374927071
0,573633323233733
0,567512491210369
0,573987187729206
0,581865048586981
0,592547184843184
0,605777415806445
0,630211132926334
0,618634905153842
0,638406209464222
0,659389823979819
0,671497359552873
0,668448884769731
0,695266655135619
0,686330104271744
0,696626633066199
0,721385387480437
0,750164650247596
0,772949578805517
0,781206222085509
0,776557691317896
0,802901411905967
0,823701104891587
0,825464581642546
0,813711693858295
0,802382811559772
0,84535127216876
0,851429149208441
0,853258360616161
0,875983221160509
0,815487846233605
0,838740840807117
0,853542717659105
0,823586377882317
0,811144838587235
0,813978911596827
0,808220824035448
0,811398433414217
0,789263635606514
0,829551965737397
0,883702524946849
0,825045122736598
0,801217126158524
0,843396982214964
0,83655882019252
0,837562616504436
0,816813313034207
0,842091457296038
0,870942288430981
0,813465930370612
0,748858621291816
0,779963619358167
0,797583669087262
0,767984861508584
0,827640391316444
0,850033135831424
0,803177594400126
0,766645291443104
0,750080821038541
0,782254154353045
0,77555598200501
0,743591305927831
0,745633120735579
0,773477258010399
0,773284922466732
0,854677125827487
0,873038985133824
0,839462037381813
0,807075335800585
0,757862118446509
0,74758395624959
0,752655594948148
0,752152973721907
0,762249395448361
0,801617123557293
0,830905278790825
0,817065102444706
0,731495265122917
0,785798965907858
0,808482793167368
0,764681660973586
0,80877013441495
0,786536842601179
0,806264901535391
0,792459383518362
0,9031680013143
0,932860667869455
0,780119294466836
0,777515764358962
0,860557378307681
0,825359707203481
0,868593787038962
1,02511194627554
1,03414602319153
0,885078965300611
0,849179255359532
0,913582178761684
0,817066901688236
0,895687131150821
0,950208168348253
0,95130288118649
0,920578135967789
0,887785551293665
0,957022142461203
1,00828598047249
0,997402877728229
1,05993240052995
1,35882329806468
1,09931792386247
0,848699617070935
0,934740558444124
0,983945659392083
0,97490636938479
1,00424667822817
1,43098586280947
1,28351157248958
1,08344109092482
1,02007468130804
0,954136601563111
1,02434926384753
1,16388570553782
1,04670556499678
1,13279811551704
1,04874753529206
1,24908938190203
1,17723999444374
1,07729901447747
0,85531567574281
0,975885222348452
1,42107199024844
1,0903603826029
0,793369174789631
1,07233100060943
1,16585427999706
1,16890795789949
0,825726059603004
0,919206384165718
1,53503879486875
1,1187013144164
1,4045118295195
1,06922076042944
0,719277560497671
0,911954877000892
1,09862923672354
1,23663380704597
0,906931709138137
1,02322349616195
5
5
5
5
1,18893023418814
2,227701864742
0,868909170053328
0,710132985291667
0,852995740590946
0,889777777760641
0,849422069685425
5
5
1,38157761472523
5
5
0,606837146186564
0,874129062497676
5
5
2,02129533300583
5
