3596
4000,36533379555
650,420452594757
1
2
2
0,0212397375110851
0,0224559544505803
0,0184502016073439
0,022588059635813
0,0195515827099389
0,0156040254463987
0,0204830711202006
0,020232748101589
0,0212732028267312
0,0117689835288892
0,0156814699572814
0,022930755390038
0,0228092026946802
0,0270023748030572
0,0239161528755722
0,0161034362138967
0,012257442549364
0,0224760181583428
0,0233088054196392
0,0269822468318359
0,0181364745722365
0,0195307323354333
0,0166568179878242
0,0246989463418129
0,0157016876813433
0,0169215697583428
0,0195435368298902
0,00937613372350504
0,0121676788097658
0,0268183735361436
0,0179056009744144
0,0190031158207167
0,0238002593121757
0,0235460449487129
0,0175581851473339
0,0213196604245411
0,0234636211830659
0,0185818186102114
0,022077122507908
0,0265018531904867
0,0136863859767334
0,019776336851716
0,0212884089587644
0,028440006428599
0,0302383919521424
0,0128609694388892
0,0160417416387437
0,0285980250026971
0,018390034635142
0,0174393231595374
0,0156108999043955
0,0183909792699271
0,0270088123151442
0,0238500747792832
0,0290920803809992
0,0139528059948577
0,01484908078831
0,0259423693642246
0,0204054889678228
0,0212957012151148
0,0263163439951632
0,00299314484731822
0,0230805437915921
0,0152492304576199
0,0250950285379691
0,0155473930563532
0,0221294342333141
0,0171509625885806
0,0244691002186839
0,0210537613225439
0,0241326525809569
0,0329274828424016
0,0104406829721562
0,0287653567837415
0,0156179606675781
0,020253233332137
0,0120274502820277
0,0152802922262167
0,0164080430159845
0,0298968479589656
0,0143842033464161
0,022738431524259
0,0189549754820774
0,0261137174889436
0,0357710965353904
0,0204282393073512
0,0033979208541541
0,033781135543856
0,00510018122224884
0,0132305363196994
0,0183296533374498
0,0236240569046351
0,0102868345023692
0,0247585397998179
0,0100810710288087
0,0219903975143426
0,00533985395287467
0,0235999380576959
0,00417561700403875
0,03860160770036
-0,0043199917446553
0,0568226552170772
-0,0177053665611057
0,018622869181871
0,0272537450698671
0,0129596348917768
0,0462965944497912
0,0105185551761407
0,0204258521427485
0,0187059520609023
0,0208922548195316
0,0141773584594747
0,014052253451615
0,0189933767536503
0,0224229970271018
0,0562198161908022
0,00400134405180105
0,0150362553337704
0,0145079928085392
0,0218215683521981
0,00804849853100646
0,0510057566934011
-0,00466066537119849
0,026283646933477
0,0152160126923742
0,0175729961039967
0,019712124077851
0,0317845829578235
-0,0148037242795875
0,0275483708471184
0,0036871961884506
0,0237076206859914
0,00262887595690306
0,0371197531553438
-0,00564166300044917
0,0142297484460019
0,0198518671437227
0,0232593952404609
0,0307768406974414
0,0119375942508689
0,0105122992710045
0,0221546849695383
0,00461372370028079
0,0448769203789767
0,00820616521848242
0,0137862153400561
0,0100974629059183
0,0244503019376155
0,00434702337330585
0,0245901895263944
0,0017194612571817
0,035297659571286
0,0181455208267535
0,0191142923614019
0,0314986299026232
0,0979846056294261
-0,0461222886244492
0,0865686556796213
-0,0113995173713765
0,010357010112276
0,0170508499266943
0,0118755761359058
0,016589807319515
0,00887923192670862
0,0147744558096403
0,0207913089655223
0,025479652600699
0,00340117006773076
0,0203317136185304
0,0324579736344734
0,027676146068252
0,0132920242801828
0,0243367334466299
0,0321450286056899
-0,0096726768489753
0,0376954815216055
0,00695450782061461
0,017293439299857
0,00540750047905857
0,0318937507848398
0,00119549192708377
0,0232782954738378
0,0146796796349729
0,0198607618456017
0,0176129584169592
0,0287913825264417
0,00142136651749956
0,0264376550949662
0,0080094319825993
0,0254534465131757
0,0240285222580325
0,0452330718129067
0,00940478409122647
0,0215569160037374
0,00431465475834024
0,0304050604180922
0,0396386725838918
-0,00220568825261041
0,01582480089193
0,0168450413904359
0,0136538223047936
0,0212691605178687
0,00682948726123198
0,0237000079166817
0,00637072381423751
0,0322014044046523
0,0197043638995133
0,00212076839027787
0,019372051984485
0,0180903475984303
0,0230404959294917
0,0247933851808319
0,0325445846130122
0,00697323390866821
0,0178769902824853
0,0173336863365806
0,0290470829291925
0,0356474769344719
-0,00547641298497495
0,0145166217390173
0,0115864110151835
0,015112072063322
0,0122346174247726
0,0182485308554938
0,0179621973993814
0,0119360312402727
0,0114039065113066
0,0184000374950685
0,00467970235097977
0,0189129066562919
0,0187589418361384
0,0133042222514674
0,0132980435466728
0,0157837333807143
0,0097744771036711
0,0330282840660551
-0,00932322654808354
0,0261730688655459
0,00864907654195039
0,0163451237089863
0,0111675608628092
0,0243312283744525
0,0134093117555897
0,0200730799851795
0,00611376852853454
0,0282874045814574
0,0219772458631966
0,00585566473217063
0,0290214938586595
0,0149394221308681
0,0367179459106978
0,00406681568760154
0,0297296937516641
0,00396746544436712
0,0277514467639786
0,00645540926457053
0,0274814983078174
0,0153726960279755
0,0092659176969081
0,0163839882332269
0,0256017490605845
0,00551587599188739
0,0258542986846886
0,0214705581267659
0,0382223114057581
0,0167220048613466
0,000616563853851642
0,0409985815524862
0,00607696728823078
0,0036421935418373
0,0225278598619917
0,018644932670573
0,0502068749860716
0,0482048093278814
-0,00738142839178342
0,00895321888374857
0,0274197256049848
0,0303881273354566
0,00984340619678126
0,0338897856718841
0,00508443766846797
0,0415014200496152
0,0113191329615304
0,0423311483182453
0,00771107649357904
0,0155731129393555
0,0458252549876789
0,000295114475917744
0,0288346289123303
0,0117959887472257
0,0208413514408148
0,0134772840169663
0,0281511420052227
0,0127117325187131
0,0317731044928236
0,00802333271297419
0,0275063242282584
0,024693695498766
0,0118449177430478
0,02288482281467
0,028854993459111
0,0132777992955414
0,0194498221121642
0,0267435390411126
0,0157376093959612
0,0257392020281355
0,0095580172019825
0,0390536911201128
0,0280109640662037
0,020365122279625
0,0371043474546387
0,0276717091154892
0,015984430985293
0,0176381864724109
0,0215071966169471
0,0236492523307817
0,0228740234888074
0,0236422292227386
0,0212367697428279
0,0392078989256584
0,00574382170377864
0,0281679817720151
0,0164889452152403
0,0273342670135304
0,0192771282757528
0,0278628794858236
0,0195222848074355
0,0242702185648915
0,0220356271499666
0,022094665660741
0,0352749824704151
0,0313976391627089
0,0172925093892054
0,0648547242811952
-0,00264695843872789
0,0285980198414812
0,0153341382302167
0,0323381672776634
0,0198370459263525
0,0241855446566845
0,0315812204065851
0,0363919252637688
0,0326901756130857
0,0286787671596968
0,0248981901846149
0,0524095223591409
0,0461945119014595
0,0413426644597803
0,030473221308845
0,0283706722231035
0,0285856087299957
0,0284543535673304
0,0683694645836871
0,0112578835484904
0,0445196412469022
0,0321323026997286
0,022134779785024
0,0408270164335584
0,027066968776811
0,0465266991717114
0,0298446871590368
0,0484609073003993
0,0280580013552669
0,0474340826923952
0,0277110516469507
0,0555164981674257
0,0376538230652564
0,0673386453713924
0,0364856168962416
0,041450301019423
0,0482933072281671
0,0566488120010455
0,0440859401800729
0,0861900871113267
0,0168699659040444
0,0987366819732416
0,0376273781597919
0,084784275275991
0,0475407448081014
0,0447817149660047
0,0530975332595603
0,0573651881787768
0,0612670324077293
0,0533325856376949
0,0531446172950959
0,0664190058876136
0,0599676311184903
0,0668324279815204
0,0584742239879184
0,0759702173999581
0,0705343419185731
0,0755574093719471
0,0774139406954468
0,0670931715666665
0,0829781472069121
0,078387406765306
0,107912603222259
0,0833296898013297
0,0669778316069154
0,0665304399597842
0,0958558589216031
0,0722844515191174
0,0843924370767777
0,0890567428633105
0,0847527293911337
0,103667576962368
0,102488833564512
0,123741828620622
0,0962460212218991
0,107733471983712
0,0900764301780117
0,103508711994786
0,105237930768043
0,0921017670659164
0,115379987194051
0,107690745738963
0,108928308648112
0,112948058114416
0,125990266768096
0,0911567224967575
0,116699479776961
0,120359005966808
0,0942809163006034
0,126558596057718
0,11342320579508
0,136209922348976
0,114901305169943
0,154446331234291
0,125004048245379
0,132041648454731
0,123669714835263
0,149238596298678
0,133885435337236
0,155651221234414
0,12478062684484
0,15264500803325
0,149105993145234
0,146825161033017
0,160393587494105
0,144709930874675
0,187545163767288
0,165292423550665
0,169935216619497
0,164994775186647
0,150651114853686
0,172510763225852
0,163154813707461
0,176027252200992
0,175329126882066
0,188924725843095
0,165093147723971
0,173102885418338
0,178198070688226
0,194956194241397
0,180044735215299
0,203689929451186
0,179480806265813
0,196543868092957
0,187843734251818
0,189310725631069
0,199731051099786
0,21528520111528
0,229870321658412
0,225842417539791
0,203953142525903
0,222393136575215
0,19129031842629
0,23386231133041
0,217839405345712
0,237166481199299
0,21537750426061
0,241577677023053
0,223733285233561
0,248877160400393
0,240139895577871
0,267091518436241
0,234705145583185
0,256728729054892
0,242371534443956
0,26913030021537
0,235099695841739
0,273588268869683
0,258221765125594
0,2827788440583
0,269860960499415
0,28875580072126
0,265469052453382
0,300884665202543
0,262327168221226
0,289798784437128
0,273706708112832
0,290473829195718
0,279791199613246
0,314006376347656
0,30182750133824
0,318259925437388
0,293111133615154
0,331357331705016
0,310671125777262
0,338633561523595
0,32769099546433
0,328045995308219
0,313678157971902
0,344126255221174
0,32019800586578
0,349223734153411
0,35577391027751
0,359195456725126
0,350562157025132
0,373633676494004
0,332167351763779
0,381678873571695
0,343084272474754
0,372159053522097
0,360859344689403
0,386627858655882
0,341781840336513
0,393381809475707
0,365752008061603
0,402400505476872
0,381632796765296
0,399116836859068
0,388624097000633
0,417571380516464
0,386937153074284
0,432872139770642
0,40305649333478
0,424646435678919
0,403458156196877
0,424126435915633
0,40732479930625
0,446353125349249
0,399579893388162
0,437805230737351
0,40843689349319
0,46839014445079
0,425666432535274
0,450303467014005
0,465727208366951
0,462382552413114
0,440099195468618
0,479045723425518
0,452405325372411
0,465639078156521
0,485960581290363
0,483800578600756
0,477822707253641
0,498095755596739
0,480177095226943
0,477230658321869
0,479772121697919
0,499601746724992
0,49926652796888
0,515213869027247
0,480942102185275
0,508848092363988
0,513554363169034
0,546317002813185
0,501790462969934
0,549322421464885
0,538708940986476
0,567636344560166
0,514579690007283
0,566543109175584
0,541812939481829
0,565063582987254
0,539906329814049
0,569262379037601
0,532777277428461
0,583799467425203
0,571348786826436
0,597008619702758
0,579953176688311
0,629468481230818
0,583610597327707
0,571188792276503
0,582248644543284
0,590684900337323
0,575393845172858
0,608598027203062
0,584631249180514
0,618373639145481
0,591755143507872
0,637922789943802
0,606859739592207
0,660189111946032
0,606988098937996
0,622805365448742
0,617533751015584
0,645610767212413
0,641898993340679
0,662593691263061
0,606959137371574
0,648411296228546
0,616575183839499
0,643768400953741
0,648413317331422
0,690568055165168
0,660965757734922
0,698028847792243
0,630766095319985
0,652979027725387
0,624161572383266
0,675990994014889
0,664685555078395
0,684752020872489
0,676658370403801
0,720354233883565
0,671129356752075
0,706378589275887
0,670292151251789
0,752270634466713
0,708577115193082
0,715319999917829
0,717832481603587
0,721066467294504
0,705376471798408
0,736603327274904
0,684368231287902
0,75429725771489
0,69719579896825
0,749660678256018
0,733926679774673
0,742963770331253
0,730782576575902
0,749267654598293
0,711425365272612
0,736187184999593
0,749081647275129
0,744149779343418
0,751737630060923
0,794793481248666
0,74546000450529
0,773915965786856
0,777234195837551
0,775225201407807
0,772906008275955
0,807892765767734
0,772158418643441
0,803844224494194
0,751719345623155
0,785444971340822
0,741442573654577
0,794628166145939
0,764828761552313
0,839047285148929
0,796727793554728
0,797325564216844
0,788353560678096
0,81975080093742
0,764298616500966
0,798006189041719
0,791153912125714
0,849919212675958
0,808948247126891
0,861582394534845
0,814560353489385
0,845067753933797
0,829814300958956
0,868995383715782
0,803273377872404
0,825715834733945
0,793428391383141
0,834689672199311
0,805119474991337
0,850086189798552
0,829807668908243
0,832447036226359
0,788828701956627
0,853958946109895
0,851616495360537
0,846928948054176
0,82095883910954
0,849040836893285
0,814874761419725
0,849034366966192
0,85008785633071
0,889963934320453
0,824333704593436
0,860379291309505
0,866098439399843
0,894863166797609
0,863821309464371
0,86854971516169
0,8342889708307
0,876247191920143
0,85923409266925
0,896690000220558
0,870466801313877
0,911099007429822
0,873801814271421
0,908843865578898
0,860080669269727
0,853592148625515
0,845203354366047
0,895973202893518
0,922352557089673
0,87300781277601
0,884332613878733
0,920792946537025
0,891118279496222
0,911374079235975
0,885870493089105
0,852106698239434
0,857160897839799
0,966097680465894
0,883809890763981
0,893531445418596
0,879924004969062
0,919740693063032
0,893770158692221
0,918015588358783
0,894652464728945
0,922879860009477
0,888989379610333
0,926774341432844
0,901493352892101
0,930373089274601
0,879196534548643
0,925449352448452
0,880337993810365
0,90141839034033
0,855610132131614
0,870991491323664
0,905754975042286
0,89905057032029
0,862068206415842
0,896209861922402
0,881805792008262
0,917611730199724
0,892484533259649
0,89997909595709
0,897643523876381
0,926578042223915
0,87071327465842
0,903415571287644
0,90526585953
0,897357483364785
0,910295195857207
0,900401241369177
0,863647228414352
0,94181050971284
0,902927873446612
0,881442677608023
0,874339429227585
0,901293477346905
0,871952377727894
0,898570966623036
0,90350550306506
0,896423348414577
0,907427031795349
0,925231306436888
0,886784022052912
0,926785232026691
0,893529317771876
0,900689278508741
0,893262658245583
0,954254751610859
0,893880476833039
0,893905307966778
0,912727706171907
0,93129579259327
0,888452580950033
0,902512233454023
0,897014766386214
0,916516679082997
0,885108935558905
0,901770106616233
0,915808251634512
0,909261729396904
0,875409108376054
0,905736858925864
0,915414551751461
0,901572783544062
0,886504449956076
0,892985310492545
0,870483698425177
0,901642462623835
0,893840766262279
0,877724812108148
0,866085858904221
0,873969876172385
0,893450773554397
0,883158368359876
0,849153513177273
0,865878619577223
0,849615387183568
0,905154179527206
0,908310244852219
0,895190713113201
0,876205077189349
0,858365960625554
0,863733165215267
0,887005495948528
0,845888864695098
0,851586035830077
0,859954198483752
0,870606380828945
0,854604286411658
0,852559140840997
0,888395460673468
0,896445530537128
0,841953551923315
0,859044621477144
0,851568521466026
0,8289154802702
0,834722665713902
0,865809342948519
0,831781579531296
0,85285071468429
0,845227466398985
0,851339008973722
0,817749330309576
0,81739477504179
0,807399932507969
0,827834467188283
0,833994255495168
0,815145987447578
0,826978328185275
0,827774725445939
0,810075966056654
0,823026884040077
0,841472018014384
0,846566581138138
0,81100963084604
0,829696801725392
0,813011910046694
0,825899775286007
0,796338212264971
0,806049196958983
0,818125374058492
0,796510816675408
0,794587366048736
0,80192803010444
0,796620203513004
0,830041248113285
0,768696404638489
0,778309021031285
0,785145494778333
0,774545622735246
0,771770093761562
0,776495860160839
0,770492087968479
0,786675847879668
0,774686643624403
0,752071291121445
0,759513789686288
0,785217410582546
0,754185416043104
0,750053033927141
0,763603496957704
0,767518465997696
0,739110397827276
0,755545156479687
0,739359400417276
0,726282285439147
0,728162320615716
0,748235615797826
0,735186850553022
0,739350121847618
0,743937442548846
0,728280792165717
0,707052976150261
0,723193429818733
0,711956521297298
0,719791424774386
0,708018660310496
0,727583461904373
0,710290782191738
0,69374790175752
0,704104267312768
0,709776632380152
0,706745753136237
0,721777909895008
0,69066394610241
0,687838507973394
0,684018639541303
0,695483165767066
0,677902937198888
0,685095811628897
0,68941814771307
0,686380270781411
0,672627912835987
0,654085388310089
0,650311266419314
0,655454332280743
0,649661537421652
0,659770428652261
0,653244997885391
0,656519528797172
0,660623943225173
0,650333168048521
0,645927214223818
0,637971089133717
0,630130553864384
0,653816510342417
0,6283523776908
0,619970701190053
0,617022473831717
0,625453874501969
0,624594555035088
0,619980669358722
0,612251286251341
0,6173395263376
0,612050224523738
0,614368605502747
0,597184978593168
0,601138897303891
0,608525604140279
0,601133296611059
0,593549663848152
0,589534722027919
0,586283749999099
0,596994634094036
0,576658061654772
0,57979480784248
0,583241298417113
0,562740883019355
0,565044343542046
0,581206913648166
0,564225980187941
0,554618232927535
0,552480588177579
0,56620196107362
0,563345994418285
0,555650871209748
0,550232404121795
0,559696358050024
0,546649589957486
0,549078490360656
0,548244784045408
0,543818628828576
0,527566568098286
0,529685406928947
0,523779420334459
0,524423919537439
0,523545076206345
0,522265122368191
0,51503785003184
0,518837191509856
0,520168359545589
0,514557430717404
0,501542878513005
0,498431637976471
0,504539766816908
0,509908048871657
0,508852487629966
0,504597080684528
0,496422931611794
0,498917516742705
0,491047789571111
0,491439082236343
0,482241967912594
0,490576191365307
0,483425212530765
0,486139091461918
0,48579874075878
0,474289995192946
0,471398706993364
0,48010392351035
0,460002525271168
0,455206017875719
0,459904975125189
0,468689891810584
0,470764125124874
0,462490404277328
0,450490629478191
0,449603523541299
0,453835632904695
0,451962212366002
0,45159001693432
0,444803317616948
0,436412421875726
0,44364017782731
0,438982481721826
0,441785027186406
0,434183516434582
0,435991255444015
0,428442960071738
0,431888455485835
0,42175589379759
0,428556043984401
0,421228799329719
0,420072853232158
0,423075259025551
0,417445202054861
0,407205834984648
0,410861290175775
0,415372083829732
0,417112390288833
0,412977225042825
0,407273986674381
0,400450168728677
0,402177968363374
0,398736334282265
0,392973480781579
0,390847744889451
0,397824264847867
0,384799137932836
0,388837726600684
0,38485358902064
0,384533698350654
0,38709445106536
0,388809752797104
0,38639387230337
0,381344476469347
0,381047272598884
0,379072203572303
0,369196767439141
0,371795306945614
0,366543013850034
0,358358364846585
0,363538485544971
0,36563048999228
0,362980771248477
0,366116807070847
0,358408569955001
0,35639504473584
0,353968312020658
0,356414097555808
0,350329025519171
0,349113345677269
0,35511310805984
0,34837691660325
0,341260463401101
0,346005291960972
0,341139078610899
0,336987287808346
0,334332566639519
0,331702162675677
0,337615366353367
0,337699700160637
0,329891591519606
0,329388419128553
0,326079048902151
0,327732152632963
0,315579081266571
0,330999528318515
0,318631788880551
0,314817524013813
0,321593120752608
0,319543864526042
0,313249843870841
0,316019729554087
0,307507670966395
0,314445337115017
0,309260861019614
0,313655510285276
0,311264922699145
0,306604734360014
0,301170139371895
0,301693891584553
0,296449400322258
0,295561997099389
0,295347884234512
0,296708181078212
0,292138227690228
0,293207069893422
0,289867932801914
0,288938017007916
0,290204615725395
0,291971106163102
0,293997041747453
0,286222337686157
0,292693613885029
0,289185110495558
0,289053450306166
0,286268143060984
0,286445029492971
0,284232979577948
0,276560625012496
0,282290256333503
0,281504074943222
0,275594053554704
0,278630095233558
0,278400906897381
0,277236517637742
0,278538295911189
0,273884351856198
0,278447612769599
0,274842031278126
0,277993623237911
0,280900290452244
0,280159176655343
0,279009101802469
0,278335953161101
0,282051637268501
0,279616539224269
0,27356654505977
0,286644750428158
0,286124782431508
0,278028935020575
0,280988310442295
0,291233266712702
0,285438806218292
0,283959839274296
0,287722574681491
0,292705236431528
0,29114885418933
0,29134717925425
0,292769452256275
0,292781934674561
0,296129420629231
0,293984377428812
0,301514439349567
0,303339172896291
0,302505295561984
0,308701464127898
0,307201375368692
0,310887333025267
0,313380193804323
0,313369440013258
0,317523034998842
0,316745715509566
0,316336464818804
0,313879872423439
0,323997584756328
0,325531309325909
0,317167791788331
0,324250911253707
0,324584904671289
0,329411044973705
0,331896925100363
0,331555206959436
0,330999540896104
0,334050979678814
0,339736828785964
0,347200761195748
0,344575421787978
0,349247290385257
0,352405426428699
0,352316845119206
0,355680371564929
0,361426605959576
0,364473286932823
0,36831084674505
0,365092006702734
0,374281716616432
0,372529809702027
0,37573372318816
0,383266630290607
0,384265804355597
0,382804492460743
0,384655221494397
0,384230745068042
0,389228299929083
0,390970487053897
0,389955999031804
0,404126921090929
0,398335275432527
0,391717206061223
0,3950273706607
0,404429612207401
0,39429120367249
0,398463025695552
0,396953261483891
0,395991661714222
0,401368908307871
0,393529219496697
0,396143454464877
0,400123446125599
0,400567877528601
0,399184536148426
0,397262716518723
0,391158518714486
0,397373120618253
0,394083465531252
0,391920892759296
0,401180136840603
0,39736789420825
0,400104567299786
0,400436448942815
0,394733639208522
0,393527665929077
0,400902211896833
0,400151761698818
0,39834942519595
0,395406633885024
0,396403368225734
0,397428734685754
0,394196160922441
0,399532917615455
0,40297316792713
0,398603697530597
0,403412817033085
0,39866019923798
0,401326652201285
0,397532595032999
0,406839013814315
0,399942959386603
0,410566638939578
0,403740951527248
0,403452361881418
0,396213981803657
0,404152173905718
0,410148432932001
0,398873694563106
0,39705489224778
0,404675408735126
0,396597619987204
0,398327151551066
0,403407070965849
0,399935072487993
0,399823035153104
0,395771878715411
0,398662230553307
0,39662239176543
0,394495451529917
0,387871183078587
0,387759086502027
0,392832889919727
0,387410545398331
0,384859434385447
0,379998815012676
0,380575371605914
0,379530651877624
0,374136410166107
0,380836977329098
0,377603892925076
0,374266094801976
0,368854917838965
0,360942798627528
0,355737229526522
0,357876575257816
0,355677441116624
0,353768012872772
0,35446867239405
0,347649823152282
0,344732432973802
0,345584734269355
0,343269679713878
0,336946606274631
0,340545142314293
0,331093206019579
0,330072977656946
0,329980406471955
0,323941110665612
0,320424685949887
0,316083787136973
0,315007517180059
0,312354340051587
0,310558005818971
0,315464651238543
0,310169826866312
0,303968227806291
0,304845751108088
0,303070381587146
0,3006260999109
0,303357065023461
0,298706823788101
0,300661095536072
0,290566117763125
0,291017624030032
0,283978150397218
0,28308220872339
0,27851528731097
0,287066793685461
0,287773899436137
0,279775020743425
0,277445713120791
0,270464661569172
0,277677004951846
0,273068861972549
0,272509438059271
0,27591762252211
0,265796113800238
0,267935002351741
0,266204679385854
0,262483043561632
0,266280224034544
0,26607614122042
0,259163009114917
0,261024463580741
0,259909881430311
0,258452178880716
0,258653476085924
0,255641942463321
0,253089029267411
0,255227313878829
0,256592932591936
0,249175270861184
0,254388901404726
0,251837530041453
0,247500299495731
0,243941226626397
0,249137238120349
0,24537789955117
0,245556577036142
0,244182603429429
0,244097667426455
0,240863011223305
0,238930811205174
0,237000572917783
0,237970290450725
0,239707326185686
0,236452237039798
0,234863973555058
0,234378093490649
0,236530107089347
0,233014016124442
0,22725886999197
0,231223513193659
0,232047668392809
0,230349663393461
0,23195306751504
0,228701561374399
0,231810692312344
0,230250141882202
0,224977917775581
0,223883916477423
0,223997179866586
0,224223096067099
0,2276165175246
0,225092478670167
0,221159931599564
0,218490885462905
0,218040639447146
0,220137335697329
0,221218007535621
0,217456780028208
0,216595311030567
0,214500066101736
0,212495528102754
0,21700619394076
0,221548838115743
0,212994035318538
0,21521792032737
0,21296640823315
0,214609462508822
0,205826043622016
0,214492658579516
0,209465056657712
0,210609998594545
0,207096213943124
0,206880419678894
0,20955129661311
0,208935667750217
0,204195467427379
0,208687036995582
0,206220909189977
0,208674496923287
0,200833528096331
0,20792279327297
0,205501397402072
0,208764040522584
0,201749451629651
0,199105567312442
0,204736895374233
0,202600354166886
0,195061690205122
0,199418266443714
0,200359787564677
0,200180355176799
0,198106020453071
0,201577799926035
0,202548234469574
0,203628688665745
0,196320330319634
0,196922764023296
0,201190934585796
0,20280809285627
0,201333089788048
0,19810554971898
0,200638212776981
0,198148358384497
0,194715622355269
0,197392318610109
0,195063934108691
0,196512918854453
0,194818514785829
0,194134466627973
0,189304480608558
0,190838446948157
0,195039883736508
0,193381588758914
0,194215567098304
0,193237987292376
0,190483978586067
0,190590780654621
0,196338546429602
0,193424165882562
0,190091861114962
0,190211440295664
0,188213144635422
0,189674439219135
0,190289580553639
0,188023621804275
0,18398039687309
0,194499938250662
0,185390774190659
0,183020299578662
0,187835722559774
0,189379190644375
0,181009592518589
0,187815826769428
0,182053586751775
0,184838881232644
0,181742671315735
0,176313174929287
0,183294128767268
0,180794108114528
0,180807473592758
0,182692719901254
0,180262442537874
0,180302815159072
0,175767891943217
0,17929715455876
0,179240136519874
0,172896448400293
0,175934520366597
0,173826345191049
0,175186500918877
0,173051101764136
0,174898254853721
0,173659359915645
0,173478361231439
0,172501914061402
0,171788427905819
0,172945123389333
0,173504160483743
0,171170199303503
0,170298946454663
0,169843782601466
0,165255613842805
0,170443706090413
0,167803719090577
0,168845514330711
0,169518291179083
0,165789510134227
0,16694968257815
0,167509793456512
0,165100366326216
0,160812033896391
0,163752224559409
0,163452686208855
0,159719253406156
0,163310035685874
0,157685312232117
0,158385495968015
0,157911687721357
0,157425486077463
0,153981764189564
0,158400296206976
0,157054460280483
0,156440738257542
0,155156092333216
0,155773609910821
0,149352995076861
0,155871810297273
0,150472078958652
0,1548626378137
0,148959653420651
0,150422987197466
0,151564536415906
0,150803647747289
0,147110008135743
0,145588524010066
0,146957039745548
0,15008122582459
0,143071312752258
0,146414661562627
0,146221471905217
0,140020855155629
0,146431333387108
0,14334370778774
0,142922659506548
0,144007536101441
0,145359646416071
0,139314565790978
0,135108532374578
0,142984778324871
0,137694059943583
0,140373075711075
0,136521728130895
0,13655021223164
0,134815160612448
0,138060394989841
0,132820444550065
0,134642910374189
0,135486496270288
0,134924196478894
0,132968436489687
0,132134249801529
0,13223265430624
0,13305344652987
0,131662768229641
0,128229395200597
0,130054132053769
0,130029154404058
0,125353253672794
0,12779118151957
0,12475306546825
0,128919583414178
0,125302643390177
0,125262652155849
0,12885601170264
0,129842154717123
0,12296144118982
0,122190087495441
0,122667020854882
0,119261113274276
0,118592609195124
0,122478982257394
0,119526057827097
0,124246513202481
0,119593798324597
0,120458818277436
0,118313672103649
0,120679726051336
0,12020761574882
0,119099226284749
0,116088359904147
0,115851533498682
0,114273129725349
0,117226774501076
0,112794618612685
0,114593034042386
0,11197186560349
0,115454680348279
0,113313180449966
0,113866476492414
0,116692738742918
0,113873463964943
0,115422529618404
0,114001475016342
0,112042986886893
0,114759420792369
0,112944791222857
0,112300982264916
0,11047444107168
0,112828052107538
0,110453270050746
0,112016360545919
0,108850057360873
0,110646011190046
0,107318748109922
0,108161673184605
0,107901436894383
0,10567480476325
0,108466783606398
0,109243636396724
0,107898981877213
0,109158800255997
0,107623017192341
0,105653289555344
0,103889705792114
0,104448957829701
0,107623797975132
0,108143582511602
0,105672434491255
0,102983030779577
0,105452668251355
0,106443675231192
0,108741588252452
0,105739581362709
0,102805614508438
0,107294251156906
0,105305444188975
0,103846707949948
0,105999001561166
0,103219310055518
0,101340152326925
0,100598704543134
0,101063246089058
0,105734130521298
0,102390086689022
0,104228929868062
0,0975975267307462
0,103934157157935
0,1046605109567
0,100395286951579
0,0987026462367475
0,0989081844264285
0,0997954946495671
0,099230735360093
0,0992843660539954
0,101465852957181
0,0980376184435174
0,100239284512513
0,0996034834227809
0,0950637975035204
0,097532259714993
0,0983144624287137
0,0970162425193165
0,10253996426088
0,0985003903589839
0,0967894421544782
0,0959439717285863
0,0984860921965361
0,098950974798949
0,0979548558081157
0,093521162050603
0,0918684190270654
0,0942729513729423
0,0949660893276094
0,0973524073126349
0,0960708964756316
0,0909780790603508
0,0966354423519592
0,0949636287727313
0,0912182572625649
0,0900441924969486
0,0957406956828088
0,091160883696703
0,0943287701561358
0,0930724686468869
0,093985910877704
0,0911875145915687
0,0923314965145444
0,0902116658511898
0,0942109127159187
0,0917611449468221
0,0953908853409301
0,0892626492200976
0,0916424509304707
0,0905103600613706
0,0902622997010918
0,0897113331993108
0,090868936915034
0,0855337303884462
0,089095467947883
0,0903502721768401
0,0870220360866553
0,0890338224570748
0,0877736300256303
0,0875112084838685
0,0858604498511001
0,0869864364719065
0,0854159368449228
0,0834925792199327
0,085427268133611
0,0876801551599783
0,083738112777631
0,08370474799311
0,0847023039086055
0,0830624444306325
0,0857908918465683
0,0853126922245606
0,0837169036999415
0,080785177866622
0,0852088194013477
0,0802885196951932
0,0817947383466457
0,0827627304612954
0,0797134732071039
0,081084512999812
0,0809152256429341
0,0821376761808948
0,0819521232250175
0,0774107469000827
0,0812619292458499
0,0795397513328389
0,0805065148261003
0,0791127648840998
0,0763099350484635
0,0761251724196842
0,0759629244197327
0,0794014141387548
0,074920280837721
0,0736474632155203
0,0775685619710008
0,0753806272847087
0,0740362329259766
0,073120747777727
0,0739300633297133
0,072182572133842
0,0749581915389537
0,0737752751629492
0,0737269722622417
0,0725638757992017
0,0730145427590176
0,0713611234711266
0,0721790696275154
0,0729654123552506
0,0702491030582183
0,071116162079106
0,0723725639759123
0,069852600332106
0,0705719736902165
0,067257330332679
0,0710397111793384
0,0691089467925076
0,0699023229409108
0,0700059954658466
0,0707658291782108
0,0691537515980011
0,0685072272096236
0,0694016282167133
0,0651993745755931
0,0659549896057853
0,0687563106803655
0,0681984313556014
0,0691234162558031
0,069474359082977
0,0646470185888014
0,0639598538316817
0,0675090768311226
0,0624427587189541
0,066824404543093
0,0649591871057702
0,0652230023961729
0,0639811279359111
0,0642617661796861
0,0618668106900845
0,0640087848836472
0,059812890623498
0,0631966520977546
0,0639571551563459
0,0629215421800219
0,0611297969801324
0,0625128275086279
0,0608407611284088
0,0634373474204397
0,0606463214991209
0,0604466350077284
0,0587612385309479
0,059598774223005
0,0597459072673216
0,0601837678699504
0,0604841017610711
0,0608265364957267
0,0606529530159264
0,0591004234980339
0,0604834564169257
0,0581100823195859
0,0576457671145773
0,059782218166065
0,0576728029289413
0,0587831062059965
0,0585487342216947
0,0565791461663306
0,0559110454946478
0,0584269067794756
0,0573540250229177
0,0572106352574754
0,0570844965040553
0,0551235198838744
0,05913302364399
0,0567400149572741
0,0580590907158913
0,0568297808933132
0,0555857321313057
0,0579051720994679
0,0580999183646349
0,0572452910626856
0,0590690028769251
0,0570320438413883
0,0605150468875766
0,0576854625713506
0,0564767532382479
0,0487367636975602
0,0496027001746283
0,0527252532813303
0,0554039428267956
0,0552522362433027
0,0499724206755603
0,0494630276846166
0,0561152770035192
0,0468109794351736
0,0559071986310224
0,0492376773466344
0,0506461414957533
0,0525599268892026
0,0515676148385781
0,0479109591025237
0,0565934089329578
0,051042693497762
0,0573077518846147
0,0488094280068352
0,0531491038768972
0,0506342344633454
0,0515842161432459
0,0473500038719481
0,0567058907225952
0,0476659486807729
0,0536183197396144
0,0478762872549392
0,0546742110290876
0,0473079242637442
0,0583122780503171
0,0399170934511609
0,0592336854441098
0,046728237179244
0,0628944358028056
0,0473509725274795
0,0630401783845735
0,0403201478132553
0,0630754365892194
0,0309226058689258
0,0622338809266626
0,033784942829235
0,0669889859650388
0,0375306298445244
0,0713238818201451
0,0307914107567677
0,0634547068662121
0,0300303236235343
0,0783872304952136
0,0296942014848265
0,0619988011094189
0,0293001560290988
0,0697617195395022
0,0357455844655857
0,0553767711208993
0,0427164768105536
0,0547437626485542
0,0484634715857404
0,0455342104910913
0,0563674145553361
0,0386639049939043
0,0601754150906958
0,0369527005000949
0,0619280137600949
0,0388652574348807
0,0603976228100917
0,0370207985977322
0,0550949379528083
0,0450272330057421
0,0491052755244924
0,0479348338805009
0,0461357483562124
0,0462374828601779
0,0504251297079017
0,0493373923930025
0,0497671778365821
0,0443890506842766
0,0492396967258337
0,041975603557218
0,0512787343901946
0,045505373894598
0,0481256327949572
0,043876600145802
0,0492639597430393
0,0461832859648614
0,0484233494826561
0,0451984118758292
0,0484019338324867
0,0458659664994542
0,0510618464071819
0,0480804464252488
0,0500392759322878
0,0465583356864382
0,0483651974080321
0,043930284438982
0,0485824020416347
0,0460500160974779
0,0492066355598466
0,0467196644218797
0,0492004091551763
0,0448939468021675
0,0488875334463959
0,046183886315579
0,0486950874849328
0,0453922441622701
0,0489334579804277
0,0463786104953123
0,0521951840618855
0,0456558107778085
0,0469640225073169
0,0500711048155144
0,0482934051278671
0,0422886290781584
0,0498027503764365
0,044772171025093
0,0477024312720069
0,0468669871867654
0,0494456973713564
0,0457837136660385
0,050636294781919
0,0464231822124485
0,0485680706583208
0,0453827503973542
0,0465587844410823
0,0441892124262811
0,049730879274209
0,047904685122538
0,0496959134662365
0,0444794807766184
0,0492293221818871
0,0451875308395532
0,047779433300503
0,0441394148380463
0,0474111865685837
0,0449082106808109
0,0469216387449179
0,0455997687045063
0,0484619996739133
0,0453794785106546
0,0485498838726706
0,0455954500063401
0,0476365991312597
0,0469356917313655
0,048563144240737
0,046402888584915
0,0475084127708184
0,0451224961477161
0,0508631631709584
0,0469307225643535
0,0465456274757498
0,044403007440638
0,0470218928522059
0,0454336844448782
0,0484579525335767
0,0443386684899586
0,0464060323173088
0,0466097263885743
0,0477077900270907
0,0455796168302546
0,0502819249878696
0,0481265540402589
0,0501620467939273
0,0482134933878315
0,0478230095823433
0,0476681798031538
0,0490359325336716
0,047279075621705
0,0487174231703374
0,0476712471760732
0,0500235361838099
0,0462539305207775
0,0476295854872372
0,0477960544354667
0,048599812437417
0,0459399148964759
0,0496408434042546
0,0463114596054967
0,0485206880959963
0,0492149835604898
0,0488893954334972
0,0464118041823309
0,0491683968001267
0,0453926949660731
0,0484789467049396
0,0454251616977806
0,0486510748127319
0,0471131584880628
0,0473946866752599
0,0474958469841802
0,0510459459028438
0,0497982086548553
0,0498161615588262
0,0484765864076369
0,0495598569184712
0,0510672450747037
0,0510359997366755
0,0458323007421268
0,0500341557904172
0,0467250341036421
0,0512182661834218
0,0491738222230987
0,0501173103615041
0,0507254397810089
0,0500548386953366
0,0485985289119619
0,0488080481192363
0,0497973334638462
0,0504246924537068
0,0496936489276955
0,0496958571028895
0,047797497789766
0,050042286085027
0,0483480971313398
0,0495128233112669
0,0470346514028597
0,0512861445852101
0,0503269062899427
0,0512122776981139
0,0498484306460111
0,0505558043573577
0,0493547008691933
0,0517219677054651
0,0469120972789531
0,049711944238848
0,0499043867585762
0,0530305525625794
0,0507357206695237
0,050306887900626
0,0515135588536642
0,0534672457202074
0,0509874859148806
0,0526966320578197
0,0489248703381066
0,051752898940774
0,0504371574587072
0,0546477998107242
0,0500754373068826
0,0523047336380888
0,0511832440809844
0,0507582019551736
0,049501372261826
0,0509448088487013
0,0507446935467287
0,0531817693574308
0,0490823308366274
0,0522509799247881
0,0499005086943698
0,0522154667520611
0,0479945678377657
0,050221173505732
0,0482053398298011
0,0482949495034468
0,0477737427638592
0,0522310801084521
0,0485743871057805
0,0481078439804426
0,0480092624532348
0,0513039861476783
0,047088994031543
0,0474868867692698
0,04966419011876
0,048769713187956
0,0463505606976753
0,050011209599447
0,0482456357345758
0,0498187849771913
0,0476074090334074
0,0493547298879368
0,0501481206089643
0,0499003017595364
0,0467086401918654
0,0487249276489478
0,0484914793804458
0,0506711734031641
0,0472222110755578
0,0479673084084689
0,0473363794497021
0,047857369485559
0,0470881419920041
0,0501147409984165
0,0476257521348145
0,047863676408879
0,0476373383617707
0,0486599533151537
0,0447951794996582
0,0447465070234318
0,0458060117605028
0,0485149362794474
0,0469435095924371
0,0472992447835933
0,0457926358174151
0,0488722441860463
0,0455309710074908
0,0452137831165123
0,0478847343074624
0,0500185391499751
0,0453946173061409
0,0484022427715012
0,0468259613174266
0,0463511485314095
0,0472511615458318
0,0473386092647575
0,0438084808888194
0,0465577971556486
0,0457470187889553
0,0460829836280394
0,0438947076278237
0,046735798484789
0,0460074833386285
0,0485162970916535
0,0459584435411141
0,0457286005014584
0,0435023872782667
0,0476153649438984
0,0451853732520713
0,0461395904401847
0,0451680684201435
0,0469623563147697
0,0448946280407689
0,0475035405787643
0,0447504783349064
0,0468880922672706
0,0480484086060061
0,0453603798052607
0,0412913762401623
0,0469253997379834
0,0468393837512001
0,0474787178373021
0,0436759644241645
0,0467048246220382
0,0479839300687943
0,0472432114194868
0,0453680291281481
0,0458033547048186
0,043532054539745
0,0459555374611238
0,0457246814659917
0,0468154243059223
0,0462059135848654
0,0461148848004643
0,0455502589237727
0,046264786973672
0,0440510905846037
0,0450396736959778
0,0428207862654528
0,045412453819977
0,0438705074484496
0,0449923961876262
0,0440436463295798
0,0463081390533768
0,0447897984467433
0,0450517552072994
0,0438527291807299
0,0469351966528804
0,0410911080631976
0,0435930149996133
0,043336916418557
0,0452174716842801
0,0417781315210543
0,0459084303321756
0,0441503461594241
0,0431976830384901
0,043703233139623
0,0425334879729092
0,0427581522964197
0,0442624808637739
0,0430338263725965
0,0453553631723831
0,0433028942094901
0,0434882232985103
0,0404330890175597
0,0423077745982785
0,0410607281028601
0,0434025653820528
0,0388632361828191
0,0418288394497676
0,0414980647301264
0,04763255652697
0,0424938466148313
0,0434355906496416
0,0406166415917874
0,0414753739268266
0,0411319091257112
0,0410575700636298
0,0410867667273362
0,0428736103491074
0,0400357809139992
0,0403754274369988
0,0385527164467018
0,0394673323144036
0,0403214458521552
0,0397129708728752
0,0404846630092246
0,0415060403076475
0,0394141497552978
0,0379372414027638
0,0383727330289634
0,0377784735190397
0,0369531798383376
0,0404043985191535
0,0389573421610504
0,0394463200774501
0,037478751209529
0,0368703541277903
0,0406194047292632
0,0377077542302485
0,0435128898515052
0,036399700187155
0,0388590993383575
0,0391516909152855
0,0388501798288779
0,0377181444401366
0,0377168411855656
0,0380941716063876
0,0367416062475293
0,0369852358706579
0,0374378470469758
0,037194858031512
0,0351232537266641
0,0369667416704798
0,038355521587603
0,0382001240404383
0,0369224750234182
0,036920349460951
0,0379385601968967
0,0392423766438497
0,0370364036777726
0,0354045429852592
0,0374802338540417
0,0367956881826749
0,0368814735706764
0,0383876025817404
0,0355537610960355
0,0379662705879383
0,0360324010710516
0,038049326431855
0,0328653192742818
0,0364814760264635
0,0347229179507714
0,0380840801483533
0,0351546227075308
0,0374656370739244
0,0355899601647925
0,0383120485631692
0,0351602408716963
0,0372945463877995
0,0365773051903834
0,0353155070965543
0,0353642757109287
0,0355616830869014
0,0352612487912854
0,0368081450941096
0,0339252171174285
0,0349817112871013
0,0314760380300629
0,041005694233654
0,0334259190013464
0,0392690862939005
0,0319546116624259
0,0409961049289522
0,0334378952932895
0,0351660604133265
0,0339462222057534
0,037597352608499
0,034043766964258
0,0342417341537445
0,0354624401496346
0,0355423429142966
0,0340437774557906
0,0350899998333191
0,035447920400738
0,0349993877263841
0,0320891154063178
0,0346547314925817
0,0321176761392623
0,0348809230216613
0,0346162334945953
0,0350236612227213
0,0364025873236029
0,0371396484088049
0,0372372406510074
0,0378185988434631
0,033082939198318
0,0368936354566016
0,0339119971563468
0,035300243475696
0,0397789296106209
0,0294303278712238
0,0374976906915311
0,0303886480371929
0,0354139109185097
0,0313656503103
0,04009559225975
0,0329346856119166
0,0382729438698977
0,032947657214274
0,0392329706863993
0,0337322280762294
0,0302531611895378
0,0338092748287638
0,0332945155049064
0,0374582577870835
0,0350071626140626
0,0340479893510908
0,0355788984413179
0,0338438601667037
0,0330661991224114
0,0333702607685913
0,0361423276322748
0,0358839989422755
0,0387896703632435
0,0296392688537674
0,0339016844347
0,0310592587251534
0,0380986875785194
0,0336017647267985
0,039786390286132
0,0347884310798633
0,0333423369892835
0,0369373927102888
0,0329386197308496
0,0354572664589381
0,0337491385016726
0,0364641864030749
0,0321203630487146
0,0359120774459211
0,0318334942819245
0,034608765580616
0,0317477865662166
0,0355020834071235
0,0327323092843579
0,0332701503989514
0,0333029453696128
0,0354836056400128
0,0329056538540356
0,0338980080072437
0,0365318177646492
0,0381283406610094
0,0419347301057453
0,0356513531883644
0,0355147063857428
0,0319638173129119
0,0366224945089914
0,0332863941903532
0,0364531309767364
0,0314671579171579
0,0344602179945047
0,0337315271308075
0,0341540005815215
0,0349794646065869
0,0342032518434329
0,0318046164830602
0,0334554677940171
0,0334474914544338
0,035441784507188
0,0343575649851863
0,0352122689620101
0,033820281976324
0,0307005303346425
0,0365667036910135
0,0319100989878281
0,0397053047989
0,0306046398990138
0,0495526589920017
0,0260863801573689
0,0441362008700097
0,0294711367494092
0,0384776846658017
0,0325934728806863
0,0356941718824264
0,0321172338331723
0,0387855565292319
0,0368607628259858
0,0360940717968999
0,0338348817910291
0,0355348784970462
0,0345895402548997
0,0356060799716057
0,0371559389216015
0,043931964548552
0,035997789023215
0,0426178636367355
0,0301464924690882
0,0402066610362391
0,0328786452904341
0,0402590432547868
0,0379822035481721
0,0318236988102551
0,0356999153332727
0,0331589839746363
0,0368644462757343
0,0358392998764426
0,0379155435474187
0,0355927394379994
0,0393048548640719
0,0369418512578619
0,0353165710153851
0,0370045508653865
0,0369487221153499
0,0414838446018436
0,0355232796898207
0,0349224143213933
0,0384914203157517
0,0368359921934605
0,0394871434989842
0,0364020307482645
0,0417484311357105
0,0348129593600924
0,0403815474260715
0,0415090996640763
0,0423485089548502
0,0422076034077355
0,0365013311416292
0,0411263026771649
0,0407156017928541
0,0374171254090264
0,0459597737438798
0,0337686147874677
0,0481113405460954
0,0355857510319197
0,0508375254018235
0,0393491529355971
0,0414453426136414
0,0428816660502208
0,0354136211336908
0,0423085162257511
0,0356742349565745
0,0468119253904978
0,0337248207870499
0,0520632379254598
0,0318575931096316
0,0514576628807855
0,0300353936588643
0,0468391820391585
0,0358251319140837
0,0456854123552447
0,038360266410476
0,047182606032764
0,0341930645811518
0,0525154694102249
0,0423643077567746
0,0500404819479439
0,0487271967086891
0,0394951638055821
0,0481515547383518
0,0501782449306195
0,0364316718137313
0,050890210570922
0,0370606444877777
0,0501813528486158
0,0353676435213648
0,0497815302287818
0,0464925805186668
0,0495394406449105
0,0468359314506059
0,0436939510688922
0,0448462820056226
0,0553792181040518
0,0435531361937328
0,0530423666834171
0,0391803776486293
0,0527550718783245
0,0426121267245466
0,0679091134539959
0,0248177344087757
0,0700271543208674
0,0442865424053599
0,06760581700186
0,0474543170557158
0,0595332387041472
0,0501247273139555
0,0582536876845714
0,0562751731653109
0,0580750728101347
0,0471201003311265
0,0632704991924673
0,0526038621831432
0,0576575587861347
0,0585330187858517
0,0537526565210009
0,0658682330637443
0,0660818527036433
0,0710711871523182
0,0701464269692294
0,0587596565602778
0,0628181010397605
0,0679135088173324
0,0572528196615026
0,0692763438742753
0,0609869974742274
0,0672463846517812
0,0668961110490008
0,0684948316378982
0,0727851140627441
0,0672383498612554
0,0741574585041539
0,066770956063277
0,076585118709106
0,0772387329798504
0,0893960560104409
0,0802045108125694
0,0729334973946039
0,0930706042761288
0,0706764207826596
0,0889218680655869
0,075156014422293
0,0813309039833773
0,0782091131128423
0,0832661970473551
0,0850074373522867
0,0843270431381617
0,0980799095219899
0,0794142929938828
0,0982253434926403
0,0904556363327934
0,0984613124107683
0,0981849527882231
0,0934318135487491
0,140813438922618
0,0246931394469521
0,133906610648868
0,0931429244376249
0,124796476842057
0,119217748198668
0,11970052675135
0,123561078106681
0,12974402693423
0,126690127329791
0,135885651096659
0,135077561043177
0,142719324207353
0,148939650546913
0,152383779337968
0,148425960831162
0,164793546257672
0,164586669910538
0,200186611330391
0,165352851342219
0,177633172671085
0,183311523863824
0,200599970468272
0,189351852959502
0,204258696639909
0,194640725943499
0,214913835043693
0,214427560851417
0,220152701579274
0,227385675942891
0,225773194074498
0,241985553381497
0,22283169523127
0,268044879866189
0,222461337843263
0,265206819877328
0,251077214902
0,264565196492532
0,263686172378285
0,27390353119238
0,287485449670515
0,285507960912431
0,292150045802783
0,283198544621594
0,291810186189905
0,295513486145898
0,302920749830456
0,304107542089371
0,304843470385363
0,321925358070013
0,313502163394965
0,385471996359552
0,237337655601872
0,328743082523712
0,309941220354832
0,312757445996883
0,32863300861656
0,320250345022363
0,337893096594099
0,306428890803153
0,323332288691806
0,309972200026157
0,315688121351494
0,323101606356596
0,315344351366913
0,319755419841916
0,311072394434381
0,329638617206192
0,309115213020411
0,343403677602392
0,33119882369206
0,339634341941612
0,316441556864823
0,3142928771953
0,317540015533606
0,309783375386697
0,310912435781921
0,319154216189595
0,322747499267422
0,307633554320429
0,316100892486563
0,299128884550093
0,326426551103597
0,304853806377455
0,316552981434295
0,301969208418712
0,300633722190721
0,308684401953425
0,28910946709495
0,304289739466143
0,314386975419685
0,282581312176555
0,304101929904159
0,288416992863033
0,296318113325442
0,28308710522667
0,280541606581055
0,285989478516385
0,288145430245004
0,284079726431119
0,288312706237697
0,28047169580655
0,287808810857081
0,271671234439268
0,28576148177918
0,274901624764442
0,289303753587576
0,274961205169919
0,280512515060271
0,277159930128708
0,275495970440104
0,275682241119169
0,281062305742784
0,278192400679183
0,280391611306805
0,276379573266356
0,277782926707419
0,268894887714959
0,280894685718983
0,275617434028279
0,276765642202346
0,269095832905491
0,275001399823339
0,272737606831457
0,273513177744087
0,271561787086751
0,269291318360254
0,267103984370769
0,27422797070771
0,266215632117091
0,265731390726509
0,268038415486855
0,26337795199
0,28730106666609
0,260124040177157
0,267473910243741
0,258276644405126
0,258084167780309
0,262148695731007
0,245171786313607
0,271998200990831
0,254481301295262
0,253305983842373
0,246880189786547
0,247487427616959
0,252631346200317
0,25711528344797
0,24370368116591
0,249137040315134
0,234178229405031
0,258737738966585
0,237796909657962
0,268951421982038
0,23166841560793
0,239591307179381
0,226715871220104
0,235853070680731
0,245690981669169
0,222705240511685
0,236905120675258
0,21418227194906
0,242572796194079
0,225747578021395
0,231502368437981
0,224183206277948
0,219076564319579
0,23192836449134
0,230847266140184
0,235152638727399
0,229337781372462
0,246797078755591
0,219486823867812
0,239594324845144
0,21515711633704
0,268690869076008
0,205404096764186
0,222256806116957
0,20737709632598
0,21301150203423
0,233621757264589
0,189594862882597
0,218349908593605
0,194911303963886
0,197613934223648
0,200329094520934
0,198425623075978
0,206841811228332
0,186995889679507
0,222451588157178
0,169335815298112
0,209230012734483
0,186243573093569
0,208137520701542
0,18977926351255
0,200412463488829
0,175513698177773
0,190375762856385
0,184763967400969
0,190167767981701
0,196678991403705
0,176378250422445
0,176761828492648
0,192277525498488
0,164792563485448
0,183287643241064
0,171418558359572
0,186227204113438
0,187269842445038
0,186587768408861
0,196976733091919
0,17446863099409
0,1628653147711
0,170816565485251
0,164792310058672
0,173722385842191
0,158582326373485
0,178508877295188
0,159677105100258
0,166739766276437
0,183666688738042
0,160507945494714
0,17217689569204
0,171828952959546
0,171295226014262
0,178178212233928
0,176541600456536
0,188354371734496
0,171671550192842
0,183601841766691
0,191181727687906
0,184871815692089
0,1942330944627
0,186358825526916
0,19922995774065
0,198375344736443
0,206045920845466
0,200681122959416
0,207941282042231
0,214354764418261
0,213750710613025
0,223082725304268
0,23654976032524
0,220649587685863
0,249681649381849
0,224313880671148
0,267078173872575
0,236374472455329
0,257560631019262
0,261585534190318
0,257902748334427
0,271377869613556
0,271111850813761
0,275053911149299
0,282466731268775
0,274208749933742
0,294432608314842
0,284476336188997
0,292904959599981
0,293042135600777
0,308820715757639
0,298720265741571
0,318719374176012
0,333403056104692
0,310337661249088
0,334793412963442
0,310757905698547
0,320154820527131
0,317027212418637
0,323795638951492
0,325169258448696
0,320871932178564
0,338308087924097
0,326324148865905
0,332990942782732
0,333999690737127
0,330443777315788
0,34035148019683
0,336811964974972
0,346370007410138
0,341313137148867
0,352875202138468
0,347712977586248
0,353518642188007
0,377104669178163
0,371279138991015
0,366625918894111
0,362542056874177
0,363867242480341
0,373713791826317
0,368322970698169
0,382361951662936
0,38689516534631
0,383521643876911
0,383329882380628
0,384835845130432
0,387328730726697
0,386861224345064
0,401477992665092
0,383961907009775
0,403107004847058
0,398807289517204
0,40187143974151
0,42507088024241
0,401946907496789
0,416814651770542
0,401206313885468
0,418964899000422
0,406796784237175
0,423347300643319
0,415206224938998
0,421416941199913
0,413640355635584
0,422856187985027
0,420921972703261
0,423597056621501
0,422956429070852
0,419487959013126
0,430684973418272
0,431386922546203
0,42581620443311
0,425715784027314
0,421627539481112
0,418232820870928
0,427963340112288
0,422821936323338
0,418724046157351
0,423712688096719
0,419175731194888
0,432740956817646
0,42910599665033
0,421256245644173
0,421291339001706
0,422818971270137
0,42493725244824
0,428334307331396
0,422946537549735
0,439132184662357
0,434289949115308
0,434029241253585
0,430775649240306
0,432617060580547
0,42979113522679
0,441338699068209
0,430206217043644
0,440315235994331
0,434514989952938
0,449288146555168
0,441085970993207
0,44881597880606
0,43829797777678
0,450277132015505
0,452460627277136
0,447795989774226
0,442765591366003
0,442072073094228
0,432369102626223
0,446999363212838
0,433617303197262
0,441338858537939
0,426182517170943
0,431867673266853
0,41835228085487
0,437615172862938
0,419587891701985
0,418894642637434
0,4123496822665
0,405863591446974
0,403683239411788
0,402833580084122
0,403650736052335
0,394531548591584
0,397629844763215
0,393633304029269
0,392564711279808
0,393231715333911
0,388211711162703
0,382505727200244
0,384381106051982
0,386054341563971
0,382782070372424
0,387011237682183
0,377728848428063
0,385003317037331
0,379854953241438
0,381329481825727
0,371589851617708
0,380706925889127
0,3812913053581
0,384032323404215
0,387908620335118
0,375835854002566
0,382206245742776
0,371068768216848
0,376695302232198
0,373479907657444
0,379469506700319
0,370325980823815
0,378727868151992
0,376762835845657
0,376150941772644
0,375762471890244
0,374225094653704
0,372238788841346
0,374789664473383
0,377283803426669
0,37498236108596
0,370420164748792
0,377665233683326
0,372223986227592
0,380599698283169
0,370757485135878
0,368718114047111
0,37829016569719
0,370427191521834
0,375787465932622
0,373438443362996
0,374858508844439
0,373202355271034
0,371628814491131
0,374998193837243
0,37295306838873
0,373725871045882
0,371571059914432
0,367327902794028
0,373958544734535
0,368430141660949
0,36966696125124
0,367866340220614
0,370411158916415
0,361389595586701
0,36402378449506
0,356853393093427
0,356065710277978
0,352530203867429
0,352691955897495
0,348351765828944
0,348262170441239
0,341434127964878
0,337732453531063
0,334417347052273
0,336221225347779
0,3269950312858
0,330697806526229
0,327341430360698
0,329164659143488
0,319143077444027
0,324739632012826
0,321149126862529
0,326188459939997
0,321383876115343
0,321056439884989
0,316663678332528
0,31821995610247
0,32009599566683
0,326183592680929
0,322625111990374
0,32255170622531
0,31917589627794
0,324392269433697
0,321384271763762
0,325238034605977
0,319762894283791
0,325230581904884
0,328391613016464
0,328158226654363
0,327219280583139
0,331027525861082
0,334984694512774
0,333388334472074
0,335651084337358
0,335594707119957
0,335287763678039
0,343708635363313
0,342704149746317
0,337327540140691
0,341881071029033
0,341286106222865
0,339000900890006
0,340497009783385
0,339366779561122
0,339356968704893
0,338903653966336
0,339935934914705
0,34177633769899
0,339102209444106
0,335583919288211
0,336482284988374
0,337103091037898
0,333918210325226
0,332774222833161
0,33321231629268
0,335198039629787
0,329849937993615
0,331804915671386
0,329621040862026
0,331270578297405
0,329421583963914
0,322589943739404
0,326219841789125
0,325634516625975
0,324356016658765
0,320943825026069
0,323362296345713
0,321239294022124
0,318564514867074
0,317428112881009
0,315529534302975
0,316973250127152
0,315677621903988
0,313758281358251
0,314851342980665
0,312653921734488
0,314635262803943
0,312800287654232
0,308004942111173
0,3082496524847
0,309326636458908
0,303758710348148
0,30767809412416
0,304992660785077
0,300990821014595
0,299892625016696
0,298217078451897
0,293307557043381
0,294053407491581
0,289459368612112
0,289042673839558
0,285545055100517
0,284225381268012
0,280754605732947
0,28220996080138
0,280723727134022
0,277935252231981
0,277780154652333
0,280015603401048
0,277222195928757
0,275911286965314
0,275819811809256
0,272210335676755
0,275896921030596
0,273296307796298
0,271853627873592
0,270076145699815
0,267482415174726
0,264901272072747
0,263327957373717
0,257877378696351
0,256191406382973
0,254463779503518
0,247249329275377
0,247320972983916
0,24778083105902
0,242809069176894
0,243303697057129
0,242582115840214
0,244981049307765
0,249325946850485
0,251656432345724
0,257060195511439
0,266299005678379
0,271080647756145
0,278935641438007
0,286139595568389
0,298627155497702
0,309329002599367
0,322427012885082
0,333857960374765
0,344500824439805
0,360807058695188
0,366990242973191
0,380741853558457
0,398795238554712
0,407612996821282
0,416145145390588
0,428550603578199
0,437633891889952
0,446499964855826
0,4576883939656
0,470964611770626
0,479882917836902
0,492904125745994
0,497878571552702
0,505235141021479
0,513461136311913
0,519593431999152
0,527094671241761
0,537941116116888
0,533876239408431
0,542457684931664
0,549864286394581
0,554292967716126
0,553415650966831
0,558702402073652
0,56546021520881
0,564096637059694
0,567441340908396
0,564376344833955
0,565034709252041
0,565362208607815
0,566898086343569
0,564360840015555
0,570128321941662
0,572255555076794
0,573697145436178
0,576839633107421
0,583659089204021
0,581190717712567
0,583969568811829
0,590914744734069
0,597094284165835
0,594533227190475
0,599211172682316
0,605850387173285
0,615023763607904
0,614583510542852
0,623060689118806
0,624808028850005
0,637733975384272
0,64778091240855
0,656932937314685
0,655823027336749
0,673721442489371
0,685362635667067
0,689272724240114
0,699228855585127
0,708318865016631
0,70839763512485
0,711855447912718
0,718148966708025
0,726789474136904
0,727829770369587
0,729214080704346
0,723205916760042
0,729843078522684
0,729190978473964
0,718927241809436
0,711336777648502
0,713572870920752
0,723192589805461
0,719486429841315
0,729351562625131
0,721304484178464
0,737480292041209
0,738612296376107
0,75502792586729
0,763332064759765
0,769018104912828
0,777739003115866
0,793206180996518
0,802295733276686
0,82342128440631
0,838781330644001
0,846464487789417
0,849977302655839
0,859909390404668
0,86320560909734
0,900452895547509
0,897015253463647
0,914274093902373
0,931441487873047
0,954720685912366
0,960289343309123
0,973442709648114
0,9937742912654
1,01353461429746
1,02567629422026
1,03266112680363
1,06217936336531
1,07395573371989
1,08932007794786
1,08814080054965
1,1101549974443
1,13786740298358
1,14760768232174
1,17297548877633
1,17804800802349
1,1830574247777
1,20946181912074
1,21839499459624
1,22791692319851
1,21540253318521
1,22169633941825
1,24333796620096
1,25111093594379
1,24463022426455
1,23865478995777
1,25340565269811
1,27077660607512
1,2225746637558
1,26873019601019
1,24373632305466
1,22040347162617
1,22528892047916
1,24741028570851
1,24101257268789
1,2722161009814
1,27109912655888
1,28686227285329
1,2671536916341
1,28884735585627
1,30754416248279
1,31670518457219
1,33716451907773
1,33424733801728
1,39599859133909
1,38675726634858
1,38346876115869
1,39525092312086
1,39961383030013
1,41221859589003
1,46035629562789
1,44959580960047
1,44019147170236
1,47843957376195
1,45251537892935
1,47863254353896
1,49910884632647
1,48834289179317
1,44067416934734
1,5186001572897
1,50250187687716
1,53848718503064
1,53793315039604
1,48821467611891
1,49729297425446
1,55681550112253
1,47323029926235
1,49276271893824
1,52772372115677
1,57481993715391
1,54541109303308
1,55818725277101
1,55743431070833
1,59533638956804
1,53756084086744
1,54902851897515
1,47966772871027
1,49841440330824
1,46924395793298
1,46316168177307
1,34922799108095
1,36490723937929
1,32299658069402
1,28501586555301
1,22639192499024
1,16747095875785
1,11130533912092
1,09591543873166
1,05367069662503
1,02873573173129
0,974204056246361
0,979021526764406
0,957658377569477
0,944846824584584
0,932246935798824
0,910993917954543
0,911028121475647
0,911192376580431
0,894160165377101
0,898196413427534
0,879739947875673
0,862883846632933
0,864290671715411
0,84693208862193
0,84398220447619
0,828528215890732
0,809144122038109
0,791141937490847
0,779647741651558
0,756605217871886
0,743654592389987
0,709940314240759
0,698983211272623
0,668623078922688
0,642667028882175
0,620271237606768
0,587444984701055
0,563236170035457
0,537551623569692
0,514371758930614
0,489963301358549
0,466406893492879
0,444777874293418
0,41838191827675
0,405091277881279
0,388535458403388
0,371673319223679
0,35573622953842
0,343618381194414
0,328232010338402
0,316535347465179
0,304886582777875
0,297966434360142
0,287760769856842
0,28365195937574
0,277704625413767
0,27523331296489
0,269946578290296
0,266909298379516
0,265879724810268
0,261817235223273
0,262653351400039
0,263441223037019
0,2628964248892
0,265887063224368
0,265236685627969
0,265440416615572
0,271068546884294
0,271785141860839
0,270513863565192
0,269640953626346
0,274337208562159
0,267532015597906
0,267283273608336
0,267878933481923
0,264382642639393
0,261002145472586
0,259349442174733
0,254846304963768
0,257377260485168
0,256199078260662
0,253739923687339
0,251346482425603
0,249081736073017
0,244600243125514
0,246265557801834
0,24584858025026
0,249398055095372
0,24606672422873
0,249445486074071
0,257763881669928
0,256341964236861
0,257946724335974
0,258342901493693
0,263017580981318
0,263312530723606
0,266608963680278
0,270736942840668
0,269359980000783
0,272583734666483
0,276369228902638
0,275771879003717
0,28324413582105
0,279575538339157
0,284406054061153
0,282707482315095
0,284617663144524
0,284505379355653
0,280886282319734
0,2845158050938
0,288772135905763
0,291014557038178
0,286199229679681
0,298004037856283
0,300914217961711
0,302102291278551
0,304443106028837
0,317099669195035
0,321259584027584
0,325598858207088
0,332015888858691
0,348792452522672
0,355290602043281
0,367330995979458
0,379833285179155
0,387467289529644
0,385159009103681
0,392011079582597
0,394695755527298
0,391216249783406
0,390566773950864
0,388708418650876
0,382544674869107
0,376550176639752
0,355513500699234
0,348784313234359
0,349294951101532
0,343145946696812
0,342116108266896
0,334244728101542
0,329523747905223
0,334723403451607
0,32937821280257
0,335406530057169
0,334204827403491
0,334903229557222
0,335150413979654
0,332013114527641
0,334386021135513
0,330050398413878
0,329168215421541
0,330999054360445
0,320881070562981
0,318651934670521
0,314290449781549
0,308944271154112
0,305975108508422
0,302422166221063
0,294602017408033
0,298323500579678
0,29722577280171
0,285891596274851
0,282121935602925
0,290765616519384
0,282644832199228
0,286883133997528
0,286742030086288
0,282529124567361
0,272591486673565
0,277922208939323
0,267535080823901
0,264396980294597
0,266923451578592
0,268450131433409
0,255045312224639
0,259602610822765
0,260444467526159
0,258603995251849
0,24917968771262
0,252297409942237
0,251294962798841
0,254597584647675
0,251202027853515
0,247241003327268
0,238489997483005
0,240719789089485
0,237947568288802
0,236499906383775
0,238625960242041
0,235708368499903
0,234502200836231
0,233461921522064
0,23952548152003
0,231853954944891
0,225903947611009
0,22485189521243
0,223118330544033
0,22792834958945
0,225679845885068
0,230648656520396
0,233132818860773
0,222272492999788
0,219702923418122
0,228927317339275
0,226518359692569
0,22860816146008
0,222838843572665
0,227311391095716
0,229101053180273
0,227470998672075
0,2269110484089
0,239471408533601
0,245066102193079
0,235706498957863
0,243997628930219
0,243622264519086
0,236344697459298
0,253880400312672
0,263643976410283
0,267600189117558
0,258559855006072
0,271802403954059
0,263551758318927
0,259452143232945
0,262636780856179
0,275103373613964
0,286958435699866
0,281878226703895
0,286550412658672
0,305319073426947
0,304226425964259
0,325923320688372
0,340906048831934
0,341303745488702
0,342456175174837
0,369951175713121
0,353591549274575
0,376925160149494
0,420417565494086
0,411750914267771
0,417805701270411
0,428109927255031
0,447107664489464
0,450765968049109
0,441097067648869
0,486914918139983
0,478551979421597
0,449167424932294
0,446099430363936
0,436866957608549
0,41392453125295
0,440811218152107
0,43587409689184
0,417977822383313
0,437329019949274
0,448228288277143
0,4405304556488
0,453011758249957
0,428643237171002
0,417676652139218
0,424135962418693
0,42731707003994
0,405647242766995
0,402063116904978
0,409445001036249
0,403676063991583
0,400313653051869
0,391522720722525
0,3962497635441
0,406120084136337
0,398090030435336
0,387806518906022
0,371515444201328
0,348858352526639
0,361437043836417
0,391889026042603
0,370609089551751
0,356204186724351
0,336228483787949
0,346390316520462
0,377132101789557
0,377473350599724
0,338964266490847
0,347599985234465
0,377155962280362
0,356563956308878
0,342055199549466
0,369732095317714
0,368196226160053
0,363952001275045
0,340091568062902
0,355736286950228
0,370612253416705
0,380695270058374
0,356778034186694
0,377730195264923
0,361486119543484
0,405294482715474
0,41329028528257
0,376902990723797
0,37491317168215
0,425027542846534
0,415710960831639
0,367818539919618
0,36113160029671
0,391590059446459
0,427602266887909
0,409189413269692
0,346299567602854
0,402310552736637
0,41471444854155
0,423909987755082
0,428715948012177
0,432345022680847
0,403969867825392
0,401843504038161
0,42769917203994
0,457272943557248
0,460063895507557
0,493823558667881
0,456049781478529
0,451667946675284
0,549581009034154
0,542133943080798
0,506552583761431
0,543786388833988
0,485139482616821
0,551962569348153
0,597975748609565
0,457557502723419
0,485475976770723
0,59388008658332
0,575008418166392
0,505767808467322
0,509683546850322
0,573428728193402
0,491871608637147
0,497126464551275
0,5082487624213
0,477214374894738
0,533843773122686
0,521631789241033
0,510495603529659
0,521464646247145
0,425751284708586
0,431344028465066
0,453956081465331
0,466493181037061
0,487748589671405
0,514611899286996
0,549905423991352
0,594118988598425
0,425510428488275
0,423611173000979
0,484714577769979
0,426446618132585
0,496422491147319
0,580319643586665
0,478385290872986
0,529734345404963
0,506023232947868
0,594905284199341
0,77398858681938
0,489334049161657
0,406100557814196
0,626643153777812
0,576556428733324
0,541471971244376
0,490904111513773
0,482117896687682
0,405810129277522
0,497836100535292
0,621533008369018
0,537795470827478
0,522905209875322
0,617197129272891
0,663762234717659
0,739570663781103
0,55699600049544
0,504865228227082
0,658811524078729
0,678796181147511
0,757517226017231
0,656397804458445
0,547496645049066
0,966622880684851
0,765680089891881
0,490394170954682
0,40633119310434
