3596
4000,36533379555
650,420452594757
1
2
2
0,013999047268785
0,014848713886178
0,0193421601055312
0,0133460173915916
0,0142413741972259
0,0179086052433148
0,0138444139460585
0,0171659089650866
0,0195245819109665
0,00206623625666502
0,0147124679396363
0,0130669658985238
0,0158582850669194
0,0147096345522707
0,0189947812950447
0,00976580663042305
0,0137631275521349
0,0167657705583836
0,0164795285805934
0,0151373915481406
0,0133355675943174
0,0203644916943195
0,0141559073404813
0,0107512063099149
0,00753153619497279
0,00870954459599037
0,0144035593099214
0,00866496168354377
0,00197573883254802
0,0127233915074272
0,0149584844613094
0,0105501948928245
0,0148508027051964
0,0149105565955353
0,0150086922298929
0,0169793214216862
0,0122259088100687
0,0203632833270014
0,0248423537866024
0,0253688157448139
0,0170504876797376
0,0112446039383031
0,012192240241359
0,0199554490816763
0,0214659728065759
0,0160107322188227
0,0138096218662565
0,0244109082523869
0,0174380130508838
0,0171916776718491
0,00888943271675826
0,00593399632035759
0,0181616511997512
0,0157349095946902
0,0220429031581408
0,0174346303641027
0,0159052481314897
0,0184039846220141
0,0164308637780132
0,0161252418382681
0,0178035507879093
0,00226019916150204
0,0248395256392068
0,0148525323908971
0,0242059516267735
0,0108045547610727
0,0167063704352697
0,00437660219960167
0,0191273252107723
0,00714950637232554
0,00950191783948595
0,0201679045628123
0,00734920634784023
0,0231001536227649
0,0114758870520911
0,0206719209867134
0,00962409599389486
0,0123085815553203
0,00933472672840318
0,0243455150054468
0,0174676512566375
0,0200760401508536
0,0187497276963789
0,0179355657937875
0,0331161262034
0,0206360517393655
0,0134027139994468
0,0231266903189634
0,00780320384071932
0,0147976762432602
0,0138281695095117
0,0177520589706095
0,0166580098714457
0,0198070495240832
0,0172069784643899
0,00815662442078734
0,00179917386368421
0,0142125701334622
0,00653735581019755
0,0266896333344245
-0,00879513109746849
0,0555027297510236
-0,0161885452022479
0,0213289165229629
0,0305647871279588
0,0115635085172851
0,0381131456462354
0,004581568890487
0,0214349117210765
0,00994772121758031
0,0242055594653531
0,0134314057458167
0,0202971369646522
0,0158767114264599
0,0199193582763928
0,0359089689595028
0,010844795706297
0,012740234498468
0,0136762571480121
0,0211611484994358
0,00850629925843789
0,0442449153179235
0,00364406412327864
0,0318294939149167
0,0121938818769954
0,0170262255525581
0,016823210038648
0,0326849877242559
-0,00275287087020237
0,0170268943906591
-0,000147880633141624
0,0239761494800215
0,00579390378503387
0,0347238657437568
0,00472273514863256
0,0220032320820608
0,0134741925230714
0,0138412533873394
0,0232728851728798
0,00481959381116632
0,0156623272457143
0,0159783399849037
0,011248972189038
0,034145592395953
0,0122986513746689
0,0156032444172685
0,0154134780464852
0,0265851234597094
-0,00423418271363795
0,0212218672592858
0,00521998476911248
0,023044809857188
0,0127859257983336
0,0159804492254734
0,0218007443140221
0,0659375234553448
-0,0135543205734433
0,0908589379681587
-0,01001991031581
0,0211973515293879
0,010313373779781
0,013052637194655
0,0110564020409285
0,0110541575160947
0,0171459953281294
0,00903080317474247
0,0214290106735215
0,00352619878956173
0,0135379727368406
0,0209144576197103
0,0305186447369501
0,00226324473943909
0,0261025534083421
0,0256297805436336
-0,00545579522786115
0,0315371375511464
0,0105864414160261
0,0204814941309749
0,00472768451438893
0,0282217447817118
-0,0036911285553641
0,0195951705571499
0,0123541602010242
0,0143524311285577
0,0176442587828232
0,0304218308363313
0,0028089233870568
0,021003414506027
0,00293630758393625
0,0249580754303024
0,0100086406068513
0,0487282876414522
0,000503267487084451
0,0342200560641459
0,0041090023588173
0,0264861048421749
0,0158165230292453
0,00676084325306413
0,00683433511652637
0,0176812077815203
0,00359762679097376
0,0170446690508824
0,00646124210224969
0,0192790852606391
-0,000391187543933575
0,0223088959821699
0,00581169792521208
0,0103466924417024
0,0156704427303347
0,0158043312279236
0,00674706131884158
0,020136168623006
0,0458504726485756
0,0201951522357728
0,0198172536225375
0,0131536759182759
0,0226678191875423
0,0296461829540318
-0,000633964477912647
0,0174859921932306
0,00471330296088873
0,0125462496570955
0,00801231634512143
0,0118033950148096
0,0139753413741095
0,0130176205132571
0,00813219652409563
0,0188606375696799
0,0018189347583269
0,0137903732165218
0,0199771883276442
0,013583309491898
0,00992949498080142
0,0124990098645716
0,00985701759338954
0,0281346712938344
-0,00445776609275318
0,0193025517472531
0,00830624036590757
0,0187413795908042
0,00695917385181613
0,0200222805414119
0,00801636489381088
0,0164435779432087
0,0045202363819511
0,0291760609948203
0,0141933696716786
0,0164480899190895
0,0147246331258133
0,0156329514230292
0,0349203255625733
0,0108169338843686
0,0239881094072357
-0,000243988473322669
0,0167219899031877
0,00503409972043008
0,0186358295797371
0,0126615807863483
0,00722162228385451
0,00961777984902678
0,0253766590047236
0,0109968478124446
0,0213112176680018
0,0124648194651917
0,027915505375426
0,0150678403848404
0,00246502278008011
0,047064605941433
-0,00279356567299203
0,00478923939889158
0,0263822967153289
0,0106026034194888
0,0312069373997791
0,0346975144221016
1,01970385785927E-06
0,00683043384294361
0,0186428957463453
0,0243460025750455
0,01390604125033
0,0357387203981046
0,00156702855782816
0,0546971692111885
0,00404812728634835
0,0458393034624037
0,00664484420970574
0,0245535123243369
0,0499928292731685
-0,00679581997564654
0,0260087655237092
0,0113045036691401
0,02002466300244
-0,00120580368512115
0,0230129493514172
0,00535653443045327
0,0274184238042904
0,00555824778401969
0,0264407565468451
0,0185926985248079
0,014230791178074
0,00763781039036328
0,0259991156140173
0,0107949648406352
0,0114582820433865
0,012528467939476
0,0122756508685535
0,0197620782040455
0,00322832313208554
0,0411266237319918
0,0397816889671823
0,00959925700420828
0,032817801083997
0,0205902730852849
0,00702897850521418
0,0143976730801448
0,0109751061661285
0,0199378910177286
0,0156673744945343
0,0137201421732723
0,0203590445158675
0,0359743185205639
0,00386783933707401
0,0230861996766388
0,00449903850505737
0,0212534243136672
0,00879181070847348
0,0223191816783207
0,0107938049932948
0,0208337180765182
0,0158578100089971
0,0192363322063326
0,0265379247892549
0,0260776804735004
0,0124982872734052
0,063544268297032
-0,000909491294891495
0,0253257316819819
0,00206053230959084
0,0296750293379972
0,0195120902205826
0,0188503041552592
0,0226449806430414
0,0203700088042022
0,0145410218907452
0,0265919091356289
0,00700487386363695
0,043509004230742
0,0206000979924999
0,026640709869199
0,0309399223583569
0,0295176737172558
0,0178482511432498
0,013125077837763
0,0620868377211897
-0,000540489175496401
0,0514897985989725
0,0193185956934956
0,0177936519491225
0,0337909008138492
0,0233008706557012
0,0320319832323361
0,0184528860994659
0,0322232454156605
0,0149882773639717
0,0362007833685633
0,0172924397045168
0,0399552195173196
0,0181795169124501
0,0514712624327766
0,031195766983027
0,0275978471900903
0,0379352259580941
0,0380847803345998
0,0157920499755342
0,0613845504032612
-0,00133425679847737
0,100797358960995
0,0156043550281181
0,0915935834686281
0,0384419482580289
0,0370615598993764
0,0321843151909956
0,0349910966437216
0,0350761107670938
0,0407655480515004
0,0385257352239292
0,049760053061016
0,0362053233639405
0,0543304012240386
0,0375044976228771
0,052902883868235
0,0456303871525919
0,0557284771273143
0,0528594148669738
0,0362530517402281
0,0595066843312236
0,0514301450765889
0,0779961191976121
0,0552703119024438
0,056074473511214
0,0492423908522616
0,0623203338465076
0,0387767441458583
0,052229620689161
0,0514114103905132
0,069666675978948
0,0629957635210608
0,0607612644675707
0,0862906327733015
0,0572893990799874
0,0903662671598065
0,0638743472735333
0,0712134367991721
0,0812932574781359
0,0537147195358126
0,0895301980702281
0,0809009439513086
0,0749074905537205
0,071162176310565
0,0939392141719141
0,0716441267487574
0,0959050174086205
0,0926167672089132
0,0639381499135463
0,0914243331381466
0,0763687666522399
0,0928818666666605
0,0801910413386517
0,107697880044581
0,0859499824277058
0,0995393659380956
0,0977537504827692
0,107141972512948
0,0872729538248953
0,113998547670565
0,0864429113373924
0,114348880366583
0,0961641748523045
0,0932313071179274
0,106040758128316
0,0969310151626352
0,135302817481162
0,108446190397277
0,118562766385704
0,117305864596454
0,102695947224992
0,129651658385325
0,11620911097625
0,133942108298919
0,115460341830748
0,145647118105615
0,123908240349434
0,134554466667325
0,13240847344496
0,137333047060175
0,126796442804525
0,142394337534806
0,13138479309018
0,146966093414094
0,148232053120308
0,146857327661891
0,156374689882275
0,147061077352123
0,184907433053781
0,150957614972761
0,151945464481767
0,167976475620967
0,152680935200104
0,174273575932273
0,158161116185943
0,177784457058723
0,169407592203294
0,186241140790681
0,165245586893472
0,194784083439029
0,16287439561342
0,203726731133957
0,175206573909393
0,208453633520665
0,177922694289405
0,199019335356873
0,198480444603266
0,208484567177242
0,186421459566309
0,20831290519409
0,20039444862662
0,22624239662604
0,189437624360702
0,235124898446795
0,200323379334309
0,215806263351386
0,2017767862174
0,234371218487146
0,206263696790507
0,226503022898664
0,222290916176146
0,249596288095307
0,228349653942074
0,236755608147955
0,242166856376268
0,252836372377082
0,244832561140038
0,253454009335751
0,246294499945696
0,261300884658017
0,254718320452332
0,275197259195254
0,271403986565368
0,291597819661559
0,258479364948522
0,283367087137956
0,264314588524224
0,306274043178889
0,25920202347404
0,295195111159873
0,286507607262384
0,303919314152425
0,276425038263189
0,332958701458925
0,290628711757621
0,314412417310587
0,288496051263275
0,328795556427145
0,294368848765177
0,324176099704237
0,298795347311234
0,343059519109842
0,31550013245664
0,340339936211448
0,321914498475152
0,338483094458789
0,335968328042398
0,339645923812809
0,339318771842078
0,348812802871853
0,338330563936866
0,357318233971973
0,335223733400414
0,362779917260688
0,343324887331096
0,370286894956906
0,346597209847206
0,373246633715996
0,34754527657413
0,400204552981788
0,375660624998758
0,380306727548091
0,368687882171672
0,39004826754756
0,396400201727305
0,381447535905507
0,382795627185128
0,400203980544963
0,404186028136885
0,416335568332772
0,378434131935741
0,425882756125305
0,392775071472059
0,406804933991286
0,420747090780285
0,445130777840535
0,414987306816829
0,463026531953145
0,425067880891262
0,458601955796967
0,419883903876501
0,455631920323398
0,423159287722311
0,449839363436775
0,398356479011845
0,472862889782225
0,443145300481925
0,456811723876341
0,475052817447448
0,487977473711168
0,451329634488395
0,501758832260725
0,4434413871377
0,488821791775345
0,46099030992066
0,488045881461263
0,482461078150356
0,502929693085706
0,484305510834655
0,516308402251459
0,472271069915865
0,502816429993012
0,51413865661172
0,499375220191022
0,4844862498083
0,51997856947715
0,490617731897305
0,544496947662224
0,499346580056483
0,518552355043044
0,501876387989834
0,527453041177893
0,520944079890729
0,539491771436616
0,505854256789708
0,544207600434538
0,508482697705556
0,529747026699963
0,534836647930302
0,545191122324699
0,530934068056284
0,559390409497449
0,53441820618903
0,57025601012205
0,55314650824959
0,578356165028133
0,551330464553723
0,575556053377078
0,557480582248339
0,574844345589563
0,57865797527145
0,594622530171631
0,544658942017091
0,616676677430654
0,568037439206602
0,602033290914362
0,572613274513692
0,597749655516115
0,582485591001029
0,61587920362403
0,57330253887734
0,609256927279215
0,579372493454483
0,598228545534472
0,602234014372781
0,591975268680584
0,597439308809675
0,617834298781819
0,590411227284537
0,627547750362843
0,587437543973226
0,658117164267399
0,588216102270239
0,611252738043618
0,596099137667189
0,603593213083515
0,634241672224171
0,624282701641946
0,60740781994781
0,622085776423232
0,616643445177533
0,670355993383963
0,616666582729065
0,681772405900399
0,632745927582222
0,641358031136156
0,615860150961263
0,653313451035474
0,668182266790024
0,659703467089369
0,647838503755757
0,661506702215131
0,660965440856662
0,663674683250825
0,687858033274915
0,674619266598778
0,645078419581589
0,661585062448467
0,648894478589359
0,685933869335557
0,647203411158878
0,663891333969989
0,661545270249607
0,67304869222483
0,6258174837914
0,686787804773242
0,652708300966108
0,679094119955023
0,661240636943739
0,68380836201026
0,635117966542745
0,664487796471053
0,657813800394166
0,689664950060269
0,661731532301347
0,708022491031282
0,665263525151597
0,678520921622671
0,677561116395043
0,697825181867471
0,655406365371586
0,691433336106147
0,682476324021065
0,680404202856893
0,673621912660003
0,720182844913425
0,667411452392556
0,699997116064911
0,690761236366135
0,69215031362597
0,653924136422946
0,691568724476235
0,669102896741879
0,699484540165915
0,684608680209736
0,699338091461276
0,685683669426241
0,697063767065183
0,703212344607688
0,709650202558854
0,663599841324359
0,726647019498549
0,681252260225261
0,701924911835784
0,688068137211665
0,725072615605149
0,67466637239427
0,687408191097937
0,698513664814408
0,702889759980456
0,707139044549077
0,717404670014875
0,688542881340511
0,711123098748256
0,682083970675338
0,716465938096711
0,674798672196585
0,700092879727203
0,690453249693837
0,712299871393463
0,682729916127041
0,698295159911943
0,708670156067365
0,721055323187657
0,66746452871158
0,709744717857864
0,700229798636018
0,693035225577348
0,655728207378038
0,697477167682296
0,686003688886158
0,707622441396977
0,701778070976925
0,716166568996385
0,678016557002934
0,722649736188624
0,697316504751145
0,693608558566017
0,6615255371651
0,696127540318185
0,682022765210792
0,700597500292024
0,667895905992129
0,689300105894683
0,706356794380301
0,701771527974581
0,666285825380655
0,696798497960525
0,690615017122885
0,686045833399752
0,674978059076066
0,689735271386388
0,669995794660175
0,69939318881766
0,674838512023418
0,688790087176913
0,685821697760298
0,69080483726039
0,688308751127894
0,722211078387725
0,687768134294318
0,675671632447871
0,666925181069767
0,707409257434462
0,655703457697615
0,687995636025357
0,667255509926292
0,690975032088958
0,659577948722501
0,668328759263662
0,668268709933532
0,668708029286988
0,656461795288799
0,658766278896002
0,655487657700214
0,656745197065049
0,643868396202111
0,67109486635628
0,646132381366332
0,664459271547961
0,65476094881878
0,679984153599525
0,643488762318212
0,655450740482844
0,649437435546541
0,663858365498528
0,634065715122751
0,624500824384424
0,627900118333448
0,661792379936364
0,651396070020072
0,667800531107861
0,630908818196137
0,630014253818997
0,632999354289418
0,659454692562041
0,632481989239572
0,63967961375052
0,624640778161422
0,6309017997419
0,621967816008764
0,635384991689158
0,623330493446959
0,647678177872699
0,604446627556146
0,625491056713155
0,628099304684674
0,636387137589434
0,61700384321899
0,629887178601783
0,609158452288253
0,609522854416388
0,605193991212185
0,598078203477571
0,604355405242946
0,625308819968173
0,613986386069339
0,611614156965288
0,595706719095829
0,614638977399087
0,590939700999418
0,606806994482234
0,608877945659824
0,596653393376073
0,575247355153678
0,58680616307865
0,582276080447217
0,5776933317525
0,575962873921925
0,586416838815061
0,566042703980163
0,567131670141286
0,567362506714317
0,584741141080557
0,563857537580661
0,574661305334354
0,582496150663484
0,573880703892694
0,550151870634704
0,566038439384607
0,559790115015636
0,556418945136796
0,542634593735182
0,556994813654232
0,53941606794132
0,550692387435801
0,550120430722272
0,548863878972782
0,535996546126155
0,552603274225014
0,537520647609503
0,544465303422494
0,519547137359128
0,528911075347284
0,536199811211877
0,531346634801915
0,533316928442702
0,522131088708796
0,509885717184204
0,516877470527724
0,507662934513529
0,523485078462044
0,502050450787603
0,502591359151543
0,498852434338957
0,494440117990596
0,48875862904715
0,505574919300061
0,492339301845202
0,511885060003409
0,479571401530291
0,489722748727827
0,48375962447344
0,492487224993032
0,466850635710846
0,473964019435774
0,476187078765548
0,478287488495024
0,465134961061051
0,476543361086908
0,470967548459851
0,479078051203441
0,463827428387176
0,462107901391569
0,449278184801892
0,466056887466169
0,45479124719647
0,457510983794024
0,439278785975448
0,444520508838508
0,443191975926057
0,446267139380115
0,434705232578732
0,43341341125553
0,421995251429217
0,441714041166699
0,43026444100441
0,43449677492513
0,427915453210493
0,422007737710707
0,423129091157935
0,435544736720537
0,417862895172525
0,41522272660256
0,414388982527442
0,415831073274972
0,410276689434312
0,413937217347191
0,403965896795296
0,4094624132522
0,406558071526006
0,409542254009914
0,392264527246875
0,387344376698255
0,389149421161475
0,402152887346623
0,38001480604749
0,389549735478269
0,380406063523313
0,378255612751297
0,376293620029755
0,384837004272647
0,375872438964557
0,378090763996558
0,366226532921811
0,360751566678856
0,359264167983146
0,373931550369144
0,36104045382882
0,355179869043842
0,35669380485891
0,357796757433821
0,347878811724066
0,352979609816131
0,339072260259135
0,344865296615649
0,348797411727789
0,338541136261902
0,330866362234128
0,340998576528182
0,335874431590211
0,334405773126644
0,32800936410956
0,332980181811662
0,325211491992343
0,32623508310716
0,322528319467449
0,327272619704378
0,320896075488351
0,328014924174591
0,323530655150506
0,322368556072338
0,311223023784952
0,316990736578372
0,305321319895093
0,318644670571449
0,30915713623393
0,305479085529681
0,308954510056818
0,300963643480593
0,297499380946428
0,302805575989802
0,290433930258578
0,292471161001642
0,289951725757365
0,290478934642667
0,291128993319777
0,291668356862949
0,28376714227425
0,287518992840913
0,278318686845719
0,28199144657931
0,274009071774996
0,279287538091191
0,275936876018032
0,276585440212081
0,268186359790433
0,276198444492112
0,272261598212184
0,268968690367792
0,26391720104768
0,270747737107286
0,260581838008321
0,266444962462018
0,263405810432843
0,264570475483659
0,256917238456578
0,25641051480967
0,24670116719127
0,255233823340948
0,254319747862673
0,259476244652981
0,25179807765291
0,245306328525953
0,238972139620521
0,251659379504783
0,24355495733599
0,243015007930595
0,243969010838567
0,242571053962746
0,2373959453931
0,233480850531591
0,236155988965097
0,240662502757404
0,226870141012338
0,229763657521587
0,229944589715387
0,225564795249001
0,221709846469266
0,225762001918983
0,222948195582427
0,223418990235446
0,220329731354036
0,229912215393477
0,222417484935722
0,219558107446279
0,215750029488978
0,220080238892789
0,210048681153459
0,214870632714929
0,211200343115031
0,21027908470453
0,206936412914427
0,210752348259541
0,204593004742931
0,206692825707732
0,206394149169683
0,206450611929911
0,19327593481573
0,197448836281128
0,198861793010433
0,195071295305901
0,187456212539816
0,202816563115069
0,191057079668879
0,19007118289836
0,189054468187072
0,192915734502382
0,184842739872854
0,192893012668855
0,183232817011927
0,18935692158301
0,182729009339812
0,185257926681436
0,183535701844011
0,181526178121945
0,179597575027871
0,184506731298047
0,176834924761482
0,18002312757932
0,171798253428868
0,180266109892551
0,173427410469234
0,177228212936642
0,173611688068316
0,174648670840234
0,172811129244616
0,174548755868949
0,173045826156837
0,173877996320673
0,172030241491213
0,173407576088197
0,171868200888674
0,169341320365723
0,167654038528077
0,167636394421241
0,160813752736479
0,166986278959844
0,167633097194653
0,16871606768155
0,162118880386911
0,1624804824853
0,159912994684107
0,169068061013002
0,161047861102472
0,168942901152528
0,165031757199553
0,163898219929307
0,16678166181321
0,165058408214242
0,170668461597629
0,17318555696307
0,169478777113391
0,175740702083684
0,165909699941622
0,1691013847793
0,169534570095788
0,168450444240459
0,166170411035098
0,17740085182118
0,176328460832714
0,178418323630961
0,177762332577595
0,174667225777762
0,17775318385638
0,181259098597473
0,175529626212325
0,180335386029734
0,177948183682938
0,182649874733055
0,183049245515768
0,185460854099536
0,183319975946248
0,189874775912701
0,185817399490608
0,184989355092187
0,187932668686747
0,193909314344138
0,1975367355468
0,195747937073017
0,195562463576944
0,197627914571583
0,199181333585311
0,200179516863044
0,196100682482543
0,201233692191076
0,200276402076928
0,20574493368041
0,203544231944653
0,212758379108337
0,217653162929349
0,213666592585682
0,208232008789473
0,214698603712712
0,214571487487977
0,223168539763153
0,227733519975131
0,231891432999369
0,226921986511987
0,233564895596394
0,232624258734294
0,23492536907289
0,228988803872009
0,235718835340222
0,23277527019632
0,240069437853799
0,242439290780862
0,24241870634578
0,240071514967645
0,247760764744335
0,248724270537982
0,247852893059502
0,246152040213175
0,246749334572207
0,249453824057778
0,251853593584633
0,243562797784877
0,245670044348727
0,252359775637047
0,253716658736971
0,252378439755703
0,252346981580889
0,248693567268689
0,257137574361527
0,248804247226039
0,256980779856265
0,250160650476192
0,257357208181749
0,256316669033655
0,250603780598193
0,24995313834252
0,253520347816374
0,247370237399736
0,249641976800604
0,25108559763064
0,253717067522809
0,249424631385574
0,24787118297717
0,248505069777706
0,251206493816361
0,249346126074229
0,246256725506343
0,248583294163627
0,252701438595644
0,249403605257507
0,245904254629127
0,24735205956201
0,253136062151829
0,249594170892194
0,24950345516347
0,251501572701879
0,251662825754984
0,249577506875684
0,250544246677313
0,251757985719076
0,253453878233498
0,253833843425214
0,257771297864345
0,253645250801265
0,249150902035944
0,252497907405206
0,255013514554281
0,249938707265424
0,24841409790694
0,249714488238197
0,246850953339873
0,242694313076254
0,240720103957069
0,244706934574534
0,246834077808985
0,242786702544928
0,243939479207352
0,242859656562521
0,242578182797209
0,236651677678657
0,239746454465882
0,241467835985027
0,236127587008597
0,234332670150358
0,230591588356003
0,232522904579786
0,228518721116197
0,222673976968791
0,224998758861223
0,222660456975067
0,222242450107051
0,216405261443726
0,215420522458182
0,215233950500933
0,218761223196106
0,21485903915965
0,210598356350869
0,206647656083535
0,202508391802263
0,203782224625931
0,20146625321801
0,199321620669519
0,197278625508426
0,200857516186308
0,192280408696788
0,184751813853135
0,192994166012074
0,192601198165417
0,18863744755677
0,184546620916149
0,180161297503373
0,178976998891945
0,181811152675537
0,173172965366507
0,175160677985343
0,174953078168588
0,177051676740173
0,170720693150476
0,16984005417432
0,172501721299688
0,169494078477815
0,168704301987276
0,164475345505552
0,164728918608328
0,164355567560358
0,159804428761087
0,161738397988843
0,162593265461962
0,159765182309513
0,157793424985613
0,158837545066457
0,149055760870026
0,156803874380027
0,152631374209899
0,15212678940481
0,151485159144674
0,15037300688826
0,153678170968928
0,148871005867948
0,148567940441369
0,149013565836785
0,142958179241614
0,146830489915486
0,143642167271656
0,141814028139928
0,146218125766646
0,145800288469922
0,14633584061422
0,142991620230755
0,144021611022309
0,141053879961183
0,138040060222562
0,137875877696688
0,137204451833633
0,137480244276883
0,13625315128745
0,140314661295533
0,138105087406821
0,136237196927866
0,138636313698879
0,13729572593004
0,131660233661776
0,127675512552057
0,129458637157095
0,127187957230845
0,13175218728508
0,132534339576493
0,129407512361149
0,128815662557088
0,125122739812531
0,127556963787354
0,126630477162805
0,126941690517487
0,13023283465265
0,127037743807517
0,12624312216116
0,127079904439941
0,12533395846953
0,124454045398721
0,122808162181501
0,122649004673898
0,122216609627644
0,119808692462144
0,12477027635271
0,125936302570141
0,123344613598323
0,119881256437002
0,119575730996345
0,120563344756293
0,117527539285555
0,117082400125345
0,120536038493773
0,117383379124244
0,11673591362337
0,116964776161611
0,116509648016974
0,113627250149872
0,117277411904957
0,113631570309899
0,113764583356307
0,111925151248866
0,114889539964082
0,110387095771866
0,115497715739791
0,11310193573916
0,113958182037528
0,115572871319238
0,114864692131009
0,111586506910751
0,112100235316608
0,113225338776988
0,111769740584684
0,107289751108049
0,112478170206761
0,113798332046197
0,112746988643406
0,10985936275764
0,109286804620792
0,109323088718817
0,10744250799737
0,105988262399407
0,108733010947581
0,107159975762273
0,108707151455407
0,105534133457182
0,10672689656536
0,108228300993518
0,11066205963271
0,109212083974581
0,11025647671357
0,107223030830254
0,108306193332792
0,107650380813048
0,107150772522275
0,107441595569061
0,103767582075475
0,107178105418954
0,108115337072697
0,107079140544077
0,10371486993365
0,104319899941576
0,103727806986704
0,103906860718139
0,104832042971457
0,103872561944642
0,103176135659689
0,100838187774465
0,105770961604056
0,103933460717267
0,101403177830367
0,10517988550096
0,106232270868903
0,0993697784242016
0,103051840316277
0,10156041860029
0,101118841186645
0,101913574919519
0,100540648076204
0,096920966470505
0,100179403076841
0,0993306042885618
0,0945371192944741
0,101042657436553
0,0997762525315715
0,0989664014455329
0,101300251986223
0,100048281487675
0,100950229842303
0,0997229832210345
0,0981535410403055
0,0937985890471363
0,0981956145957598
0,0960029064998522
0,0977905389638549
0,0920220308343367
0,0948530692665204
0,094195221256593
0,0940994495632311
0,0933527357300909
0,0927087734943727
0,0934402344736892
0,0911532797243279
0,0912188721655557
0,0920243289684291
0,0921579421504775
0,0916792010977097
0,091527093609656
0,0902493603512086
0,0917096378096504
0,0880125878060786
0,0939511340917795
0,089304545434136
0,0862160627623827
0,0910576968653242
0,0864675549604189
0,0900333366514485
0,0889966644927659
0,0885675618735939
0,0912762354397698
0,0870096184899294
0,0897894307118103
0,0886634961130046
0,0868734016206951
0,0852078402245187
0,0864144193623556
0,0863919895034792
0,0831816836260055
0,0812099101130079
0,0810129323724246
0,0823749616943977
0,0830942245486989
0,0824615768516472
0,0840531174229042
0,0807040417417359
0,0809981675554743
0,0815839772730107
0,0786364692858199
0,0783214192188426
0,0778530687785033
0,0811472246278442
0,0779268193544851
0,078286275766658
0,0782180329203651
0,0767814860465562
0,0760355797149133
0,0777435330826438
0,0736909943649207
0,0753960442124507
0,0785770226484249
0,0763593679985292
0,0751632667919505
0,0743768715287111
0,0731462326400582
0,0745469719291543
0,0758413738933592
0,0750116412701195
0,0721970399708184
0,0757708476436994
0,0755289631960446
0,0705217056741249
0,0731102846542696
0,0758633546646936
0,0683874639577319
0,0701610358799958
0,0715173859040151
0,0712323755812447
0,0705499166093016
0,0725178894808824
0,0697140593776477
0,0690139050657877
0,0694968329692737
0,0677466188722959
0,069087280194561
0,0705573566605186
0,066486267699769
0,0691250873780397
0,0669362433413282
0,0666084801694605
0,0661146985550684
0,0665632841861119
0,0663283948873533
0,0632761965941544
0,0665470843129941
0,0656856629750568
0,066388795244456
0,062810465058459
0,063194925264572
0,0650887581767071
0,0650822637066569
0,0642927551765708
0,06274726608869
0,060282587081564
0,0579650782024038
0,0628286245974984
0,0615816980293917
0,0616886787069179
0,0609873791571018
0,0618820289831919
0,0588799192777497
0,0622284759531612
0,0607829892233088
0,0578261331623899
0,0611734655846683
0,0586501250771376
0,0581427505939242
0,0609856984378568
0,0575954204819691
0,0587062686547454
0,0561648739569444
0,0622773774815766
0,0573469874227656
0,0602763170555574
0,060488643891099
0,0587546511662569
0,057825969169908
0,0594537484024092
0,0578764262575063
0,0563108569495946
0,056412177029801
0,0558608277536567
0,0568076172476914
0,0574410416026278
0,055189885012195
0,054466949522531
0,0587405543973739
0,0571984122687772
0,0537179031993485
0,0551674418145851
0,0553301430216697
0,0543667643231351
0,0565381992868135
0,0565943814191101
0,0543072125336959
0,0533444161020637
0,0545899401694115
0,055124372752321
0,0526131288228031
0,0520550095797084
0,0525970650498343
0,0554959695536747
0,0523542589156013
0,0524906754421359
0,0513185523618131
0,0529206001852049
0,0563253347842189
0,0544171743511342
0,0493884646178891
0,0548019143092563
0,0517263971432331
0,052976567129354
0,0526291747547966
0,0542343598287072
0,0509044710676749
0,0527340413480932
0,0507203837488993
0,0528926061754686
0,0540180568471447
0,0511705021682534
0,0508523555450344
0,0524056024878219
0,0506216072178631
0,0496142824064603
0,0481029962552528
0,0486010555523875
0,0483014043607324
0,0517891077968817
0,0507073381932109
0,0493398345693462
0,0483306046822727
0,0470899273689614
0,0531318595502572
0,0483885478592736
0,0487756943803215
0,0520113375631285
0,0484311317496727
0,0518285969485835
0,0523563461012211
0,0504681200767746
0,0476716836648126
0,0474329344860914
0,0508013671621218
0,0503005173073676
0,0481804526167963
0,0450836775966307
0,0460718266972553
0,0468805044823511
0,0458729837637103
0,0484372870668806
0,0443272944623246
0,0534654334076429
0,0474326283405919
0,0470845170357287
0,0438525893009505
0,0478908377363682
0,0457479879213338
0,0467318464704381
0,0469265284178926
0,0465551993304788
0,0454890012723431
0,0457808256951864
0,0420369337707887
0,0481192422710121
0,0458352523721534
0,0472117015680429
0,0430444879045913
0,0470937849256085
0,0477196742484401
0,048605715348448
0,0450381219799412
0,0445978175919376
0,0452190660748529
0,0449890460487232
0,0434058807642084
0,0441677297206285
0,0439604531030145
0,0443433443443032
0,0412071417453949
0,0416652463529082
0,041392699066865
0,0422071587284412
0,0419042904075656
0,0411527237548194
0,0443551538777716
0,0420116449352018
0,0416051822127733
0,0424364531099387
0,0409056205062724
0,0405904097290102
0,042916040989604
0,0415370635049819
0,0386230426188853
0,0412030647520458
0,0415372851065069
0,0412059438341873
0,041904285723561
0,0404608078339006
0,0393863597150963
0,0416585462852947
0,0404829308822069
0,0393296300814957
0,0390253106701274
0,0406618865690586
0,0385887077362042
0,039350597309202
0,0391327045556668
0,0371827741908332
0,0372489613997114
0,0396094932699838
0,0391881582457092
0,0378262101729976
0,0385807856237559
0,0383099404432512
0,0353060313206588
0,0363915960037768
0,0368561719767694
0,0364207624927668
0,0374518103775423
0,0356283029030242
0,0351844771439558
0,0376454116916316
0,0363808513238989
0,0346529583377172
0,0370056157281592
0,0357942750032494
0,0315473425538767
0,032765051629865
0,0342338471012762
0,0345548233298569
0,0336050591592614
0,0362222865845904
0,0323653818088009
0,0347662087714069
0,0332342859131981
0,0347800282286629
0,0356847387697706
0,0358096125895325
0,033674081644958
0,033740882190202
0,0347659175727081
0,0325475097672178
0,0300606005490133
0,0346723053547002
0,0347002594778429
0,0342790950833708
0,0337417949560078
0,0316543352876196
0,0289871851228696
0,0337566168122023
0,0318899817115436
0,03367016692324
0,0293473526425961
0,0305313317214667
0,0307539646864302
0,0296953252321668
0,0314797772130938
0,0325071583976147
0,0280260090524206
0,0308417770328767
0,0313697728169131
0,0289907940489167
0,0297546273557273
0,0298393475616115
0,0297215168385006
0,0293625761292746
0,0288798019112075
0,0301254181479391
0,0286746790860791
0,0296818643674741
0,0293137489638952
0,0307984672520014
0,0294808581777793
0,0289952102418773
0,0289692294737505
0,0288155801765195
0,0272464391889125
0,0275633252616465
0,0279535911555445
0,0286397511906497
0,0263471541690707
0,0288885654369509
0,0283961182350573
0,0261330402228595
0,0261683317033011
0,0287633970468914
0,0268014245520863
0,0298621250488265
0,0283798992629262
0,0265164132698565
0,0291176330928521
0,0275915409289232
0,027706333789247
0,0294472692239968
0,0280482140041429
0,0258963309202888
0,0274270041302769
0,0241953569529734
0,0295657932058613
0,0268880516378733
0,0263909896597865
0,0269186713494422
0,030709836102463
0,0204246696872716
0,0190124802643406
0,0210640900391233
0,024391862478893
0,0264274788417012
0,0227830876703772
0,0207769792137638
0,0265466743672391
0,0190894574717073
0,0240074973282092
0,0224434620928893
0,0210995139882561
0,0276374725885794
0,0277621185901877
0,0198845495458671
0,0251035416851533
0,0228940990005112
0,031782827930177
0,0213782402293927
0,0216995714446708
0,0246782441229174
0,0243209537327014
0,0201412058839479
0,0309578649899042
0,0196232186963239
0,0239203550578303
0,0193135371791706
0,0235558158779139
0,0124402766059414
0,0305533956521928
0,0118942198372334
0,0325886243089398
0,0181411454475316
0,034797645837267
0,0179716065379696
0,036946315795366
0,0124442335122833
0,0355531470741293
0,00409370568343339
0,0369012558377705
0,00541680334369878
0,0441706024396725
0,00919963993486183
0,0483390227890692
-0,00078443452476446
0,0395133064630394
-0,001541136117257
0,0595276126288102
-0,000834655294526591
0,0420515030828952
-0,00223048298229935
0,0523375666600144
0,00450501143612557
0,0368783591112801
0,00927411854287817
0,0341570781080091
0,0185062858648192
0,0237485264999085
0,0311297860549236
0,0143876316320449
0,0354127265449813
0,0115138329015873
0,0361401393677674
0,014255368134127
0,0353729096272644
0,0115728840692704
0,0302819449116364
0,0214234180801177
0,0256915991180149
0,019222750952342
0,020230655633559
0,0214565601276381
0,0233259171799177
0,0227917215142836
0,0257142312491892
0,0213830771371917
0,0266232040757143
0,0185150306617481
0,0282223910714114
0,0207567016718849
0,0236014768942211
0,0175960476893677
0,0232672853995603
0,0202603929039969
0,0244329321491508
0,0210751822755048
0,0248360488403338
0,0207399873317772
0,0254075257870094
0,0234816850195507
0,0237760253449935
0,0217645077169471
0,0230774137722649
0,0198087526518172
0,0244954202231163
0,0218812970896761
0,0237840865040578
0,0208977044323143
0,0231101783886323
0,021054849512446
0,0228881207975323
0,020229141287585
0,0226407189164039
0,0208857874137421
0,0252645577806976
0,021087569339631
0,0256699085537353
0,020767676794271
0,0232237602523677
0,0207683245837645
0,0214664544819761
0,019795865221823
0,0232696940219006
0,0204283181775546
0,02425349648733
0,0204103476397794
0,023177761040748
0,0215619710848182
0,0240590153733509
0,0203602876244114
0,0233571257636528
0,0189995225391174
0,02301548604805
0,019349621501426
0,0245201905100742
0,0229257035688826
0,0220621362061859
0,0178356083677205
0,0236101969875882
0,020206435263567
0,0240612730513347
0,0212977932190998
0,0235505702824251
0,0184691904535513
0,0218414260129249
0,0206151117355454
0,0255266099845443
0,0188168531427843
0,0231176007476846
0,0203428069784905
0,0235745428044879
0,0188303461555421
0,0231207196389593
0,0220697731229483
0,0227649171676305
0,0210352284331362
0,0240206992243133
0,019674466188585
0,0230119305791906
0,0189017612328718
0,0213056015772771
0,0203898432209357
0,0223827829642349
0,0202305643208568
0,0236737270658017
0,0213670263240966
0,0245130156791659
0,0211355545866761
0,0246578390367653
0,0184600203598835
0,0244441801539801
0,0227109332566389
0,0242600996531019
0,0197871493139643
0,0228043569087702
0,0203832107201518
0,0234750141783615
0,0196701345146758
0,0237491597579639
0,0212957895909108
0,0227265740111597
0,0210506182196059
0,0234877407273712
0,0231634563885155
0,0221792533646076
0,0224439759816975
0,0271840906310105
0,0233354860781084
0,0242257066754963
0,0209204341974046
0,0230616786021766
0,0210168494705732
0,0235534188270234
0,0212336068526164
0,0217573983070086
0,0216008353771858
0,024046172331788
0,0230931996745368
0,0254365547763237
0,0241237915612605
0,0234672143868223
0,0228397352041018
0,0250272851886545
0,0254112994635921
0,0234792302887895
0,0210631873258806
0,0255448931202478
0,0217146775938441
0,0266130755173125
0,0230351131315332
0,0243447918032797
0,0227018653944238
0,0230045687243635
0,0196420339664295
0,0247883656611388
0,0237522842685854
0,0221138763616492
0,0239729926777251
0,0263036795568841
0,0230652862786896
0,0231784264417978
0,0229967394159105
0,0235634508584029
0,0209126421817198
0,0261734395748758
0,0227053337415865
0,0243012247806598
0,024106959282329
0,0249567663453937
0,0217930472088724
0,0257068374567124
0,0221255781775975
0,0234358085136474
0,022549231562287
0,0257927539831534
0,0221896445429657
0,0233263848837227
0,0225119861742318
0,0265524834643246
0,0226642145176345
0,0269374764835664
0,0224395649966309
0,0243978045588199
0,022842807730928
0,0252506187636752
0,0248333070768288
0,0258819538539633
0,0235025678296258
0,0239494379619654
0,0241644543861133
0,024909512861837
0,0225791120718205
0,0240142778108686
0,0246284805134439
0,0266943082968986
0,0239423359204491
0,0246045973502662
0,0231383217850872
0,0234148951836828
0,0208256386070207
0,0231027562991431
0,0228760866188378
0,024584540248523
0,0220552532762222
0,0244070408018519
0,0201361446503035
0,0240518111481364
0,0222345424192994
0,0226731563420165
0,0235652660136576
0,0235138038295616
0,0202046972258165
0,0231268965687165
0,0200976450894703
0,0241104952392363
0,0214250491088014
0,0232610883054389
0,0225641150825713
0,0242825442766841
0,0207483815584246
0,0226003707706507
0,0229268320866371
0,0258918806802087
0,0215134391632063
0,0243747227035753
0,0205754895241596
0,0205498170786126
0,0205571595499689
0,0228234349456773
0,023032033780237
0,0242559614968243
0,0209059496031152
0,0232016939999426
0,0231964502354686
0,0213818640599616
0,0200882234022401
0,0232934393089103
0,0206033818874449
0,0205927372438447
0,0220919113857342
0,0228527221651914
0,0204416333804064
0,0209567185575519
0,0231362266918146
0,0260071688646615
0,0200699248328838
0,0239002533199989
0,0242838793427254
0,0215787203403876
0,0211004677175552
0,0234702524398515
0,018580431602725
0,022241661018653
0,021015077005849
0,0220273198250808
0,0185059558645951
0,0239177666367116
0,0219308742826855
0,0221154692016166
0,0190538163454158
0,0221206533246716
0,0219296248040572
0,0209746623251693
0,0219458043016033
0,0237865406890622
0,0221321503591658
0,0217315803948255
0,0214465859522839
0,0229170815623716
0,0187958710653876
0,0232495155651903
0,0214418282283096
0,0222170273410293
0,0183813287460293
0,0214351373906446
0,0219571834564086
0,023863869692909
0,0202417321006859
0,0226043772629567
0,0224106770236857
0,0201056401058294
0,0206825517971537
0,0218777856988397
0,0220575437196408
0,023757884576047
0,0197288944194253
0,0217585547663672
0,0227916682612992
0,0225974347362685
0,0206622817041336
0,0205899608740364
0,01957306546681
0,0216628320669356
0,0218331102540492
0,0225057007476488
0,0189690114101836
0,0213544056642711
0,019820757150884
0,0226052990571416
0,0217129049252209
0,0220345991293324
0,0180642038191126
0,0214545523854723
0,0202976846923533
0,021998841551065
0,0186431300127881
0,0216430833994136
0,0175498098653751
0,0234311654046806
0,021762081364509
0,022039117632986
0,020570188144787
0,0206145778692117
0,0191620950605759
0,0218965792807235
0,0187807217332738
0,0225629391184448
0,0196078580461608
0,0209180003638213
0,0192863634644921
0,0225687012856938
0,0185469666956025
0,0212851695575332
0,017341780866263
0,0214918012290931
0,0184082642408102
0,0243088813374659
0,0206555333612245
0,0224660123744874
0,0182032823669218
0,0203153365154853
0,0187748773781382
0,0201534237941546
0,0214826318531362
0,0201868811734739
0,017467551383554
0,0181953528100947
0,0163316416341349
0,0204503750746353
0,0193470376808769
0,0184528162463232
0,019143066061624
0,0203672614977351
0,0176779378782926
0,0172963359657123
0,0188964853342984
0,0183004962202314
0,0177027023618311
0,0198210316890348
0,0190822814498724
0,0201534784490522
0,0165651677651431
0,0177662635101234
0,0201986179709432
0,0151209069654671
0,0232777406969411
0,0176674662048657
0,0187448124496965
0,0185572289339609
0,0190467490368172
0,0158183040735318
0,0175723677273156
0,0175008359373222
0,0177464927087978
0,0175234109526096
0,0160066766983523
0,0173300071711547
0,0169620576364009
0,018932066480054
0,0183032578880217
0,0170403529267634
0,0168671802442794
0,0176024654543198
0,0178961592067883
0,0189768470565437
0,0157586349045732
0,0136183127421268
0,0175026899579623
0,0177427716573956
0,018953236267839
0,0184908858189834
0,0193909275537194
0,0201071047912158
0,0160324146244329
0,0198916044940745
0,0143064981506512
0,0171485667580485
0,0149644670081081
0,0198238926184218
0,0157488650573643
0,0195708645598685
0,0171524308323243
0,01887281212313
0,0153339391206253
0,0174948104229291
0,0178034612824228
0,0165762198300175
0,0164242045935383
0,0179220417517603
0,0157611550413855
0,017259402185924
0,0151858799836195
0,0181951008489912
0,015635707539732
0,0214558657634161
0,0149106529343344
0,0217195807588716
0,0111290272123482
0,0292901713109242
0,0153671341817179
0,019788693624055
0,0155741310728377
0,0179455367684166
0,0164098797197208
0,0153240818998347
0,0160482176813415
0,0176037165843202
0,0150071172047906
0,0179691264846074
0,0157689367271902
0,0173975893097699
0,0160124345110216
0,016529203653515
0,0141857169257086
0,0192787502855188
0,0154792195727169
0,0175896060985217
0,0185625621059701
0,018101232835967
0,0184622027134008
0,0212104037273889
0,0122790497357452
0,0197340386853968
0,0151386009090019
0,0221443296136614
0,0212813951091378
0,0106589262854851
0,022365154022263
0,0119247959089313
0,0186571800961483
0,0120735684391883
0,0227250736058525
0,0149624927812763
0,0234165483886067
0,0132469591108225
0,0206307349301754
0,016286019473961
0,0149137482067346
0,0150001220156249
0,0149027778074758
0,0187265558723167
0,0178293368956508
0,0181195989450437
0,0166826082980699
0,0159514370473456
0,0160937911586992
0,0171787607651328
0,0183688241644844
0,0151539990676815
0,021718828439145
0,0134452668899619
0,0188178721784389
0,0132695033316524
0,0200270005205039
0,0139502512197086
0,0263141828283824
0,0134421346996702
0,0149830250126149
0,0191180700038394
0,01522226286336
0,0184173431743983
0,0141919586536296
0,0181257543817593
0,0152001116055295
0,0164405391995064
0,0145572000015006
0,0197731154500116
0,0166232149858961
0,0181718086356814
0,0141494550470421
0,0164337475896463
0,0142337676452975
0,0180671625383086
0,0154415781753305
0,0183810555993482
0,0190594671099487
0,0192810811892051
0,0262039720247962
0,0172373919249784
0,0204192993180137
0,0138693834014207
0,0208753393426121
0,0171509552975307
0,0193007296003379
0,0144584529964174
0,0183857583790483
0,0157759007312428
0,0181590006574011
0,0160323221984809
0,0177529389516053
0,0145795027628451
0,0165168982079616
0,01435920997764
0,0191467009190027
0,0175408719029453
0,0188837621032006
0,0167811943566664
0,0147595390613749
0,0181967655400998
0,015244071348121
0,0229062177914681
0,0132807279884109
0,0282834078150875
0,00615617350148928
0,0357922628946811
0,0129313062744986
0,0243560866001081
0,0138806726452108
0,0189169034192986
0,0142819812567187
0,0194374567171167
0,0177190425910408
0,019244565908071
0,0161768776265224
0,0186303180253996
0,0160532703719014
0,0175717993848452
0,0170417872306869
0,0234200297174977
0,0220543192003735
0,0269407716790067
0,0122568143102319
0,0248038897034808
0,0120133325475842
0,0315642745842384
0,0203354973019176
0,0140263277614267
0,0198631951142579
0,0168368600266669
0,0195575012020542
0,0186300570988742
0,0208443120573392
0,0162645480747826
0,0211732542592573
0,0173574038638494
0,0193374027008671
0,0191051792769049
0,0169031766911335
0,02321021998778
0,0161690478995673
0,0201959038765565
0,0215956050667802
0,0187621581370861
0,0221323041840978
0,0168828235275949
0,0225310694042146
0,0173491546809679
0,0228464899029472
0,0192249793432883
0,0241591301110476
0,0211027660482078
0,0181070016464158
0,0243515356957276
0,0193747303730703
0,0202841203912042
0,0279962017130895
0,0145501277995607
0,0305679619439676
0,0086024188423968
0,0405464938214747
0,0173219682277839
0,0256229010661734
0,0225978273272895
0,0190685957791666
0,0206425188169725
0,0184914508257155
0,0252944847618929
0,0122967624700628
0,0339726745890187
0,0118086835928585
0,0342259408750985
0,00475592552741129
0,0299548820109643
0,0147299364610788
0,0284321321052126
0,0184860787722413
0,0261768868377032
0,013385057255872
0,0322174727779711
0,0158885100414817
0,0350675139148909
0,025787642800323
0,0165335282659879
0,0301894453079694
0,0272524728761821
0,0201293250246562
0,0311461060972871
0,0148628921170427
0,0292902172610325
0,0137436418357457
0,0325034954140054
0,0187727261160594
0,0312074880113381
0,0265818817648523
0,0220003134565245
0,0249316079612004
0,029440237985325
0,0203697391010038
0,0354976642754844
0,0175059893700984
0,0299004360242093
0,0193028418310054
0,0441579228581601
-0,00387913611478827
0,0544647926434308
0,0102922108967933
0,0504873268388942
0,0193870907088962
0,0358460395898466
0,0249519808469626
0,0379809700129586
0,0279363056397373
0,0371779158913724
0,021410480196448
0,036147255266529
0,0202542397630694
0,0403262667787323
0,0320745413801179
0,0298240552847584
0,0371335327237909
0,0327522222174311
0,042482744276639
0,0582825175577701
0,0319112177763724
0,0362735586431504
0,036708159213645
0,0339177947215295
0,0437362891134302
0,0280393334081782
0,0364306712002535
0,0362369687259284
0,0359198309483185
0,0369114531315962
0,0338241404552365
0,0422334764061107
0,0304125519786057
0,0436430460878421
0,0373578590935703
0,05481822711086
0,0433124304321306
0,0486825694336993
0,0566984004690713
0,028523552022917
0,0571434030362623
0,038806966588086
0,0457544651080852
0,0432308325066568
0,0447393108837622
0,0449493308735973
0,0439861475624978
0,0581561381138984
0,0378077154198612
0,0641912210381629
0,0437316085057759
0,0580970942695467
0,0546055024418913
0,0531371362460012
0,0829738957425286
-0,0358996687532952
0,0955686028001064
0,0471744106339627
0,0806873350532683
0,0509207908928212
0,0789178069517574
0,0724474598855386
0,0736508954595783
0,0728211346638967
0,0796036711254212
0,0741070020016651
0,0824747416482143
0,0870454468187297
0,0893117886481587
0,0870371531116714
0,099130283764372
0,0870236605026296
0,124168204454473
0,100797883854127
0,111273707920103
0,11173666447715
0,122952164128033
0,113606102806759
0,125847761388031
0,111781345893482
0,13832982433496
0,119606948447385
0,140923924709913
0,140410118981692
0,136433451117272
0,149529568352941
0,135038138475851
0,176951385991382
0,107760313253091
0,176185193413904
0,148308605601763
0,171521287971732
0,158774438247105
0,168533485063872
0,172445208157212
0,165732529533118
0,182762074111226
0,173848631482458
0,185132121698112
0,183130470741333
0,185641838506124
0,192396768709868
0,190265988820955
0,199567879480174
0,176767150279796
0,239092717771723
0,100954189374163
0,224313964400385
0,192230153278678
0,19856075609357
0,196414469984605
0,193372959117794
0,20925852828221
0,183116956674826
0,213470855338825
0,192914829357009
0,199277060619306
0,197814494209273
0,192592627585704
0,200932869904085
0,189682345058141
0,211472562044573
0,182816587427853
0,222572678333871
0,156397172167759
0,216310327628041
0,195311515057855
0,195531425909149
0,195787366026819
0,19606097287976
0,185888335828218
0,195235588992046
0,19278761220359
0,183798700363927
0,192376964283275
0,17348092476155
0,196499527563008
0,172353475256708
0,198060771506057
0,181718773905489
0,174301094305726
0,183303819444755
0,168829808753197
0,184650597993079
0,17468131534585
0,169379459266913
0,179449313234019
0,169421328596618
0,172694425307142
0,161764442916521
0,162388035750661
0,167521804020601
0,169732193087115
0,165211288120311
0,172919347335086
0,157287109028192
0,16766924739941
0,156357767477677
0,165690011837166
0,156535146466799
0,168360754299697
0,155218992489401
0,162448514472686
0,155138637890607
0,157830822266231
0,160095641607129
0,160987457079517
0,158685597875674
0,16058165338726
0,157356714666598
0,159133427146221
0,151634775500595
0,157852597458354
0,154778492235143
0,158650772287327
0,151620531326984
0,154321938918233
0,15331950522315
0,155854692197699
0,152370610083406
0,150658572823236
0,14989726947599
0,154547388729322
0,154807576773881
0,151533539043351
0,151981144847866
0,147463833586408
0,167754604654165
0,125220112872426
0,16364740771111
0,148695644866984
0,148997104022102
0,146902193687503
0,141382727159665
0,163902839392867
0,123853889951345
0,156917925358013
0,142661723676642
0,136154218844461
0,141734001192133
0,139924875098092
0,137678295669391
0,143211569892853
0,127544863888229
0,152376964731682
0,110981730730875
0,166231485766636
0,122287475406456
0,155535282073207
0,134063082580202
0,135687727587902
0,137028031518587
0,123895965514544
0,143624276763184
0,117338669318941
0,144722500569122
0,110645771638215
0,140660224006621
0,124358649742817
0,120224202297931
0,133120081047439
0,122826573849258
0,136443087264272
0,136990361941583
0,135796035806384
0,130803265209731
0,150734018323019
0,112645545659246
0,15513087177448
0,119034648862151
0,129161249095778
0,11350354951255
0,11740468442687
0,134454441675214
0,097764990963209
0,13081585526155
0,103554608533644
0,112948448534164
0,107807294073483
0,112684652927472
0,118107783791779
0,103465967040379
0,12656681673716
0,0828781723690478
0,127372602176141
0,0881754748145868
0,128348703275728
0,0943834068956494
0,126225957610883
0,100837954303155
0,113211404734308
0,100997485912529
0,110976299549666
0,122976433474127
0,0978566770298136
0,098162336649492
0,107298208951823
0,0808498054672108
0,105656405242957
0,089346125034061
0,108120003200435
0,109005466048734
0,112326992703097
0,130992276774883
0,113465488939182
0,0932285199931853
0,0943498685213474
0,0871465479021075
0,0992584390913706
0,0816116971147048
0,104514461392718
0,0786366217400806
0,0968761555473292
0,103658039080095
0,083589814699572
0,103157282457932
0,096588172677886
0,092569816954756
0,098549975526427
0,0963191890493949
0,11227641889496
0,0958242473580359
0,104987034743491
0,105735029812698
0,100238635178766
0,116763864962835
0,102731266433674
0,111430983278522
0,106110528972951
0,117465456738876
0,108475252751121
0,116686568465851
0,118631982663375
0,117640323701189
0,12528446795679
0,136887279812636
0,115973296607772
0,150258102622329
0,116061752338804
0,167880623092529
0,127097147351738
0,155927872960111
0,151392934306341
0,149875461580072
0,156611550660748
0,148151669935336
0,159743714884518
0,164592059347364
0,152562778450637
0,1761436998359
0,160275639984458
0,172633523224451
0,162826772612048
0,187326237390083
0,163859531781741
0,195379267029397
0,166300938586859
0,186474044560041
0,198369932029445
0,181337952050881
0,192889814767876
0,183755052472906
0,188234698250236
0,189197835858509
0,183610053194015
0,198473420306545
0,181234324159128
0,200042519395811
0,189012524396765
0,192496685993384
0,195594671931239
0,193371966150436
0,199112102311586
0,19908343691244
0,19787931749599
0,202351080616569
0,202152614390931
0,220714481640774
0,196701326664111
0,220159591877987
0,208313006010513
0,215835566195016
0,221656214475121
0,214562210350009
0,225079862181132
0,219974512270153
0,226049546283497
0,222949906098333
0,221137613289562
0,229131938832293
0,221627335826902
0,235772159526032
0,218605201436863
0,245981359739797
0,220837252893885
0,238148033500374
0,233489992211777
0,232971001458669
0,254346074447072
0,234554395487376
0,250794091070958
0,237572057907852
0,244368056049069
0,238414767078783
0,247986330164769
0,240647399747549
0,246354068587176
0,240691439987759
0,245547022318384
0,247209428366203
0,243145790706563
0,250090594307356
0,24278426712254
0,247815601462753
0,239686130081437
0,24165157767798
0,239215357648555
0,249380007995232
0,236176404031411
0,248243096517907
0,250126129113351
0,24029244565898
0,248632047993523
0,243327094855211
0,245098301582084
0,243671341817421
0,239955644831008
0,242984060349655
0,243064651433692
0,243247680476268
0,253050883438784
0,236842186853639
0,25574926767005
0,241329441408522
0,247200714578972
0,243048829811032
0,252213225413316
0,242430404934723
0,253627063614221
0,244229989431547
0,25837482194388
0,251527932370986
0,256346499451139
0,247673242106304
0,249352044143298
0,258664082715174
0,254942209893539
0,252771249276832
0,250456682601503
0,2423094772837
0,254261915706487
0,241955026104861
0,245469131350019
0,235635691569309
0,243926653131082
0,227116594862271
0,252636236496105
0,225682823302649
0,238743436793491
0,23023892736302
0,225676304286889
0,225594317181189
0,22080450154537
0,220599617426962
0,220817867465416
0,221420575266005
0,215577177106215
0,213609225917927
0,212372894696162
0,211844584082324
0,208790775708829
0,21233698687258
0,210096764390982
0,21000561112149
0,21092656122216
0,208965400028536
0,210735893060163
0,204319603620629
0,213208812600703
0,206132051017477
0,213984773943249
0,209501471070198
0,210713347138185
0,213113093327471
0,211084659527653
0,213794268468716
0,203625568011777
0,212885009219134
0,203173366025938
0,208261178605367
0,199631246259663
0,206409635116543
0,203286428311112
0,205704578366465
0,202599171941073
0,205740810685264
0,201287873397276
0,206017940260459
0,204651908126821
0,206176627025592
0,200886692211581
0,205496992313448
0,202495899371994
0,202798197168262
0,203774263750867
0,201337385440162
0,207904640739242
0,200017625747532
0,207175752582734
0,20489846169693
0,205374843134157
0,204460769782156
0,204235251316714
0,205110816819975
0,202761529607648
0,201830563348135
0,199929217391714
0,202712188070642
0,20526714614092
0,200452739765817
0,200134713801722
0,199116630488822
0,197496994496647
0,195769458544214
0,193802532533393
0,192396300428741
0,188222096860677
0,18880382385369
0,190841894345957
0,185972573917484
0,187220924125834
0,185567619401841
0,182160681640776
0,180238001556992
0,180718539552497
0,177247250144635
0,177951465121068
0,17581726309294
0,1748262282288
0,174766701726849
0,174303662707432
0,171490008089734
0,175747876502733
0,173386699156241
0,17206823638013
0,173371668231532
0,171697869422401
0,171703901656494
0,176352456806819
0,171162866029688
0,170142813029551
0,17136456366201
0,175609699009711
0,172010525693013
0,1770332045783
0,175333807988517
0,180070419480553
0,178537144106272
0,177689914345165
0,177745320175561
0,180225242266759
0,181286051778684
0,181469636180918
0,184716214073558
0,182199561384363
0,183962275765746
0,184397801406751
0,185549369260732
0,185371776631447
0,185824461171938
0,183507444282202
0,187984768895803
0,184469103031712
0,184351141740434
0,183668940634269
0,185674762666074
0,183886253638117
0,184346807168116
0,18344843722973
0,183226240280163
0,180268119218299
0,182459992673067
0,181555036209359
0,180260924964356
0,181821552769527
0,179819922444722
0,178636220495253
0,178786170947287
0,17808587579325
0,178699520617182
0,176170051508747
0,17616087486223
0,176061464605123
0,173612771628344
0,174787932811259
0,17410062799948
0,17324918545135
0,173249637130767
0,17278139443451
0,170704963712924
0,171061458542543
0,171124970187962
0,168500678589785
0,168975490048544
0,167943952618308
0,167765324598625
0,1670117605471
0,16813658979158
0,1662550536657
0,167516197481673
0,167262473691182
0,164832542102461
0,166123069685201
0,162566293060832
0,16203798015752
0,160749724739424
0,158218443670152
0,157693116619903
0,158991867625855
0,153396626175218
0,154741718641762
0,152166478659134
0,155007308670278
0,153164072960137
0,151843351395226
0,152214427483369
0,149466002952035
0,149123135378654
0,152005679132959
0,149934460664762
0,149997829223585
0,149832036864864
0,147276029752388
0,148764031090421
0,148142188606722
0,147364573468711
0,145738590199956
0,145389032944051
0,145204882096234
0,141120458114007
0,139959330805696
0,139440073356866
0,137911823818783
0,135614460011648
0,135528677636076
0,133670699599879
0,134907511154509
0,13363059405031
0,13610803789325
0,135379279363002
0,139539394179683
0,142444242495118
0,146686469419468
0,14984383536127
0,155188243590571
0,160039148342423
0,164548167449371
0,171847984097298
0,179544642550928
0,187318151409162
0,197326221107701
0,20321182721991
0,212455188304635
0,219906689318585
0,225464403237532
0,236319554158747
0,242577209157646
0,250944790489271
0,257291566672123
0,263569077296595
0,272429841182581
0,279703012470283
0,285808763475621
0,290176339508164
0,294332342442765
0,301673590937497
0,307733822735068
0,313654194802064
0,317511734722683
0,319667027667766
0,32278081510883
0,327811775621993
0,331935254030009
0,332982291252589
0,336292368221533
0,334616825590987
0,339373578645789
0,337980400865247
0,341115451689753
0,340253849585673
0,33807516345383
0,34066080448953
0,341050866888733
0,341370919059688
0,343382359486326
0,344125853183002
0,34667111066716
0,347020904039591
0,350769492105679
0,351295889714855
0,352188849161524
0,356372724232055
0,358425112777343
0,361496304849315
0,365222940647897
0,367890211961876
0,374264889220662
0,37503088600456
0,379813410174255
0,382798607716073
0,387861314670043
0,393677413508948
0,397931677667633
0,404656314821207
0,410745750576483
0,415712855847042
0,421112716227415
0,425696484656228
0,431696855469776
0,43700512072149
0,444313546513031
0,440255699943102
0,441973385689756
0,443739018018535
0,449083780389061
0,444468624674028
0,443708709021828
0,446025656405716
0,443390791974461
0,437924389606256
0,442222752632279
0,436120150974371
0,440775401887905
0,438161290754766
0,442441438036268
0,445851513184256
0,458696000253198
0,460972246696928
0,470389934414623
0,475596262405638
0,48867749789388
0,492521550339148
0,499529777294076
0,506080001469955
0,520868572757658
0,52780420565331
0,532214821192592
0,546984515061241
0,550717730131098
0,562094512614508
0,568138967812404
0,577020999653646
0,587954493757054
0,593042131755747
0,604848133244086
0,61563378223341
0,626654000080356
0,634181833047602
0,647440279396948
0,660849982015028
0,671728266844762
0,685543099096545
0,688745199469494
0,693163579951003
0,704105356334459
0,711533285276642
0,714998723856635
0,71622525901916
0,73670813979988
0,734613983175792
0,744153173420654
0,748118641833628
0,745825994682304
0,752237852574001
0,755206845824483
0,747588422953875
0,746762738356396
0,743131945928406
0,739659589577545
0,739579418902688
0,726434441657825
0,725179604616312
0,730281522661143
0,71908473274114
0,723481300365667
0,72753696742278
0,719249660603141
0,722371945745319
0,723484096169916
0,720163835038929
0,736442594815003
0,74205997094211
0,741671780178477
0,75226463912603
0,756601452314113
0,765034504530141
0,775118357594283
0,788655719431231
0,779004141415424
0,785440811006755
0,785427586443852
0,787725123540522
0,791326837237459
0,789195586474028
0,794326052524457
0,795803474668148
0,793756757276553
0,805953538771511
0,798069451026281
0,795783520830834
0,790639907115733
0,793979029206521
0,7903514215827
0,788408846514736
0,784589932282176
0,78425103907235
0,776436601492444
0,762952224937949
0,762586714024579
0,75668575196231
0,760421777291462
0,746124176628461
0,753129932925998
0,733912918586353
0,732415451994975
0,728013576229935
0,717583013133215
0,703314710583818
0,693738282609338
0,679735711571292
0,653280356048617
0,645097052648635
0,625958475913868
0,602150498628602
0,584359883088624
0,556026359307102
0,536223247723621
0,515856119976261
0,494776681122335
0,47742435114588
0,457244119896593
0,4429733248327
0,426353839611367
0,417286992850834
0,406342777549889
0,400919673625949
0,397990567967696
0,386205151342894
0,387208862425143
0,382062493188488
0,379896592229219
0,374074239123789
0,373773373202904
0,371498042812304
0,364542610674408
0,360944824677152
0,354623994750994
0,349458108690226
0,349812551423249
0,336817965373364
0,32991214238952
0,319628039313148
0,313491063816103
0,306825204697695
0,298892371981042
0,287246508209632
0,277116986950097
0,270557308395768
0,258983367355373
0,245811518826854
0,232167862763957
0,220829402620673
0,211348380662558
0,204325269034738
0,192493451119918
0,181986244133573
0,175328128445102
0,167712704978643
0,161354573404561
0,150430348819387
0,146511699932893
0,13940642408347
0,137739762266485
0,130337299552471
0,124399968719129
0,121812326232488
0,117825730961495
0,117801057116396
0,113286983386755
0,109438416001465
0,111295456375537
0,109345907094294
0,110812884280347
0,109298457210599
0,109028134024838
0,110503966431409
0,109301308234595
0,110995385842367
0,111600523405723
0,113737557549358
0,114591975512541
0,113099531198347
0,113467740804984
0,113786107791351
0,115486118845058
0,113289996568647
0,115934244782838
0,114148840380887
0,113861611717294
0,111998547438312
0,113144035283274
0,110809680686458
0,106182732287269
0,108131702936028
0,109212154884897
0,110848310963182
0,110156105584462
0,106432310760945
0,103666234482027
0,103615420914951
0,105871769710646
0,105259769680903
0,110437405357762
0,108007287937444
0,110804389152683
0,107965750269264
0,111228527964449
0,112589313535222
0,11565425969327
0,117857882742469
0,118085062965018
0,117089617780101
0,119332256031443
0,117914810987467
0,122264988169748
0,124996982942223
0,126334667311398
0,123928226591693
0,126788133416902
0,12358368360512
0,12782979303573
0,124839370018144
0,123917150540922
0,12624231956028
0,130048613539162
0,133498371389376
0,131435848544086
0,132153609698516
0,132699750942977
0,139752165131656
0,13531044079361
0,142942575428954
0,143316539164113
0,149928288853524
0,155420599402586
0,154523560850598
0,16495764938323
0,170378421480316
0,172290197565185
0,174419547468389
0,175348007953146
0,177821589355488
0,178794912499259
0,171608372768426
0,173905826507209
0,173823898546087
0,170984196755185
0,167193689004356
0,162092043618537
0,157176731552967
0,15746833049795
0,155302292017885
0,151651946700309
0,155414441370932
0,148291623157846
0,150642668529677
0,147935888690749
0,15179463967513
0,145940633950965
0,147829152773569
0,148310830528026
0,152707286206909
0,150985886538559
0,148682217119538
0,149299673046086
0,143618107864965
0,144384539967373
0,143501677178276
0,139170333361871
0,133154175899207
0,135515492509979
0,134937407648803
0,137851884320245
0,13270282929922
0,129158684840403
0,129058552148745
0,131543230368353
0,132807821688519
0,122312096404416
0,129037735788026
0,12661425301004
0,120790184972293
0,124452979486974
0,122577211916913
0,122217597404693
0,127160594383687
0,119517369128267
0,121123356638651
0,116515832312818
0,118661173538512
0,120294209046954
0,119559319221331
0,115553061026383
0,116932487586238
0,119095800671093
0,116278844198843
0,112761549708629
0,109693269692907
0,107766319841742
0,113358508143967
0,102498721375543
0,102519172735185
0,108707339981237
0,109115910784736
0,110713573457303
0,10189618627134
0,100525296342207
0,109269719073113
0,108514796223423
0,103730440577609
0,0988380893512537
0,112214501021809
0,110873779933417
0,101589526912239
0,106059120225948
0,108127833084522
0,101939048159814
0,103083374502968
0,103764622894478
0,107163509515197
0,102485468251978
0,110002825428925
0,111127438190026
0,108011591477256
0,108271844784491
0,1128231017698
0,112177828428981
0,113956373648867
0,120634666931547
0,110802766584794
0,114331334484427
0,11717756425017
0,126746179761962
0,127181634937337
0,125280456832496
0,12804643896561
0,130086097449221
0,12173103974257
0,119049406606935
0,134079128402737
0,137199023922844
0,139276818508204
0,135738194284822
0,141449277101866
0,14730221076633
0,162884518190138
0,161012390596862
0,163244621920689
0,162348904198075
0,180413160463076
0,185588252510984
0,194889526900014
0,195451240398896
0,199179554328294
0,206009198721001
0,212909155985256
0,210558061320648
0,207474617733044
0,220655089054867
0,222723457341063
0,206196336231475
0,216558863220127
0,216917767786663
0,207255741889648
0,207921683625193
0,20244790772586
0,199086573539735
0,200931571314657
0,207318275613264
0,204897655620691
0,203017025763746
0,2092022996046
0,197195722753541
0,194959588562869
0,197920139325655
0,199199955494116
0,186442312029392
0,186603052843286
0,198109147750603
0,19205881211713
0,188355085432905
0,17829700588277
0,184427133001273
0,182574210027663
0,188690059051854
0,184423049882453
0,166818712895852
0,160684212810636
0,179822567627035
0,182999127804371
0,188475558264301
0,183736868458105
0,160218056229903
0,161868871301185
0,166933363512512
0,169307639404782
0,170673794222951
0,152239157602653
0,166906066475366
0,162930962376218
0,172445832275328
0,189025950395387
0,158432041227619
0,175270252173665
0,178780928477643
0,153381701354897
0,16910982783728
0,177743033454094
0,168054981453444
0,181157411018958
0,175005501694159
0,170052297116069
0,191666456402417
0,179643817389693
0,176576873804922
0,189494178484132
0,202606885478056
0,183687327710768
0,186070346280598
0,197172016753173
0,183375152084122
0,191880897521632
0,17838099449739
0,18833220536174
0,19943260540727
0,203074412390945
0,213848433162532
0,228805642274549
0,197750035193444
0,223646906517221
0,229097807104353
0,206725456307597
0,212636322823888
0,234837500748756
0,228838504379674
0,237536818145583
0,232930099685917
0,23200932498694
0,238565818801026
0,25442946803804
0,271606911511188
0,27963521071968
0,261325374990351
0,272450724161795
0,239880167176195
0,244796942666557
0,240936134459212
0,233544609738582
0,261810927303346
0,275463112794192
0,267636767099709
0,22655976339795
0,20177505788586
0,243892856862514
0,211134457315035
0,253888398076491
0,227479063482625
0,201703823081287
0,215520706564797
0,20158952653302
0,204192848286549
0,241327530643512
0,201759219546131
0,27054417268551
0,282293780769184
0,234790884098134
0,234881761689134
0,25957897885938
0,230348827890064
0,165208718798834
0,191134380078403
0,242246935262072
0,191968231857878
0,232534991747588
0,263365509919663
0,261561180946142
0,285051134432746
0,204796155172179
0,187737613720302
0,285968002100532
0,24707444132762
0,221339698734029
0,151359649482883
0,30584709443763
0,316759912648451
0,248162607511556
0,245445421151508
0,232593836307209
0,227573269129034
0,228903983775805
0,375912497662733
0,278731246321577
0,262980952916038
0,311540184928712
0,105529120011848
0,193153063193918
0,464802245154919
0,359798520599503
0,173239211542694
0,166593417299973
0,165632410351142
0,31764383043778
0,302351526923415
