3596
4000,36533379555
650,420452594757
1
2
2
0,00819350854294433
0,00829475522022934
0,00662440691631315
0,0083919288595671
0,0142363546395958
0,0133414800529032
0,0182994648127062
0,0180987323439269
0,0134862779763407
0,00881742853397559
0,00611211561612479
0,0128749232575354
0,00991541721041002
0,00199781425032378
0,0112620832927238
0,0105630346258852
0,00771514104045316
0,00860369440708955
0,0205800427772769
0,0209800059913056
0,0150668290957984
0,00964722356112886
0,012651735995299
0,00520059721066474
0,00465550449415485
0,0082533600587116
0,0110078142415124
0,00896382520146387
0,011724524743022
0,0084039819335978
0,00989503343000562
0,0128896134121312
0,0222163588480779
0,00997662255795239
0,0184965327017281
0,0134473825995952
0,0158054188912817
0,00658876144599427
0,017396644079496
0,0165170643151068
0,0111086751880152
0,0105120849691632
0,0103594842625379
0,00386086297275153
0,00778275530745095
0,0105256278366172
0,0125908593395908
0,00822618002890664
0,0110850914505394
0,00606167448985469
0,00860720014585007
0,00761062611397378
0,0103633199382895
0,00576448497321974
0,0132731368022374
0,00798208860292452
0,00279062238511188
0,00928307706349643
0,0148081981577041
0,0166521389859311
0,00224965144119347
0,00541395439837191
0,0104351311974695
0,00651020934131887
0,0154408552858718
0,00727971473157682
0,0140206133689628
0,0166054416172607
0,0203807613899387
0,0128971109525847
0,0129192086626249
0,00273405493388819
0,0137066630225797
0,00761906382557932
0,0205165767243066
0,00985360549494148
0,00872922067711019
0,00430559119082162
0,00685040189985649
0,00334784497646762
0,0192030566150887
0,00861068459773929
0,0129244346155587
0,0106961366311947
0,0162646902861079
-0,000175964365133202
0,00462334045722278
0,0095869536766994
0,0191111309188881
0,00239500119471805
0,00771999735194853
0,00464957412710325
0,00881325709169166
-0,000564768239454352
0,0131127557665168
0,0123049261953328
0,0154492687770914
0,00538338167464623
0,0134768265595059
0,00178958675430571
0,00613978831683575
0,0121991024032973
0,0134957854454279
0,0165976667730702
-0,00136002759687352
0,0138159978411827
0,00195121349106024
0,00228740896026267
0,00715524666964621
0,00793608311860868
0,0142808301207184
0,00839355971356276
0,00873204211395141
0,0121102381578418
0,00432267075471091
0,00701483033391767
0,0116260234503584
0,00281958820078266
0,00732826713889253
0,00726687055878256
0,0146057086704547
-0,00549809930688865
0,00581822426143226
-0,00386796456082431
0,00514323112155179
0,00671284029224108
0,000809910536717038
-0,0109834213601484
0,00664354645436941
0,0141093990790187
0,0181123236836188
0,00619871627171832
-0,0011785562058747
0,0035933188337126
0,0187917369155297
0,0111271893376701
0,00599578331211688
0,00863173033673958
0,0145228380217811
0,00601631772261279
0,00687766512930963
0,00760718270980739
0,0184929944611786
0,00775158377555349
-0,0015033559816394
-0,00318139167814932
0,00401579392316342
0,0050996677408558
0,0121856511942344
0,00439992584789389
0,0105775211228743
0,0119968708266729
0,0156220697040889
0,00399367995980244
0,014528134836441
-0,000512318779883804
0,00710648278150985
0,0145958454555335
0,0139126740020291
0,00430952979712348
-0,00287561148118658
0,0140309383692503
0,00568491010997623
0,00992882832611105
0,00757354187007654
-0,000131932476389711
0,00585331717571025
0,00761096656608107
0,0152246940852068
0,00690174254095961
-0,0100064872658657
0,00707544388479815
-0,00142750473305142
-0,00133446921549935
0,0174221855557635
-0,000126843518113183
0,00564184929915213
0,00647075311059449
0,0109881947021674
-0,000629470661066083
-0,00456222508003673
0,0124769535556431
0,00891125140990674
0,011415246999872
0,00853128502974877
0,0077043894635045
0,00891032338103015
0,0101439382430145
0,00987081015830553
0,00222155945995049
-0,00394637712344376
-0,00747042388721405
0,00772380690793541
0,0128939488559077
0,0023096775078721
0,0102406094467239
-0,00695494570436803
0,00351347298740391
0,00688621248951888
0,00519716552220709
0,00441550746987347
0,00726591502485815
0,00417384535619296
0,002893874566839
0,00746312581819017
0,0190207927171599
-0,0106151504246562
0,0103495994425844
0,011295652989983
0,0106428050897407
6,32488418431795E-05
0,0152487614090522
0,0105953732658453
-0,00038634568169721
0,0117245192872389
0,00238276312431709
0,0130057662312015
0,0086578841177965
0,0144809237750227
0,0101745128815132
0,000940541570046714
0,00313132627014862
0,00215485430306952
0,0091690449658734
0,00576280558730354
0,00579967320964659
0,00753040150814814
0,00780127683067966
0,00369114372822275
0,00465877315631077
0,00613619808836245
0,00982638725146027
0,00509061819675446
0,00458442357833222
0,0102268094617935
-0,00111443857627384
0,00978307282185035
0,0111852066547226
0,0123151531216861
0,00827344458296736
0,00510886318244854
0,00392509444647402
0,00604677822228833
0,00814931743514731
0,00266037243065132
0,00895624438160699
0,00102243539893527
0,00816569014588978
0,00425069740696812
0,00598894890160468
0,00357362454717215
0,00881492612922502
0,00752486256754675
0,00701263215969103
0,00800585519575151
0,0101393727696008
-0,00619315496965735
0,0118219426691884
0,0047245206896549
0,0139029470869805
0,00695400626322137
0,0179078730821503
0,00912962829944598
0,013199427233541
0,00512729451110292
-0,0212385642256242
0,00205767247361118
0,0232104256716379
-0,00633826158495077
0,0187779375450329
0,00568276173881983
0,00987241768732624
0,0031508882148132
-0,0229228528883844
-0,00510744620306694
0,00651711402338284
0,0101128751042571
0,0169834758309338
0,0107079793987867
0,00681889600604348
0,0157565485847917
0,00224560618234863
0,00692191531956099
0,00253997744614154
0,0066240198907366
0,0186741614253673
0,00177054346048512
0,0100141136155483
0,0084532069101104
0,00824740790659145
0,00555156972823
0,0151176656217399
0,00628893670746458
0,0128041156935064
0,0035379866050869
0,00377174338340168
0,0198875114798597
0,00185632842301303
-0,000603433532235452
0,014945787505263
0,00862414226641989
0,00501335097364744
0,00913864352622885
0,00815437555719643
0,0141604362775123
0,0192645022917325
0,0170194053078074
0,0085772748164607
0,00792998965485722
0,0167059934063408
0,0135203943259808
0,0124876223975376
0,0115302170348901
0,0148766700394802
0,0140896457669465
0,00644088629351503
0,00569799591108798
-0,000807982511341057
0,00619890965448585
0,0024873382630076
0,0175749217515491
0,0113711671247795
0,00815058014133002
0,0187379170577513
0,00987066865539113
0,00747510726033388
0,0143211384801242
0,0075349281597966
0,0138168673216757
0,0118345069725575
0,00719289119830173
0,0156546423130216
0,0154065305810989
0,017442303464147
0,000620696362911303
0,0121756006588052
0,00640705671148356
0,0188291479056834
0,0161139385027352
0,0177113104717451
0,0100635558586926
0,00864415383665162
0,0147637980108418
0,0162741828382533
0,0106879445257914
0,0157973972009685
0,00834664083041248
0,0321689176481406
0,0195465211356808
0,015190226666556
0,014158130934655
0,0187994173355287
0,0216935271237358
0,0152803842258195
0,0209690407822638
0,00923120729625368
0,0171230021922
0,0165089441393759
0,0277425567911067
0,0220705590326049
0,0208699062065254
0,0208340898658617
0,0240501235657831
0,0214355046274114
0,0255606217114697
0,0221302615569952
0,0244491625094854
0,0268718534501815
0,0249564454842917
0,018338484299475
0,0262428359284608
0,021021558479786
0,0302068230055439
0,0379754259786371
0,0338020248866638
0,031173985154479
0,033761501964749
0,0448779924372577
0,0302279189128689
0,0488290454800369
0,0216654557714635
0,034742945320336
0,0381296313185135
0,0309615582100513
0,034217701818955
0,0331223642613081
0,0385484115069584
0,0443243210170041
0,0421831103220193
0,0434523783906625
0,0420818402580948
0,0497424557682086
0,0295634575523299
0,0472185841318652
0,0416799292150808
0,0498008197652217
0,0568302584552195
0,0632327817108007
0,0540987103956738
0,0516606817514222
0,0570388634832924
0,0560500969069301
0,0529839242878693
0,0545255023743201
0,0603150276314354
0,0598018593652136
0,0690480421535253
0,0586252444785998
0,0588439750645951
0,0567114230853829
0,0513698128516962
0,0761790831241295
0,0554645798106702
0,0687007299814369
0,067993008374686
0,0751925093565634
0,0560120193689893
0,078994807521683
0,0692477000902006
0,0752191424777396
0,0842382976582684
0,0691215235943976
0,0815467434799065
0,0737461941207305
0,0846578875577903
0,0911762253809313
0,0908640484606731
0,100627157475128
0,0900606104546168
0,0977044639997419
0,0990250881275848
0,0831932476607588
0,0975797986856413
0,109342134468046
0,102034677848407
0,0950268299261867
0,0972033806705476
0,105197422823621
0,096476273429385
0,121955104357948
0,113746689569626
0,11518626379745
0,110140677049117
0,093258400225302
0,111857993038116
0,118795796762047
0,125212620688223
0,123853958794493
0,129767853506732
0,137557163843906
0,123906920536818
0,13036120903881
0,136042228326383
0,143823697227876
0,13270001106406
0,14191343292931
0,135514251061961
0,137973041885278
0,15003059982816
0,155681393424073
0,138914672047004
0,174819134506626
0,164882174308929
0,171536354621999
0,158510873128387
0,159703470394335
0,160540108848358
0,172083218631159
0,161097924781486
0,166972460077504
0,179595644258596
0,181137700705286
0,168754827003247
0,17515542171414
0,179554375934441
0,189910843525903
0,195539346637092
0,196982173630321
0,203390503486272
0,208827838057523
0,199946791768376
0,20848807916174
0,201653204009606
0,219339165837474
0,214568632992144
0,216849873266002
0,203138665479164
0,210004504212276
0,219689320695837
0,227422724291817
0,223112194442563
0,238808751460916
0,245970109405846
0,250945543207996
0,246346640872861
0,248600025953861
0,2299741493104
0,267033204179806
0,258283509270928
0,254310320863392
0,2595399250324
0,267781069537427
0,252327701692965
0,260090530884334
0,254189562971241
0,269864130697794
0,267691402322216
0,285865285018724
0,266164667060551
0,264357480905839
0,272884584970625
0,2992077369885
0,281680954394299
0,289929840729129
0,299321676696838
0,315287140505926
0,294295447805244
0,31444680158841
0,304131002937562
0,299973930453681
0,314093008917488
0,345273478643259
0,310777517639338
0,341217137122169
0,303362704042587
0,367815194797938
0,317558100235442
0,347369101497959
0,336475664054318
0,357055377183872
0,34184783176354
0,351267920529493
0,33185205556214
0,35393060719775
0,353302337292683
0,351129520231977
0,349022197219348
0,360191115954803
0,36551572442856
0,36812856002996
0,354777256477664
0,391926057961502
0,382169029521858
0,392853946784638
0,383666009364255
0,397378520677885
0,383892504752723
0,423825410309133
0,402144181801345
0,409468382317748
0,391053166375783
0,420114067617501
0,415751689237471
0,413746440334432
0,404383431287442
0,413357704996184
0,441430801511944
0,433336147179844
0,423183966813276
0,457714632459899
0,438474741962049
0,43972696724362
0,435485934340954
0,468790438336195
0,447604443537521
0,479166403540761
0,446736052644228
0,463265670855215
0,46773444065015
0,4707953447647
0,448477021834734
0,47186193957408
0,471879182506987
0,482986487959743
0,462419436287372
0,502784215096199
0,478796901578108
0,50389232684998
0,473443562221357
0,497255775193465
0,508344267940667
0,50270915923206
0,478161060254378
0,492703280259794
0,504475766911691
0,534065946244847
0,504051455049304
0,560738810995468
0,504845821540704
0,547847690207722
0,507093419747046
0,561432973285589
0,545067878333576
0,529705394090611
0,515594706151983
0,544929080274562
0,523444193653859
0,557303897182095
0,528355065021568
0,560695723631214
0,521414801561327
0,575487531184622
0,53146261873371
0,592821580816641
0,564527729440077
0,555343627091162
0,562521030834641
0,589414474622502
0,577862965136545
0,571138265550139
0,556935397569423
0,600087977442057
0,577100905403484
0,6065248868735
0,585459840942801
0,608861687952924
0,612473606564813
0,617850815748671
0,617850027344602
0,612503485044945
0,590667774919549
0,63210760946632
0,603513579102468
0,637921774738189
0,58058340093982
0,62418274434651
0,615624713636924
0,621293948988027
0,605486774714768
0,641984187463744
0,616662960381864
0,638362442716507
0,603930556265475
0,62313375204128
0,644647088596138
0,661850430665279
0,64040452992376
0,663729566533341
0,598792362709243
0,654038141350421
0,618348580384052
0,664153478289849
0,61490517480398
0,634479766181138
0,63255529679171
0,689156657254055
0,654059833559612
0,678033548506195
0,641456495842674
0,68962986116642
0,623882825917957
0,665170800738249
0,643823539305214
0,688947878278995
0,682797660385277
0,694450197704114
0,657833554227903
0,682855035162369
0,65400532449623
0,690686173790195
0,709442563336733
0,685168459212044
0,683092081945813
0,653200053728036
0,664437785387824
0,697533618195285
0,669114151906116
0,671227788063303
0,678661269957602
0,714707607770258
0,684855801858585
0,70765244417626
0,657074819345201
0,719887442872638
0,685727683197002
0,705537380109827
0,683836869090748
0,732183878185972
0,707693275222141
0,706403606587937
0,669138564003364
0,739862105807064
0,724346226235402
0,745088300847404
0,701968765137608
0,758569199957608
0,711037194552799
0,734705136092955
0,719599874379024
0,74136815288048
0,699813032859509
0,722116401764056
0,721906265820826
0,724822847049002
0,71108997054275
0,743034310547952
0,694279796610549
0,741999492786437
0,726971681265761
0,719515869910422
0,71182925779755
0,73935088797189
0,70031419514521
0,740259940842365
0,719539232775617
0,759547274022014
0,726841241106725
0,753205505338211
0,705511241359351
0,742050523490544
0,736395823804402
0,722403727619051
0,720037385483549
0,746057020164644
0,7299171186092
0,740846080447755
0,722306076688814
0,753935487810782
0,716019674802142
0,737803271617536
0,704210107068786
0,734264769264369
0,73015035076257
0,773976381668779
0,730707448069629
0,742581890683651
0,707230646572183
0,73124214060656
0,714618024984147
0,714542250909629
0,711418513345224
0,766560226882892
0,728951454826191
0,747550675391045
0,748103105802644
0,725657981960981
0,732573837127048
0,751362836397181
0,707263932280794
0,762690135074622
0,703469509404501
0,735884075087992
0,709010798843904
0,758023883601692
0,724892601700029
0,730464403796143
0,725951037291031
0,750688657329761
0,729413045797234
0,749562375792701
0,718357575891568
0,717300746066055
0,725172948352772
0,716970825926848
0,748207883034547
0,747747091387694
0,694594472502932
0,708565147452394
0,715915284233608
0,743953714091721
0,738167604921635
0,738810414650945
0,729267568517932
0,731651120916781
0,721488679933336
0,756709843085926
0,711864407652417
0,737495426194099
0,702637267763184
0,738406024148494
0,706796100895062
0,753872713844242
0,706364635621075
0,712973847530223
0,690682469860514
0,703660820287239
0,694777044179745
0,706111688597504
0,710933931289164
0,733792450993671
0,685233951807989
0,69573254512954
0,728315202913029
0,716697022482176
0,70043841512689
0,728567169483435
0,691218532193357
0,7135812438739
0,696806108444485
0,709981344934672
0,686531716350936
0,703562231966884
0,714432118553792
0,697997137065719
0,668533426048207
0,69034063401197
0,666312158367273
0,678508175223677
0,683019758741918
0,691512711506341
0,665735305417594
0,675429924829448
0,666564043978088
0,67920478232995
0,674444941959166
0,683974141922162
0,672768608212592
0,688623606131196
0,659194984704059
0,697582937306395
0,654400365239439
0,67662243415245
0,646906011037688
0,669715484667483
0,648416219831807
0,677292097331236
0,649449419368254
0,663455297904994
0,646252433387321
0,657368058120249
0,641283109839532
0,639338608511537
0,639415418128708
0,662250522868229
0,644001729722978
0,649062318601319
0,622770359783321
0,632683934840472
0,644219633068608
0,648324679077419
0,628184223931672
0,625400019428146
0,613193908402641
0,634832527292728
0,615964344764545
0,640703619743362
0,606888900460827
0,627193120701017
0,61114332571496
0,60623210052261
0,58579594019651
0,602998361017422
0,617858220622216
0,629248657226526
0,601618107447182
0,60371903979205
0,597404137036021
0,595215346277312
0,604342140980097
0,609850884102406
0,57797955914436
0,600291571725975
0,583802629917275
0,580187089738988
0,582547709405629
0,581229702465915
0,574381368123434
0,598381991896949
0,562113410438405
0,57312863901693
0,571103677542911
0,584527808889774
0,568801631454245
0,587263947128471
0,552433914224548
0,567432478790948
0,551690944219229
0,549657999902427
0,548861890953363
0,555098397575646
0,537513250650353
0,544994846961651
0,532783610206049
0,5420477309238
0,529432695677863
0,536018319070913
0,52288909739918
0,521518245629077
0,513783193858158
0,520668698197784
0,5215789013854
0,539721677461287
0,507634445883364
0,503887671812923
0,513750338431648
0,524724966245051
0,505954736958761
0,514010619167692
0,496321482909542
0,498815362670761
0,491853734313825
0,495237218386206
0,486635519020126
0,481388195080786
0,480316408813916
0,491314405845686
0,477187091656984
0,48431632062823
0,46520652247074
0,47414163135408
0,465408312596405
0,472992450455261
0,464422245320319
0,462413203504391
0,462269994142941
0,466308054689414
0,454057743609173
0,464363659198168
0,449180329383741
0,45069181013906
0,451717023465632
0,451458620570646
0,444843525148024
0,437773083745747
0,435961559193856
0,442260692705396
0,434103769748189
0,435006838836211
0,423762116674527
0,437027930081022
0,421461090706649
0,415724017817475
0,417943695532187
0,418151830254787
0,416004108382121
0,425759191922592
0,412306487039615
0,404658571690261
0,402996583483273
0,401946062567489
0,39226210129993
0,397092316342284
0,393967950384011
0,398219253027261
0,386874708826572
0,382991822601508
0,385455357177556
0,380070932022862
0,374715406473153
0,37720215592849
0,383569276400011
0,375954529976565
0,367319452782673
0,373039701948349
0,375740352433019
0,371542019577951
0,359122730638124
0,357884509113963
0,351899747527978
0,362208915392674
0,364883870634578
0,362851676199932
0,34991861478048
0,353590564380342
0,349815509303234
0,350623946476881
0,345134396318637
0,354679846027807
0,352671838207999
0,341547650679626
0,33909132927887
0,33877658781072
0,332094234160376
0,332745718348337
0,32616720636297
0,335708350093952
0,32986232807094
0,320152436948304
0,31860564856562
0,326681335059502
0,31702561502413
0,322275790824849
0,317839154635938
0,313120072263961
0,309952579075015
0,311399484344107
0,304941340692784
0,314863146494727
0,311548618419855
0,304206062268217
0,307604857225537
0,305547613712248
0,293272296378002
0,293685975145691
0,295798921902983
0,294005570077036
0,294152155646392
0,289578696010273
0,287797953458192
0,285874414791107
0,288175147857875
0,290874020491132
0,280301070358783
0,283767223319906
0,280951787061202
0,278118770917606
0,275492510834968
0,273331065505305
0,269498510535547
0,275742011535203
0,277511046391418
0,271153083727051
0,267267587633776
0,266765682761473
0,262028367562346
0,266029441349406
0,26202535812181
0,260275445695867
0,256347574567036
0,261437753976122
0,257824627040575
0,257904926805351
0,257628736558233
0,251290583834115
0,246613587809994
0,249884797707313
0,244883691969121
0,242547223938218
0,248305832979671
0,247978980140804
0,238344974658579
0,234375250932984
0,231733029760566
0,237817893878862
0,239318848874395
0,235096979849114
0,235096546722781
0,236021721662157
0,231637880491697
0,232053395959418
0,226487206075684
0,226494631250276
0,225004700626624
0,225949906329026
0,22026571575268
0,223149762055831
0,223206472416653
0,220322660522266
0,221596590123384
0,214695421501502
0,2144010964294
0,217095061050658
0,212599607866278
0,210619408467944
0,208225192567448
0,210350351351132
0,209507842334365
0,21412224545766
0,208876513681149
0,20512283332984
0,207699106920156
0,207287212912393
0,19666728436447
0,199087407486289
0,198653373711103
0,195510853674913
0,192421564395327
0,193981869494595
0,197593330998835
0,19723337473329
0,197381311393756
0,200022062799723
0,190536144788329
0,190489815214313
0,195810847685932
0,192923442719187
0,189961964068962
0,19237228081303
0,18760268283533
0,187718939264537
0,185760085453355
0,186221318560524
0,187948159400123
0,188563882613166
0,186948137599221
0,181978832420617
0,184276580474211
0,188433580115941
0,182725611191157
0,185304148418734
0,186540710683421
0,186281392835823
0,187991235068655
0,190271766146883
0,188742549050288
0,183765620782995
0,183389828303009
0,18992507990173
0,18965067800507
0,190544041441382
0,190978516627764
0,192715544128996
0,193682536188555
0,195548986085602
0,192139977909909
0,197612338237904
0,197367338068275
0,196705483761457
0,201922204640362
0,201387910219406
0,201274259839051
0,205519159975452
0,208738605779706
0,206775512625432
0,203650583155087
0,214406197393473
0,217082713748054
0,213708040955653
0,210422472607037
0,216941631741424
0,21642147824647
0,217143639069695
0,2207036512853
0,220475072946459
0,223437092623718
0,223995453817533
0,222924758057779
0,223235514012809
0,226889420933171
0,222144143845366
0,223017508400382
0,235649597370409
0,234675609766317
0,234679536880163
0,237838280738122
0,240043464574029
0,24081308651969
0,244125637278822
0,246093863771115
0,247346695461284
0,251935700535739
0,252272337301826
0,252140774658182
0,255772394038239
0,257176344140916
0,261401729257315
0,26202829038064
0,266230287715334
0,266176734620923
0,27086475074967
0,270597912876424
0,272863268113381
0,277346449758515
0,279595645191162
0,27302470821018
0,272787458645135
0,276562942227326
0,280079337204609
0,286873720924341
0,286271004462968
0,28461443257759
0,2848843933898
0,284171557834539
0,289813444690843
0,279758545995573
0,280993688664189
0,285231001045347
0,285373610365343
0,287247997276818
0,287599342818415
0,283588507512263
0,281599868464863
0,283601881554458
0,281476204293298
0,282607584110497
0,282256080524029
0,280873148284153
0,28431956262255
0,285583033171268
0,288179883527756
0,284370149439909
0,285817619514164
0,283168111201462
0,279391042488088
0,283345968810827
0,281658382699233
0,284571242316743
0,285771878819993
0,28260773049942
0,282878016203614
0,28265007173639
0,285391005149878
0,281343725029271
0,283337014115775
0,28179680684679
0,287073817647354
0,286734900407319
0,284799583053973
0,281447537519691
0,282418694802291
0,283642976856003
0,281260608001863
0,287376204276004
0,289744903601321
0,28442121036486
0,280520162740959
0,284210521133071
0,284577237462672
0,286489692740965
0,286501483572408
0,284826596601911
0,279975881109533
0,284662718721386
0,280541255766841
0,275569704269429
0,277089715034247
0,270155325950456
0,274858873537069
0,271862898629485
0,2673854142319
0,268447905910093
0,266201746175445
0,268824568714197
0,260014979250192
0,262937464748457
0,259783825851493
0,255536560380432
0,254673938131811
0,259542414956177
0,253429061227881
0,249868239630535
0,249727586801625
0,246512550448626
0,240543571530828
0,240480551923126
0,245248830372829
0,23410865583893
0,229781849762716
0,230837131442465
0,234718521091574
0,230466230037786
0,226957470468983
0,223599334805237
0,218678087711982
0,216397278847922
0,216612697688958
0,216624550452714
0,212501216503228
0,213249948248144
0,210880413746132
0,20663077739117
0,203931104176776
0,20436151746136
0,200970450689276
0,197183200742355
0,199661724566754
0,198316498611788
0,195029996152323
0,192597949149258
0,194566502703188
0,194514433757396
0,190474319812029
0,185552717141443
0,188883101504369
0,188454462432275
0,184521520821878
0,179096361392866
0,179426290685766
0,180341844883967
0,180030210595967
0,177855278784415
0,176769374908968
0,173987837076842
0,172520081423135
0,174174942140601
0,166065872185134
0,165013726882273
0,171848847776955
0,172423489300741
0,166802052944283
0,167167495247271
0,167054570077962
0,166047384727465
0,165694756430566
0,166153935953846
0,16590805400231
0,161102363280802
0,162520444313808
0,157784059445154
0,15952374727031
0,160728419803972
0,15600643427791
0,156781738150624
0,156476805873477
0,154947386434264
0,156137369417962
0,156295707262002
0,15296132751507
0,153331105627845
0,153834511162682
0,149901587136826
0,148545185720833
0,148377021810198
0,14772705182863
0,151874675979458
0,14822142207423
0,14478362856453
0,146632612587112
0,146151152020849
0,143391795274763
0,147752595763088
0,144851754746112
0,142591685869537
0,14314095785199
0,139053077380357
0,141095206349732
0,140246117440315
0,142543534231573
0,137798590005597
0,136534063499171
0,138102089204162
0,136804274942221
0,138198258849808
0,135816481665406
0,134910032771777
0,135710749529862
0,134401192658876
0,131235084167831
0,139525038504102
0,132401528415644
0,134724256452667
0,133781738764401
0,131712994390744
0,135452243245822
0,133218552107701
0,133304326497119
0,134125514572729
0,131148767179907
0,133367116437096
0,128609086975671
0,130926533253891
0,130949966876007
0,131394269246237
0,131565687250563
0,125794098924505
0,127651645579725
0,126816816132399
0,123594033941275
0,1252282991675
0,124306554583864
0,128560200961475
0,126071139371128
0,124434640970629
0,127808128100599
0,129070045242295
0,125320465527007
0,126267570690229
0,124544789085613
0,122246723643824
0,124322220550513
0,123579295764611
0,125440963365411
0,120120745641513
0,119744693034212
0,122254571348299
0,124658469375185
0,126999616599126
0,121960854134229
0,121132710625555
0,121552949029001
0,123415925902965
0,120276929965232
0,119510428507146
0,119802663357929
0,119242336342933
0,124435135762705
0,121453616643185
0,120840322173664
0,123018120314968
0,120035508119941
0,11734027032711
0,118958986700988
0,121087247298186
0,118659614981638
0,119237148539462
0,120125855876634
0,116087498613555
0,117452050411665
0,114248825468093
0,114748270542139
0,112019501044388
0,113702593732813
0,119937816774864
0,115792704816202
0,114891278731317
0,11360597127253
0,114519953395219
0,111766951825646
0,111709312057237
0,116382060569734
0,112969015090694
0,11328999119629
0,111489944626965
0,113058120244361
0,111417142755803
0,10687438452951
0,110939597253273
0,1129116110393
0,112782719117689
0,105756811003807
0,109903983953316
0,109266868421714
0,107430827469287
0,107525680299713
0,108566179667856
0,108864832246879
0,108910327848219
0,103598381777116
0,107686786094897
0,106554048586326
0,108019572193913
0,103012276484453
0,107840711881638
0,10689298179677
0,109060412451061
0,108610778949103
0,104289258085288
0,100009440828805
0,101926897296724
0,103599376883332
0,102445767201098
0,10058808100677
0,103234906506975
0,10103368329649
0,0985098106135937
0,101119738342568
0,103296801798911
0,102643348240953
0,0967445743680196
0,0970845782851296
0,101277930215606
0,096403306136154
0,0972890517314086
0,0988371720944085
0,097768898051465
0,0935519826418577
0,0975657488340307
0,0970887000594509
0,0933789489768694
0,0949865839443638
0,0931270203128013
0,0954731720827067
0,0948476216359346
0,091367408544595
0,0918599230716911
0,088015994264984
0,0872266171041861
0,0899075123254516
0,0922012515703326
0,088149694022525
0,0889750805954597
0,0908029058681089
0,0865464510498144
0,0805613540560288
0,087668959751721
0,0902547043970179
0,0861157438850121
0,0867486452397202
0,0831485373802209
0,0884740802426759
0,0866259544229153
0,0872405663542613
0,0843684462618519
0,0881495731199208
0,0854896092970954
0,0825860673630054
0,0849102838449555
0,0807401756404291
0,0832293673537328
0,0818647855900304
0,0821538796135893
0,0773950754415652
0,0806790705255558
0,0796255242299855
0,0826099762995562
0,0781721203079748
0,0783795544332715
0,0795671386026244
0,0766915002789132
0,078792026642732
0,0765636222519619
0,0749943071169187
0,0750432507382457
0,0760281746628451
0,0758660500727778
0,0754742250915259
0,0756981505481037
0,0752140618561498
0,0739930427567768
0,0745733628083613
0,0738084745026275
0,0730582904925941
0,075324552191635
0,0752866175859515
0,0744220906853225
0,0726518319956943
0,0714580967588912
0,0704732735791063
0,0742479791371063
0,0713604564594817
0,0668788097798319
0,070979635391754
0,071073529888117
0,0698714180712737
0,070711176625544
0,0721078466036682
0,0708078545073916
0,0667974907731851
0,0688875653912857
0,0660599120892048
0,067995494677809
0,0673723806492917
0,0680873570820996
0,0669496077952607
0,0664510525987285
0,0620810988000807
0,0664526457054544
0,0697697910247177
0,0653349586498281
0,0629760546162728
0,0652399635561157
0,0638436264480426
0,0687384993858554
0,0636454067935795
0,065826506937841
0,066728785756146
0,0640260706575734
0,0631934351803421
0,0654199009722969
0,063596353941161
0,0617728141293665
0,062719806223844
0,0638719012544038
0,0634257660836445
0,0641389911317072
0,0639953629633451
0,0620729238024909
0,0636096789924578
0,0639087431291993
0,0636675846948254
0,0613232395837437
0,0622154583421441
0,0582618287658189
0,0611341543192422
0,0604903060061566
0,0606689269786449
0,063519322755314
0,0621433020383094
0,061729874441579
0,0627248846651444
0,0654854866481194
0,0616836851829454
0,0611924373769323
0,0589262068358179
0,0578068104356044
0,0601310618405661
0,0606135091291752
0,0622731008491061
0,0599016976884415
0,0566379968335187
0,0611975159578163
0,061851329640408
0,0594439885617887
0,0585623256865233
0,0568635996033384
0,0555582980349691
0,0542826146489834
0,058059035901065
0,0577092191411674
0,0554575979272481
0,0569590586095616
0,0535571828814958
0,0567762971594472
0,0576400336082103
0,0547034540520598
0,0585399890481338
0,0564170537351846
0,056387837033375
0,0557648809558577
0,0556022974659526
0,0566111423596306
0,0564901494705762
0,0545062097720299
0,0531704131596085
0,0544339583393341
0,0555377536846574
0,0547685256014571
0,0544675815063084
0,0551635985808754
0,0542662373273531
0,0557359275609698
0,0532498180696772
0,0539487615608631
0,0523053419765076
0,0491939996683397
0,0538531903813793
0,0549914586102414
0,0555663934370141
0,0545964345121622
0,0547729905416955
0,0509563442025407
0,0544990931414884
0,0553448950976129
0,0510456310559138
0,0501874991189185
0,0500506307695789
0,0516526295890985
0,0511553377566705
0,0537397912669449
0,0493441683536904
0,0526446606927097
0,0524208354203305
0,0517525886922558
0,0511303900765925
0,0515772892234049
0,0522238467651576
0,0522645570416239
0,0500803397089674
0,0515262326142724
0,0503992763384698
0,0479883924634175
0,0497568531891465
0,046515795123263
0,0502375228976426
0,0502300625903304
0,0500479062271904
0,0473904798883281
0,0473878984872542
0,0491429094406667
0,0448492737871168
0,0493975005932186
0,0468817421298481
0,0463131904292343
0,0451314705203392
0,0453829474668016
0,0467224324906407
0,0468168134199305
0,0467433010046023
0,0471495235772422
0,0421661558431387
0,0457216049362807
0,0436605724412064
0,0440389651799938
0,04508809890826
0,0476712945900336
0,0434850370547992
0,0446603120799815
0,0442678990651228
0,0459189053385204
0,0477182673208787
0,0399770801469487
0,0426646051391531
0,0441357528789311
0,0441627708564416
0,0448129332512307
0,0403647461423426
0,0415913732161588
0,0421688365602412
0,0427199849046863
0,0394603702280304
0,0430965325376374
0,0433535099547602
0,0433612857904087
0,0416288495438646
0,0397030649269571
0,0417915837201619
0,0399597483136817
0,0405453689119262
0,0403512762792683
0,0400242172552627
0,0401387606353207
0,0396797088337222
0,0418384191648239
0,0389922408533195
0,0410018706219949
0,0404367377302354
0,038341154924556
0,0377549121643092
0,0391305438892468
0,0379939827299546
0,039831079480363
0,0374459226112844
0,038612559485538
0,0360718903049656
0,0376784553863553
0,0377444401067673
0,0372987047873663
0,035651750699913
0,0398689411253088
0,0387873735562618
0,0363047522214193
0,0360623474331228
0,0376845809901897
0,0361512904535619
0,0360049456801446
0,0352621230223037
0,0368522408291844
0,036378799168416
0,0350497344039478
0,03200379843137
0,0331246893237092
0,0335186651005158
0,0327538363717859
0,0304529013969463
0,0380281267809274
0,0354628933255745
0,0366415530419678
0,03320018670935
0,0328600439732377
0,033708151305225
0,033896320759769
0,0331285613156645
0,0331108529120231
0,0318689428655371
0,0320428720552599
0,0333596925152147
0,0325036812723106
0,0313310753503906
0,0333747098222686
0,0319911030170189
0,031216178824839
0,0315423927254274
0,0323436436221338
0,0276224577272414
0,0320441688010937
0,030276421190496
0,0331086978810953
0,0313084998191678
0,0312405106754287
0,0315135603782352
0,0324795279251077
0,029211198040984
0,03329790811668
0,0317353377469794
0,0319720980223947
0,030444954984877
0,0284046901690571
0,0319825891581229
0,0298960979332439
0,0318089193618771
0,0319022447329793
0,029274543347549
0,0305903408856292
0,0276843371563928
0,0291749082370048
0,0308366630365072
0,030954629566013
0,0315003384731258
0,0296209582572648
0,0273815139442534
0,0314911058807891
0,0291212820088269
0,0256504625561155
0,0328090513789981
0,0263821096595475
0,0261124783402327
0,0301742737569757
0,0234100626373247
0,0247849443452074
0,0263548319989942
0,0241213480182792
0,0290563021242631
0,0282411802614331
0,0318227926002878
0,0293336134523279
0,0289371495520038
0,0247039903662449
0,0304999155428257
0,0276871332066876
0,0242488512371869
0,0276417209276183
0,029254152952917
0,0291776645829695
0,0240292651700705
0,0316688481475597
0,0236392428531727
0,0271354225214818
0,0258724080754112
0,029477616489808
0,0276048308884525
0,0329526854685113
0,0218059153077899
0,0288539187998073
0,0261747250366377
0,0311062666024031
0,0288780633241198
0,0275556098403383
0,0254509052505701
0,0244322167145539
0,0245284316979893
0,0250966491890623
0,025570228998082
0,0268812577560061
0,0279038117868785
0,0226030640029196
0,0281681679812757
0,0279726862959949
0,0294626643772146
0,0237514824107811
0,0250316578638319
0,0205001814454077
0,0289373031585555
0,0225570869018184
0,0352512688730786
0,0205247985895084
0,0288547816400091
0,0224554680547885
0,0297034238988854
0,0226587869603783
0,0277623571306603
0,0239264507836339
0,0246049624402072
0,026547748639379
0,0256862239264105
0,026778971374051
0,0241933248165503
0,0271293387601967
0,0219993900304061
0,0272980890303488
0,0242761179231404
0,0255508525874681
0,0275127674131226
0,024448414524267
0,028605319536391
0,0236180705116263
0,0232393148889458
0,0241891291628374
0,0285144125867125
0,0229164673398522
0,022953008120465
0,0251809977893813
0,0240915693206634
0,0248838765833179
0,0247403568777842
0,0234025563273467
0,0228528597124259
0,0244307742413891
0,0229846462477293
0,0222306299837109
0,0295550346784252
0,024841227760996
0,026448569795939
0,0256805662009581
0,0254158002200495
0,0255713874374046
0,0234883935670554
0,0243986718955641
0,0231963521001481
0,0224638068897858
0,0279822624099476
0,0246733574299496
0,0243110516389868
0,0251718976003713
0,0233238059565742
0,0247336037600072
0,0237089464357452
0,0252476174986474
0,0267228839120926
0,025953097529135
0,0232424594295855
0,0241394766800972
0,0272710123641377
0,0252015153359898
0,0243756901484898
0,0233957822981983
0,0233665855530853
0,0242473303500014
0,0233596295830813
0,0250647392155159
0,0267822921638785
0,0247362681595174
0,024405720087194
0,0255610943450503
0,0235450706390162
0,0232724258481207
0,0220893384077812
0,0239458936217311
0,0247147855383484
0,0227962167841491
0,0253147190516211
0,0251631912292748
0,0254285315177085
0,0232114361281409
0,024217308661541
0,0267826787074251
0,0248876313349301
0,0240008901676965
0,0239920607201141
0,0234900649312657
0,0216370208393987
0,0237886612925255
0,0242286793686936
0,0251000037368582
0,0238642850821429
0,0246631725378852
0,0239004232720781
0,0243522255249016
0,0238406144329903
0,0239667639473733
0,0240917452850072
0,0231558242224203
0,0250259982012971
0,0241775583761895
0,0247494953804912
0,0232969309735704
0,0255278562762221
0,0255520004780044
0,0250569592369684
0,0237456513133219
0,0244038359634591
0,0254634229965306
0,0249892488563253
0,0248328042581302
0,0246471640956608
0,0268135891460199
0,0250884025612129
0,0239134471054367
0,0225283564400899
0,0251939724271842
0,0234574624788442
0,0232882340996292
0,0249234295437123
0,0250509108305185
0,0235103039961999
0,0270124922564585
0,0270075336587942
0,024345074287168
0,0246174756049796
0,0265006888047328
0,0257182777203885
0,0245879274577588
0,0263784462280113
0,025726795579927
0,0238444711891211
0,026206304741263
0,0245598175985723
0,0241933874524611
0,0252578272481615
0,0253591829391685
0,0246965630141982
0,0250405555627508
0,0261530905990699
0,0264518313893212
0,0240188740255604
0,0251275680006822
0,026310406962159
0,0257466207069378
0,0233451708103322
0,0237120374935867
0,0277122695330625
0,0264074740554875
0,0245389061370525
0,024094202579574
0,0273449135125052
0,0256059018584479
0,0262251751392459
0,0283531052142738
0,0237838817394337
0,0283770772377825
0,0266558849486115
0,0248613053557939
0,0258739506247792
0,0259399194703304
0,0275996900484522
0,0291945092044709
0,0243367347542724
0,0264177498810928
0,0262554209444229
0,0258713588896932
0,0274654933597632
0,0247811725243284
0,0272243157191977
0,0299387679033907
0,0260181986345745
0,0256006822374917
0,0280421459354904
0,0285445585039635
0,0275467175504878
0,0286073057366088
0,0279745290718093
0,0267577865303143
0,0249757084461054
0,0266658209708983
0,0254140083951049
0,0249347493286165
0,0278747595482387
0,0267521423874377
0,0277813218220437
0,0269165106087887
0,0254622990474703
0,0243122404862561
0,0276739974402352
0,0249312444757011
0,0239443657841365
0,0254196483420097
0,0262260062150724
0,0261612099791038
0,0271067531637823
0,0277564253297518
0,028367264440019
0,0266893787732754
0,0253237868096218
0,0249886062748323
0,0250644159282554
0,0278059658373769
0,0264334278773722
0,0252358935626507
0,0257432037638422
0,025853174184003
0,0243621772845004
0,0266197264287586
0,0253447125513628
0,0262701403270831
0,0255099943673709
0,0246186188021707
0,023801730914983
0,0258291834325894
0,0210669219108106
0,0259991698563597
0,0274912491006221
0,0250668853171385
0,0255351976961843
0,0241153744400856
0,0227806113912785
0,0237738145989683
0,0232366698885988
0,0237218023950504
0,0246941763449188
0,0246733146436698
0,0259750378339784
0,0246408440716032
0,0235211162210583
0,0258469202889821
0,0256820765415397
0,0245906664421654
0,0237265495022462
0,0247694434600838
0,0240334475533375
0,0243433356302001
0,0240080098819448
0,021079776088747
0,0254856590549087
0,0249345897074025
0,027054815224392
0,0251525980150189
0,0235979607603363
0,0243777241325681
0,02341235442569
0,0242882167169428
0,0241709384137555
0,02389375202637
0,0233836280491223
0,0235697932195907
0,0244183264368742
0,0209768308552674
0,0232427900841142
0,0226281029076478
0,0237907470460182
0,0230963854443922
0,0251826770932996
0,025395759537826
0,0248430082752419
0,0224724830962125
0,0237863460977526
0,0240107502510181
0,0223944462101984
0,0233467048511405
0,0245885669073857
0,0239701041510383
0,024678043302253
0,0236685473375582
0,0230780177243115
0,0221756085310958
0,0231480861182757
0,0237337393059454
0,0259021683722218
0,0231776145073167
0,0239646440836541
0,0238166612966611
0,025043019840292
0,0246383503704117
0,0232433399367561
0,0245085632603063
0,024802647407592
0,0247897498153314
0,0224521250043383
0,0230908721860957
0,0253230063702338
0,0245825136019181
0,0224740480999643
0,0242261138185205
0,0238613077551914
0,0215662392800744
0,0233222408209782
0,0249223696220648
0,0230865794611841
0,025883998524599
0,0240183675107789
0,0247407053078818
0,0238192638733796
0,0226383132088707
0,0263368646449047
0,0231830750690033
0,0237162534872745
0,0239227348073056
0,0212806717405636
0,0210466539373403
0,021892787592039
0,0225986255006147
0,0219746341306943
0,0240507118931845
0,0228319379359661
0,0227042285519267
0,0258813154495128
0,0215490712961795
0,0244897295663514
0,0218209850475888
0,023456771861493
0,0219735730664472
0,0208311143800827
0,0221300152253417
0,0214257964278569
0,0226353579144012
0,020074438570931
0,02288883797506
0,022650435514729
0,0222820173555514
0,0221351519652582
0,0221791719343403
0,0218139071323458
0,0238356813900729
0,0209403153402938
0,0201750689543146
0,0189102684856014
0,0214668804306836
0,0208325618346004
0,0218021476997652
0,0210241589534975
0,0224880405215664
0,0220573419009436
0,0214097495676894
0,0202462618804505
0,0205740111699325
0,0212924736877858
0,0211392389632255
0,0209007245476876
0,0190287561619744
0,0202825204030316
0,0220410143151832
0,0194625115713438
0,0203220126718905
0,0198218563938679
0,0194312765777723
0,0200197997189715
0,0191719893700587
0,0189356133195264
0,0198853404799149
0,0187718815622471
0,0196053712605821
0,0204957214658631
0,0199667428266778
0,0207805698377275
0,0207395816967311
0,0193452322860751
0,0179908814777506
0,0192968892999278
0,0189343952690123
0,0199779199635867
0,0203380438162735
0,0206587467271027
0,0181053018055151
0,0180276895051241
0,0215648164888154
0,0185274073456435
0,0206356914222505
0,0192964207830055
0,0192787686597907
0,0190793536153859
0,0192039822470351
0,020710159521168
0,0209821438448342
0,0201990047360331
0,019286096525425
0,0182482234463376
0,0197186899883339
0,0194255056386117
0,0198010025585855
0,0193340209019082
0,0201879021726172
0,0183004724162553
0,0191015317397802
0,0203704358351644
0,0207101250828347
0,019665062688463
0,0204887652246163
0,0186283315217498
0,0185767490096589
0,0197781763070021
0,0191783586535092
0,017722429984714
0,016611527495434
0,0183881550740679
0,0191051540608594
0,0188683022188913
0,0191816259125587
0,0182508249641485
0,0204571256765792
0,0176122611149783
0,0191659626401208
0,0175687368090841
0,018304230273528
0,0192944027986697
0,0195808921017641
0,01627074931837
0,019381963826713
0,0174930918605428
0,0177299615964296
0,0198148308358054
0,0179613185036012
0,0175014685145461
0,0198978070658519
0,0185062808986975
0,0171930591745323
0,0169690857288684
0,0191195430569657
0,0182386658383344
0,0197095932774352
0,0184128504132188
0,0187911735812988
0,0185746453108332
0,0186756184516457
0,0177805194671457
0,0177767067990612
0,0180526770027329
0,0183567994059865
0,0200567169847384
0,0194173667094847
0,0190700363779342
0,0196052694643322
0,0185187639981516
0,0168978851776127
0,0177739309207682
0,0172050643796403
0,0195862543843183
0,0188563726901146
0,0194771945314878
0,0166212032379751
0,0180982704039181
0,019637893057183
0,0178704327512731
0,0196446496289704
0,0181279282489457
0,0181345393927515
0,0185199825200193
0,0193449161990436
0,0172869924557634
0,0172840699604522
0,0184387107630002
0,0179861398389049
0,0199790053297581
0,0187008790685309
0,0177890729387571
0,0179039686598747
0,020743363656298
0,0197876243771568
0,0189881267118635
0,0160484695288878
0,0185769361793617
0,0188733891080307
0,0189819940324139
0,019490484887812
0,0189492451143769
0,0181387040172032
0,0188752345235019
0,0196504670194573
0,019786858917814
0,0194455704899685
0,0184674967608524
0,0180373649772267
0,0187830639305875
0,0173017487107675
0,0169110568256847
0,0187291554784029
0,0189295085999971
0,0187477517545268
0,0153259085039679
0,0204877335013934
0,0191489899880278
0,0146660404840466
0,0192204861380133
0,0179700060304339
0,0186089923015398
0,019165763075602
0,0187461605745947
0,017484149936823
0,0207754535834562
0,0184357396142448
0,0192057403758519
0,0190181632202806
0,0182383396164959
0,0172783092722499
0,0188063316815828
0,0190609876874218
0,0206282347656832
0,0183615695827846
0,0198496157133192
0,0206120838832457
0,0206953399200444
0,019663905368757
0,0206421585554742
0,0183314729822862
0,0216470146155681
0,0199624613002182
0,0172552134226142
0,021673880850986
0,0183501809126676
0,020039720266503
0,0178973647347469
0,0189785807409578
0,0184262669320571
0,0204632909260308
0,02020159019819
0,0198684772893989
0,018925061887582
0,0198244026565571
0,0198997707242517
0,0196763433533694
0,0202703968093626
0,0185662002598729
0,0184899298872886
0,0195931138117227
0,0211888615495188
0,0209257170151878
0,0192084780478766
0,020996720460893
0,0174919828846427
0,020439930274968
0,0199775784397289
0,0188101590600119
0,0190789774479903
0,0200037331917334
0,0210698376078826
0,0214809027910865
0,0204222489303277
0,0187493329378243
0,0177597206845028
0,0196537289935614
0,0213310419167696
0,0211329334802669
0,0215833648217821
0,0203905774233771
0,0205792768993705
0,0216285179418733
0,0226436435002958
0,0226864426743191
0,0217032237039326
0,0193348469448362
0,0214872286195166
0,0234878961085283
0,0244096839352606
0,0212217453372139
0,0218872852920446
0,0217065528288053
0,0216998434526763
0,0225230228997964
0,0232056154080711
0,0208367053637693
0,0213696784302814
0,0202857473358885
0,0247352319833211
0,0196596296764259
0,0238686644483387
0,0220019384483743
0,02206166628337
0,0222172306520249
0,0230860711843571
0,0226000328836024
0,0256793417249967
0,0214803418824458
0,022393233944975
0,0250776164380999
0,0227316037370443
0,024387339015495
0,0236761657465287
0,0220735130292838
0,0229842937010527
0,0243451501199484
0,022434953963339
0,0260371278827235
0,0246746473799223
0,0276255248661869
0,0236135789579358
0,024724229474156
0,0270917025919723
0,0249746120679797
0,0255097895157087
0,0249210348155139
0,0250701957618292
0,0243430172204269
0,0244043845425523
0,0262275282912302
0,0241004902232478
0,0277698377020547
0,025962968087531
0,0239631435665353
0,0240934375938679
0,0265032341897059
0,0286328764210113
0,0281662278034627
0,028285937898594
0,0288328624503519
0,0301624355221478
0,0299070487883139
0,0275852508696747
0,0333736902114326
0,0254862198882485
0,0323646416109301
0,0260317453058214
0,0303145684603444
0,0298358718542757
0,0321636846352667
0,0293211774191694
0,0309366513894857
0,0289797158876797
0,0337392473627499
0,030413990781212
0,0335116964478634
0,0310961834270088
0,0329194993510084
0,0322548390330714
0,036365803935611
0,0356679793556521
0,041451560036594
0,0349135029880896
0,0363197792270598
0,0372597335768245
0,0379547430769968
0,0390394247304481
0,0365780635595027
0,0370251214263437
0,0397977154713638
0,0396915303384998
0,0398623037159115
0,0401346182744229
0,0403839242268445
0,042787192553567
0,0461794480377736
0,04396831741332
0,0473395093163745
0,0426896468959531
0,0540243515760393
0,0540474458098716
0,0495746683597189
0,048887200756794
0,048187530949673
0,050649336513779
0,051732655309775
0,0511301739909285
0,0510579010274439
0,0511078792943611
0,0528357061531193
0,0514735318376444
0,0581675608969651
0,0573817438390239
0,0624804770754447
0,0589438850234982
0,0606194137756838
0,0594073847566808
0,0681770164902463
0,067301885139168
0,0674633242746889
0,0741607389342649
0,0705931633086162
0,0849132224969672
0,0785436289152655
0,0828627899677846
0,0863998886674407
0,087903568464303
0,0918074602783787
0,0997395582222687
0,0956669945709896
0,100767139599843
0,103694387836403
0,10976949684747
0,110839257867047
0,115176243447085
0,117963008873153
0,122656223111808
0,126913045469631
0,130200999570468
0,130827970272192
0,134836713658456
0,140316075192821
0,150369680078212
0,145304434623758
0,157512104734848
0,155449850696297
0,161950897486283
0,163516716631835
0,171901889760596
0,172079364332521
0,185252587025957
0,185228806269249
0,181240953414981
0,188849318161186
0,190376354283071
0,197408444681788
0,201549184900715
0,203514922293157
0,206413791806499
0,210220366207153
0,214706463169992
0,21452155402737
0,215939579329589
0,216867006552312
0,218874804843184
0,218188762566203
0,233146257226157
0,257716852243062
0,257648066113945
0,232830995748184
0,224938185583546
0,227107254910926
0,225117171907948
0,232777917636823
0,237825965874072
0,220241298541345
0,225084371492052
0,226030367106329
0,230338901465677
0,227557444521957
0,229279349725189
0,228349173354326
0,232794557886313
0,232086045233913
0,227864665815423
0,231428780054935
0,22379448429372
0,235260826567386
0,23030967281758
0,227753727516453
0,224744982106394
0,223691675690359
0,220655995460699
0,221444776023322
0,224034304039883
0,215964283618945
0,220114828577714
0,221409371314726
0,221475354221227
0,206714288426427
0,206901313797929
0,208721093227775
0,208167197055979
0,207263197545973
0,20135973183574
0,205636698042948
0,208959568993422
0,204040013313785
0,202312724182606
0,197153603505701
0,191344411309312
0,188046882687727
0,194935743322258
0,18866521679753
0,191321747911589
0,192429450009929
0,189559545671613
0,193759607098616
0,187625678452073
0,184290811364698
0,187415103440594
0,184847331952844
0,186441865344715
0,185359366784445
0,185558528091454
0,185886455913033
0,188167509835363
0,184815755795018
0,184475800686718
0,185712221389276
0,182967762286707
0,182322504342147
0,185137547423113
0,183746326434389
0,188565755219303
0,180883400971161
0,183516059457118
0,182994084324036
0,183526358899653
0,182349493858515
0,178084271732661
0,180572569143749
0,182706145088502
0,178345797704236
0,180243977348393
0,176070941712442
0,176672850358904
0,17857272185626
0,176304224933704
0,175103758682108
0,171511129712286
0,178603638052313
0,173466538584707
0,175027606549684
0,172923747296633
0,170440194132624
0,1696078689461
0,172426127626094
0,166833596728655
0,163294060917486
0,164579755204746
0,162921399894781
0,165568382044898
0,160013779493541
0,161257505221281
0,161696310112471
0,162888524333132
0,153372121248357
0,158359572685202
0,139694238371824
0,163004198055197
0,155068303574503
0,157976110007065
0,154897068395858
0,156840709304542
0,154043402923301
0,154271373856763
0,154486571737504
0,151090761648237
0,15359256501228
0,149875019894182
0,150534019566346
0,149478723054181
0,151515543412573
0,151418834420205
0,150344590618149
0,142852524864959
0,149319126116363
0,149429975695018
0,152693560422142
0,151822431450441
0,142094096606778
0,14240453764126
0,140142278689484
0,141558471328026
0,137131087847717
0,137409718441242
0,138123558698815
0,136861756939182
0,134432535254814
0,133264628185595
0,134890059319616
0,130334072127469
0,129661020659616
0,134196805943937
0,126922858081726
0,12797211512385
0,123990221167262
0,128149813217041
0,124617960310245
0,128658993719841
0,125274182700103
0,122284085208938
0,124538740412251
0,121245420597003
0,119841248892306
0,118987151630057
0,116238183924413
0,118319100753259
0,112141640938217
0,113858440868054
0,0999136643650729
0,11192741164922
0,11486701237866
0,122382907507265
0,0991188874703352
0,106048800116667
0,107263196034609
0,10934856963906
0,103767198292485
0,104947987305408
0,104138965971956
0,111120737027425
0,109125420430276
0,109300492717972
0,110303857678931
0,117088590809628
0,10880454296575
0,107728339074549
0,110052703042618
0,111287751393678
0,113235029982462
0,119819832217174
0,109510793646612
0,118893266564694
0,117975613119315
0,118610359466056
0,117895310027877
0,125171026360945
0,125698636519182
0,124038483446859
0,128271769840416
0,134705994333835
0,130688742990129
0,137739197551508
0,139474275640845
0,144835744235109
0,146228024938871
0,15237278189249
0,152335264366641
0,159901134040074
0,163661406517308
0,163341846753836
0,166496226795726
0,168800325732447
0,173183648894395
0,179464728811693
0,178340367287337
0,18410546052116
0,188534182423939
0,188578117477057
0,190425990753923
0,195466545504948
0,194327526847805
0,19720271174443
0,1998921195529
0,203012283215014
0,20604756307273
0,207207132931635
0,215152937485218
0,209910374875438
0,20974231435844
0,213630296291071
0,211027047201198
0,216824911661998
0,214711759235935
0,220730235606107
0,219097380003842
0,222920220305029
0,224643271157843
0,2245465200743
0,224637264112916
0,227624640674465
0,228006894380003
0,228298603706741
0,229264827499938
0,233280469514074
0,236345533667357
0,235897383963427
0,236667272122318
0,2510492593748
0,242278565351153
0,242102108485126
0,245770417753574
0,250901634972297
0,251977546099262
0,24809569122272
0,249510209777066
0,257657403613661
0,255389779357947
0,255402580267173
0,260440471193259
0,266625655722711
0,261258721668208
0,264494298930156
0,268061760715974
0,269614908220471
0,273825272290987
0,272100002300902
0,276473583213754
0,270065050727297
0,275188438056047
0,28289158409074
0,275832142366336
0,280781366081455
0,276677482599016
0,288333498991157
0,280276589314675
0,28311720397976
0,281993875636059
0,28989480572441
0,283287774133294
0,284024994095903
0,284391075115179
0,284719274966203
0,284525835655516
0,28853895226225
0,284950137442547
0,279342982497133
0,278587597548321
0,283303149700897
0,282806151239699
0,287632109345381
0,277701387314625
0,283472155174839
0,284005986269039
0,282123551870564
0,280486075600656
0,281631078771972
0,278287288505114
0,280613637378733
0,283585633283076
0,28542502378187
0,286296199637511
0,285300848853367
0,281009426919659
0,284906324313234
0,286017643811708
0,290051698513388
0,287939301418578
0,290141055894987
0,290482570011364
0,294869725388612
0,294691519717029
0,292409012136317
0,292734601980215
0,299345288457964
0,291497362725896
0,298382880116186
0,285305887979457
0,290141746410877
0,286092222064681
0,290875623952595
0,287984098994564
0,281983137010806
0,278933072424737
0,280914781016405
0,273754935120965
0,277483144718327
0,268737873000342
0,26882537903166
0,265525938789199
0,262910580364233
0,262885082923122
0,263740585899839
0,258334004674326
0,258334109730285
0,254512483376836
0,253965595843365
0,253008735557868
0,248143786582244
0,24951409037169
0,250104809659974
0,244248124647209
0,249050234828698
0,24544102197141
0,243715456656392
0,242771318558909
0,245324056635334
0,242458482921761
0,242262858068006
0,241832791812354
0,246979449698995
0,24486493799415
0,241977060666506
0,244362477154202
0,244755065849477
0,241765611144577
0,243384787707779
0,243155060810402
0,242069908450121
0,238613384938218
0,239050224745291
0,240707137382647
0,240577437337023
0,239793738241562
0,240521310618419
0,239490263202644
0,23764932472385
0,241110200382156
0,241502185302042
0,238448573905696
0,239540199403303
0,236940008748273
0,237294614541596
0,238898900082083
0,239574278330588
0,238012791643078
0,236598092532145
0,240140868281729
0,237443742792665
0,238663327932421
0,242613203968854
0,240517377336356
0,241108851337079
0,240133753243974
0,239149587084787
0,239605512878403
0,240705254699334
0,238901324060185
0,236910796197281
0,237600199999546
0,235153989319345
0,234093581736836
0,232863155977287
0,231759549567024
0,228727741162093
0,226402313563877
0,226695954269201
0,221429557143198
0,223303872897028
0,221165898315072
0,216813868946016
0,214852421740377
0,214851833952618
0,212439790512491
0,210819945429372
0,208844843197263
0,210735771515765
0,208415767580222
0,206668909040675
0,204748752252978
0,205555494469712
0,204152165822948
0,203697752403638
0,203946938352047
0,202576642986861
0,202537459601543
0,204354430081388
0,203908464251118
0,203520687463002
0,202024546431213
0,200716510733576
0,204559847385642
0,204851798007985
0,205764672031811
0,207304351512676
0,206741513915331
0,209412968843344
0,208199884054986
0,210549540520336
0,208928511737307
0,212578567585387
0,210493277837635
0,214351217820191
0,216845829476608
0,213944550226851
0,21373135146954
0,215872715785663
0,217618381785971
0,21837725330457
0,218132372179455
0,21811851104613
0,218454086587342
0,216668925392146
0,217391860009019
0,217273687517889
0,217811105262796
0,217920609603205
0,213755268699715
0,216594147672717
0,213254200744223
0,215002960234235
0,212117660931791
0,212060364493032
0,213214692278135
0,210441275140207
0,210086706679774
0,20991470560334
0,210311468827415
0,211050139606558
0,208160934458004
0,207333734862671
0,206258749031975
0,206359002744015
0,206315299664433
0,204781905088419
0,204128181635815
0,205452214463218
0,203565874956147
0,202638645467285
0,201881544372108
0,201523358897763
0,203185342126216
0,198149219021615
0,201635681232318
0,197941132217844
0,197993084406395
0,198271301740927
0,197484506838076
0,198912524225892
0,1934862521107
0,194258559051026
0,193147523522595
0,19394784569546
0,190737897511192
0,193494260281073
0,188448439124521
0,188991461638469
0,188266462798851
0,183542668075251
0,183446295015348
0,182616011832918
0,180291204732585
0,17942640731556
0,177303398381473
0,177321084072213
0,17615046662225
0,176609806158608
0,175843950196975
0,174604178258808
0,175495827696702
0,175673628970106
0,17473991411573
0,174868427103921
0,173294323914668
0,175242895961483
0,171656269144292
0,171330150443282
0,16999746245085
0,168672164796413
0,16494146952104
0,164993882119166
0,161013456235735
0,159352451639163
0,159543132536488
0,156307890932739
0,155392448666658
0,156964528883548
0,15604527405425
0,156704250740177
0,159570070299739
0,162210602657053
0,163004780772583
0,167749676819067
0,172523156634261
0,178237609853593
0,184237765102357
0,19099672049089
0,201597061704533
0,206751389610803
0,216304299103937
0,226543312166381
0,233928508916776
0,242433165228707
0,251186096896139
0,262985430842195
0,268137599826092
0,276336101323979
0,286715639738241
0,294932458226292
0,300910269731295
0,311410197707285
0,315011591970228
0,324379456625705
0,33315368901213
0,339774883562542
0,343721734890896
0,352504167926534
0,358902613973351
0,362356351912186
0,363260573638189
0,371634428840236
0,375143503482671
0,379930862371546
0,381926375133959
0,386652455182008
0,387117950921743
0,389780839657908
0,390139360696731
0,389868739516632
0,391032998784562
0,391375407286464
0,392951812915458
0,391855388765275
0,391931563573141
0,391672636656125
0,393364193529743
0,394694103772687
0,396054862938596
0,400806460175373
0,401061662914327
0,404524909911648
0,408562292419601
0,407961432865116
0,411563180645523
0,415966344073626
0,419266001023031
0,422719840134995
0,425037186109957
0,432403422129087
0,439311546842784
0,442453790750604
0,446385208892659
0,45377060392794
0,457393808184727
0,469960038134116
0,473577227554035
0,481048424355369
0,486295618685971
0,494590462570716
0,498487482982832
0,504554695225651
0,502899083054264
0,510339914343962
0,512462573271734
0,514287496530154
0,510072679421856
0,511786471869113
0,505423904246876
0,510062892202722
0,499741494993087
0,504107881603638
0,505336985824759
0,503190257738366
0,510388419172728
0,507911480831328
0,51551985493208
0,518364546020912
0,523284763414496
0,535318823927828
0,540037495309526
0,548322654987903
0,563768342302875
0,573946178152462
0,577207343670539
0,590424472285302
0,593878426694353
0,610020826329829
0,615124059349566
0,629437957743595
0,640671279838448
0,644850520953001
0,651520413025749
0,67724891648732
0,676663869198055
0,687978523532406
0,708402408230641
0,715289439224002
0,724238668928784
0,739618370207885
0,756097765291427
0,76393548734256
0,77288581591475
0,800431697840492
0,797560635467942
0,822992111951505
0,821842205737672
0,83777084813675
0,859727591151776
0,857471765620891
0,86677973186157
0,863484820719218
0,871673584006247
0,886707702234185
0,886939689326658
0,887475321999153
0,890181244475137
0,891346082108955
0,886434582489152
0,881681866768916
0,875561900205713
0,877263078569119
0,877078463789662
0,86608200867352
0,858984806452183
0,880078871883835
0,876010329259983
0,868078386047811
0,869251292143374
0,885900974762147
0,878946844229901
0,880490364492157
0,889278290307182
0,911405708520863
0,910633629640244
0,919846205434468
0,933584867203975
0,935114679344219
0,948482273852369
0,945756101934384
0,972972520558645
0,961937609681586
0,981340068795437
0,99184386967782
0,991658276082406
0,9906929654024
0,996747513328976
0,998267743914336
0,993711271443637
0,997889654817418
0,988983862073625
0,993686444185954
1,00030548711691
1,00384343897187
0,985596872867188
0,994707639946794
0,989810824796663
0,993030466132352
0,987267816381832
0,986357528662612
0,975736033479067
0,968459484768828
0,974193881106893
0,964923883706391
0,950288979328826
0,960074834631247
0,936234332692897
0,941722136032304
0,905664865992298
0,901461737274186
0,889256176557976
0,875552691981254
0,838076385200837
0,804905107795212
0,787581165757228
0,759801946898625
0,727341542444709
0,698829228343422
0,674612209128827
0,64846253908513
0,615384667874751
0,587953237720867
0,568901237008045
0,54854521590632
0,528457176177695
0,520702059285568
0,513442583040763
0,500003469487097
0,499771648984655
0,493114233358018
0,487410157757176
0,484272287551493
0,475365669534429
0,47335445271567
0,467261609993935
0,461423875028444
0,454681610624309
0,452886930660566
0,446471288916706
0,438155539494961
0,427616254912667
0,417458065637514
0,40832458238944
0,398151769411275
0,390226783946402
0,375246693921899
0,361190420920541
0,345075183567577
0,336688743167765
0,320483646128713
0,309255564487825
0,295411292517797
0,28549767763172
0,2652920163276
0,252907275675453
0,238834646559502
0,228433832681011
0,220085342288677
0,209066166655365
0,199456404061076
0,187933221957802
0,179097116799482
0,178294845609216
0,16650242431474
0,162330164448224
0,153888687218212
0,150115435462452
0,145948292293819
0,146110015708252
0,141069316840625
0,140046979121092
0,134461377552502
0,139700700372531
0,136973613100023
0,135731571878889
0,133807985595215
0,137168510759254
0,135006095288614
0,137606374982904
0,137949501385865
0,136892421836319
0,140990687594818
0,135518009589787
0,137955648788021
0,139761351161322
0,138550039284118
0,139490843113004
0,140189758262205
0,138032974311537
0,136205529476032
0,137464306813925
0,135677407434535
0,134844769717863
0,131555230151246
0,132167710117401
0,133371565794569
0,129383202406944
0,128790805984745
0,126011929506382
0,126503256891794
0,130593788717373
0,131057662754116
0,127206412657395
0,131585021986411
0,135190919229845
0,133051917484787
0,134780109538438
0,133568944083051
0,139896786299303
0,144380561713337
0,141766288421405
0,14041307891864
0,144496677705425
0,14718375869425
0,146840917416411
0,148320268517633
0,14990738532749
0,149673201557187
0,151877231995499
0,15233771683948
0,148607794432295
0,150973326954526
0,15261543231136
0,148125491327507
0,151154486208267
0,156951547047658
0,158057415882255
0,156184411321974
0,157089316093534
0,161511396247419
0,166079810766888
0,167085860097983
0,169719689900748
0,176599393833498
0,17955760808756
0,185389238467352
0,191953852562363
0,200298724435679
0,20546521818738
0,208059197876584
0,209470986187791
0,211280702644975
0,212831904538277
0,212501294221681
0,22119096137429
0,210559749283258
0,203556455604108
0,201232641322486
0,201165337785254
0,195133210903929
0,191762174587294
0,188985200183201
0,186470917429732
0,185929965966055
0,181032270959367
0,175370616172507
0,179609667601307
0,185174214388166
0,185800978863397
0,18627147102948
0,185431924780363
0,179832615998074
0,178524516486554
0,179312489776082
0,184374969013159
0,174557103384375
0,174178888278797
0,179161978241469
0,170052695970681
0,166772727817417
0,167386861148039
0,15642458185712
0,1575470953293
0,158905693426807
0,157251734743637
0,154023366483738
0,153978123462491
0,155488715167694
0,154437634498761
0,151513085112168
0,1509139225223
0,148291863737422
0,148702788500917
0,146546865368871
0,14410172899621
0,145376950674108
0,145687819777495
0,139519650834597
0,138984757792143
0,146850491570438
0,140709589924944
0,140777368653835
0,142736225885668
0,142317092746617
0,1341779766251
0,131155781232318
0,14270009960899
0,131842478831652
0,131412315646954
0,135149297911675
0,130442184772898
0,121094969387591
0,12427308564309
0,127710519963061
0,128208287642249
0,126330106528763
0,121827158793045
0,120005302748402
0,125150977885232
0,12227724748474
0,125891642255915
0,125477375196114
0,123764223725453
0,121081213463803
0,12142142370553
0,124072316292524
0,123569683684768
0,119297750493255
0,125190786288371
0,124574479954708
0,12765865169972
0,132434054853817
0,129517106114751
0,118927882225788
0,129628041471746
0,130653683292069
0,129803738361872
0,131897877957266
0,133102976893351
0,133182984251613
0,135776543684545
0,13444592741431
0,131033344284592
0,139649330037692
0,141608243820657
0,137037632583633
0,146944288681946
0,151028107664263
0,15027374578077
0,146655770048235
0,143005943536819
0,157835584231712
0,162306021065875
0,169839795560631
0,171974125746937
0,186662488134864
0,186452451782631
0,181846672634644
0,193944040303285
0,193685757471258
0,199594898816673
0,211613052684718
0,227876667398846
0,233844065384886
0,238255353337675
0,235557082838255
0,25719846368603
0,260571456016824
0,256597452093638
0,256496239857418
0,264473596649829
0,252983231644481
0,268825786907681
0,256580640774199
0,252164848349356
0,238657605313399
0,24160901763402
0,243502934669661
0,23293200469827
0,239411651320071
0,244596867035532
0,232565686330348
0,242307082724557
0,238363167987812
0,230485134762045
0,239247823216353
0,230135863547444
0,231608771048527
0,239840041219578
0,228435412380457
0,239940513450809
0,210902522709251
0,222552397493948
0,212641993770904
0,201860729290703
0,209095481004159
0,199827485416113
0,194550126390244
0,198759656699205
0,195130099399558
0,207921583034379
0,196835843153562
0,207219650890215
0,192788130187118
0,195884163357422
0,193218087516334
0,196262920938638
0,206940082256069
0,204291494029628
0,203221949141504
0,197136727245511
0,184760317758566
0,199684682597676
0,196518187377251
0,217482658400943
0,223249925729369
0,210932897262851
0,197439047936426
0,202676442767162
0,210595160121881
0,212565281827906
0,205400919366137
0,206510610072013
0,210153267158304
0,189334634201974
0,20208243404236
0,221161781130454
0,217935059917665
0,218349877635213
0,22192984619726
0,2261609200382
0,221226718306658
0,229905966246601
0,21618836225414
0,211628506863946
0,232756868186683
0,246065362076867
0,246087685533672
0,233629917150944
0,235946130581718
0,256214541798678
0,239193789979093
0,254504082626787
0,280112766197973
0,293971195135421
0,270423319408281
0,273806541058567
0,297124778573513
0,310132764116153
0,277028855687305
0,304289408791411
0,331868091416042
0,301864877936415
0,289322926857966
0,295755101162865
0,297369486217448
0,316709971127334
0,312036413709289
0,300859413144837
0,3243961483387
0,300838201400326
0,273147147273924
0,301729003416944
0,282676223296557
0,273676207521753
0,289786836302053
0,258684354086008
0,233128725928319
0,284851439783339
0,253521434575052
0,258182264143537
0,350901652781516
0,319570168195491
0,267023095548742
0,324669734768665
0,284098957261648
0,298074730647638
0,273612344518327
0,317336840201807
0,299973969371299
0,35910553332608
0,313542668637395
0,241279879361488
0,27412802071419
0,243119408471178
0,311277427034779
0,345402937712803
0,257052078588148
0,300313909265533
0,248588498828141
0,287234065962151
0,366514798345494
0,27799949369599
0,246415236076356
0,493076578637309
0,309101592364467
0,302740557206206
0,361421912994183
0,269394256743092
0,297294480729402
0,389585570613247
0,236392893350212
0,347934830670123
0,380379527484515
0,310165484587405
0,275366122627702
0,315194819781567
0,384376085503036
0,434184912712779
0,40008668135429
0,211469464611132
0,104257505245088
0,169345031525862
0,292585971050165
