3596
4000,36533379555
650,420452594757
1
2
2
0,0346535407621886
0,0237541998726729
0,0376093709108966
0,0315207685517754
0,0379541935064075
0,0298880121004646
0,0460752635659957
0,0367792866629298
0,0377352201747357
0,0223135437688345
0,0326634109182598
0,035728562789455
0,0434907771596322
0,0253797936884387
0,0396270403574843
0,0259003530905356
0,0403098192712211
0,0245425626346046
0,0469576159850489
0,0283823890270018
0,0349591881140594
0,0294070112128574
0,041720603362258
0,0236672026998097
0,0373321616125926
0,0265995358808892
0,0389615044887586
0,023172643709657
0,0378631173986728
0,0288436862614721
0,0416802955068348
0,0219897669616932
0,0425980539737857
0,0298477217156609
0,0361418004080271
0,0240315847280378
0,0448549479190702
0,0280867770718128
0,046635414903738
0,0335290007669005
0,0409392804383937
0,0233874707216186
0,035051733541183
0,0211800310382939
0,0354425173355172
0,0361400730070174
0,0438116227500027
0,0233034088051979
0,0398177867135979
0,0247722522543091
0,040448171152599
0,0238519588077105
0,0386571085366986
0,0319536805341727
0,0382261059730528
0,0296463353167995
0,0311884359557823
0,0211758695317007
0,0401276893013738
0,0290515058285227
0,0388693451607776
0,0292802621140344
0,02998715038582
0,0359783430707954
0,0396064950904965
0,0333231689940158
0,0249884983155188
0,0311839414718878
0,0358751219809331
0,0253422982386719
0,0372722798547976
0,0204274377926
0,0409715488438311
0,0187965990254222
0,0464849717346015
0,032769135002689
0,0353288554441375
0,0247260414884564
0,031742448075541
0,0229484870703683
0,0517818132351191
0,0172333396294401
0,0342371170840807
0,0375898059074066
0,0341716964143738
0,0198727857346601
0,0355336634918251
0,0139892100854974
0,0420729574007466
0,0153562469906995
0,0331164021250936
0,0226161881114475
0,0288141666738039
0,0173265255324904
0,0320870466201873
0,020278189289205
0,0410582806725168
0,0175169305598018
0,0443561617859463
0,0166120152341331
0,0472330162411886
0,00608783155222597
0,0633738480902733
0,0312400023691827
0,0353402298677767
0,0335885890668547
0,0259368541505375
0,0359649742153201
0,019800358352367
0,0312291211461114
0,0330067138352135
0,0194926377281202
0,0191393740531852
0,0342519520605493
0,039979091394937
0,00784196452381112
0,0447512768320939
0,0177374242041782
0,0237541941648206
0,022186403083431
0,0477004749306227
0,00560067161109312
0,0440052684242346
0,0015932955511384
0,0298865054981727
0,0159518224245514
0,0349301554293342
0,00815845279629244
0,0478179329821772
0,0102024398274752
0,0355123028846075
0,0155162556684127
0,041955429486891
0,00719505814107295
0,0520799339911926
0,0219033698101225
0,0335792980388523
0,0309014454645272
0,0274697385824738
0,0180522092077719
0,0321993086700086
0,0212876967585301
0,0393099724978883
0,0158500005352786
0,0383988985486118
0,010069181524946
0,0315142392507144
0,017087924959943
0,0486239762976914
0,00946328635103378
0,0328951264073524
0,0246230213697555
0,0460879591727967
0,0154812750691815
0,0498083535193556
-0,0197770222702242
0,0715141270322733
-0,0268306713497704
0,0598300287297711
0,00456009088176874
0,0258009153003008
0,0251077900873834
0,0238866152334134
0,020878472043001
0,0244655059478177
0,0262643727008704
0,0211894040797485
0,0260204575318793
0,0338706150883568
0,0182555580857792
0,0184683715876812
0,0310063486773786
0,0346998300791673
0,0028893095778784
0,0392473510898949
-0,00105114627462387
0,0398399971751499
0,0130006079840995
0,0367825092004707
0,0161274758538988
0,0350179309864577
0,0179321839307786
0,0357537599048495
0,0175382009005633
0,0339447543893438
0,0203601278724255
0,0337209054421169
0,0116061297575606
0,038536374181893
0,0161450249304339
0,0597099289829168
0,00883414644373909
0,0465739266698679
0,0112336803268274
0,0245422687568783
0,0210954713338002
0,0182851949119353
0,020872442703728
0,0231243140177167
0,0170909065390037
0,0226563287364648
0,0153151763047205
0,0284793871954294
0,0115118426950818
0,0390706543971544
0,0376532524242159
0,0205871191334605
0,021791174614806
0,0252437327785789
0,0231083483615736
0,0277030888802191
0,0491997655542836
0,0190548335267995
0,0206847865983635
0,0211468866507938
0,0272975086301307
0,030240928411143
0,0196970377326825
0,0363607763259287
0,0176645850032973
0,0212398337420689
0,0115327278349492
0,0196276277362593
0,0238715039425607
0,0278744051806271
0,0183223635131235
0,0252607263914594
0,0212463777463447
0,0247740457931288
0,0173613980785244
0,0282803786404568
0,0216714389460109
0,0230449502254203
0,0189803235438172
0,0378304753654416
0,0174731272957967
0,0429284650395239
0,011792593649285
0,0301856756700532
0,0147585484046671
0,02655242543808
0,0184301575374357
0,0315307236928212
0,01741463189755
0,0367590379155386
0,021139308101574
0,0217995534059617
0,0255011357505136
0,0225129917997307
0,0347560484646649
0,0211776206133705
0,0412920185464635
0,0196561164688361
0,0225449518585243
0,0162093722034445
0,0358908329031452
0,0185159182630381
0,0232912734350675
0,029394650949414
0,0399427121072791
0,0207365143287985
0,0401997205704294
0,0267353313449913
0,0346418841951632
0,0371062445375649
0,0100489243426538
0,0515538563401057
0,0466858697530372
0,0267857676309031
0,0493666169689306
0,0160823939094567
0,0335899055952153
0,0339832904807005
-0,00779100230500635
0,0133126616944728
0,0231396456862153
0,0292482533537735
0,0241156711481925
0,0379681430503391
0,0108255297153995
0,0400418456106112
0,0090664144263512
0,0703780404241183
0,0267267331229853
0,0199697976076725
0,0421714697575175
0,0163275351261256
0,0432751957397241
0,0237527407229263
0,0296748290953671
0,0188535630965109
0,0442822034521836
0,0157749869148595
0,038860973566073
0,0182287233118893
0,0382933668438797
0,0328822940933779
0,0311983149484834
0,0234922759049351
0,0410174345217711
0,0278168333567272
0,0343990323914338
0,0288404332446623
0,0265158113337079
0,0362814515165268
0,0234918423051894
0,0469832673770871
0,025769401557838
0,0229519690178053
0,0472495570572751
0,0358000371694657
0,0233580645194389
0,0348666210335307
0,0297544690971023
0,0318748599105901
0,025447652571895
0,027297928654589
0,0227045197275028
0,0375252309346867
0,0103478941090071
0,041845121543314
0,0222941802506047
0,0367168952544227
0,0375161535003309
0,0413823742209725
0,0316850668697717
0,0382144564713681
0,0289891876294916
0,0447578688387115
0,0444617475230255
0,0314726513084281
0,0342834873852299
0,0624605967601399
0,0184268862460282
0,0430965817235045
0,0237024981506389
0,0386661524068425
0,0329476077782249
0,0396374165358553
0,0390156462700318
0,0373809589782796
0,0372030433179318
0,0504341715127749
0,0416695026640691
0,0491378367171947
0,041069624465883
0,067000401543589
0,0520473318085379
0,0371918354873481
0,0350485982941136
0,0427914689154597
0,0632503570054014
0,0352923749997687
0,0628818700060518
0,0431165734457882
0,0450225298413652
0,0499536982784569
0,0343716448398012
0,060388216433253
0,0439403342216747
0,0566229977883914
0,0464907937668981
0,0631106662513313
0,0469983922546045
0,0619404885094183
0,0464046774906575
0,0743256422719294
0,068085055706535
0,062761385312459
0,0568800246250282
0,0622897040502654
0,0568075189562666
0,0832526387688225
0,0620618829195762
0,119059305427378
0,0481819809810649
0,100323280913532
0,0689852703678381
0,0791485125715203
0,0782563607885389
0,0670921839960982
0,0782230326933365
0,0843094268022557
0,0764627224786232
0,0784351288746128
0,0744270152653178
0,0897881019278959
0,0918540621367553
0,0936208733094128
0,090336134682522
0,0858525850463516
0,0956955798835353
0,0782491023333342
0,100530744844103
0,0902034007438028
0,120471734575947
0,111707397912572
0,130170015973968
0,0849633882658185
0,109955836634964
0,0937511231143452
0,10131216837313
0,0989333480993996
0,104947128912647
0,116129360065755
0,121709324818543
0,135301355614425
0,10839133815631
0,137237221642075
0,115861863600963
0,122181507842536
0,147185184279909
0,111954051138141
0,13969725098454
0,135123677825405
0,137502514821459
0,1170279945979
0,164448482196547
0,121005166098246
0,14284185177859
0,153294568463371
0,136588881843832
0,140334566822966
0,132139020913245
0,162174527840709
0,143453702209141
0,162593432980008
0,155383429244556
0,163508352195821
0,170679050192215
0,163101720387765
0,153838797513499
0,169607807628658
0,16296981590183
0,179427136609393
0,176292204505037
0,17726612879573
0,183713046709029
0,156627279973127
0,218792638747771
0,182327505931802
0,202692089942309
0,196207835410573
0,170625968369017
0,189857848016053
0,18208299499388
0,201439608610659
0,193119507238785
0,207632441916277
0,206413051579636
0,195545227989642
0,210132895407473
0,207441429451844
0,211301500620269
0,22857261834097
0,228778027259913
0,223968850505999
0,22939458442335
0,232802020875301
0,23613888674772
0,233136636675082
0,275936125327892
0,235563189113675
0,258346736778979
0,249704226034375
0,235028323655162
0,251321148052614
0,246997972496199
0,243258821199308
0,247068539501879
0,273216384090549
0,262278714916489
0,264027419799699
0,272299283516866
0,280158931071838
0,273384063624154
0,287161913792723
0,285399476383434
0,288104271449897
0,294483181582238
0,286869518625128
0,285276945439299
0,293326249115267
0,282271012690611
0,304120922640417
0,311161923472241
0,313833389788565
0,313810960622962
0,320728656967077
0,32280511282596
0,32175637574308
0,323016470385943
0,32825216298821
0,344170218762681
0,347836542544127
0,34030554466174
0,344850935514069
0,360150226586256
0,365468613788516
0,349972705636073
0,349422622882558
0,366209198076473
0,356496066682812
0,370659237040301
0,348536876387442
0,392446580696737
0,378353710072774
0,384282045027989
0,367349602588485
0,38002529564481
0,384414186866609
0,420398693492053
0,393007095436498
0,392163806077195
0,414163951376794
0,412496675571498
0,40565772487685
0,415869765768278
0,422140402276258
0,430119532379585
0,407081967869332
0,439859929986971
0,423101344625643
0,455774830350016
0,454948409714922
0,459335396597346
0,444920792567527
0,461508596635796
0,448443833619887
0,46867853972624
0,460455240683348
0,461216950282162
0,466126872359496
0,462633719505783
0,461832455366927
0,475448177283897
0,45810721836609
0,483018979484625
0,465359662046933
0,495972531338551
0,476112604989147
0,520714893077032
0,520709036203479
0,521921173848686
0,504994281032726
0,514423090156637
0,514130901405759
0,525444288451455
0,491800626036453
0,519297186919601
0,503643312015739
0,559167527974797
0,547549844795012
0,561374781453546
0,529285599604039
0,548894689496469
0,535333332564589
0,53125671357765
0,561403870593176
0,602625929378307
0,582480207855477
0,597040520518286
0,552579354392629
0,578171107639383
0,595379649543289
0,589759642894199
0,605589271112268
0,588528504677221
0,576865524137397
0,603933380246127
0,58225246867286
0,610959496309794
0,610778873865367
0,606234270698175
0,586006286789807
0,639697734609375
0,604977101152114
0,637730070229573
0,631194039093224
0,656060193368697
0,645120457171124
0,676836376935727
0,629810793229265
0,678575438630539
0,669329973709643
0,676071074367558
0,642491674469948
0,678630521161387
0,676235212535243
0,667285463897829
0,663755191455052
0,705661428201844
0,61214555428704
0,709462764816217
0,685604985700748
0,6996127882868
0,650274737217912
0,708779930300607
0,688073187158929
0,734307483224873
0,704574399506979
0,706091553074663
0,67800563694534
0,716996281483089
0,673455089795155
0,732927667750833
0,693181918701882
0,784052628045259
0,695330847030949
0,767970561911637
0,706425202545767
0,785672031708535
0,726632679049928
0,803490635249257
0,715765820507413
0,743064919066464
0,743051656100253
0,803203426901314
0,710837815649875
0,768098190569067
0,753380885807307
0,79240407563717
0,741277146678898
0,77440080527009
0,755286156855619
0,80158635122399
0,745265387729846
0,799142393741933
0,752871670803478
0,767432282003087
0,763692996954829
0,800276946153968
0,769857452910094
0,82767836875004
0,78105974931879
0,82311721347352
0,789062814742289
0,819774629218551
0,777945299974131
0,83446377096885
0,787777677505744
0,84707491403899
0,799295179409801
0,814218681938567
0,795622286411676
0,871473038519688
0,823101372382592
0,819565058576821
0,817537828402377
0,81308090291649
0,818166513322117
0,837603050286482
0,811728443156493
0,936409705432096
0,869434952570524
0,848816406493424
0,805883586723461
0,859196411226647
0,8408795356596
0,875864310973259
0,810208679908512
0,88076126612784
0,839821638771501
0,860587257503346
0,857450074814961
0,892474695045361
0,84578495796068
0,86784145799902
0,878027565378471
0,855521829861113
0,841422023645705
0,895424440717454
0,865307006529131
0,927263420000523
0,878390032722478
0,844374913238962
0,864874162915947
0,910670943809855
0,86690163620228
0,951369761336941
0,894086280296047
0,942392473877919
0,883563151674772
0,92055053920031
0,845731116319603
0,93199527545869
0,877362501031764
0,91868253705656
0,866775855002253
0,896135513971673
0,866179002163551
0,90941369340129
0,91712829779591
0,968809136053211
0,882013244295586
0,953558538929595
0,862690429291166
0,942562228661391
0,90225850118015
0,968315234563909
0,885755924359286
0,94540248836937
0,908423437545742
0,892451699056188
0,886379101071754
0,915750063490407
0,90789073462842
0,997911053305193
0,89662918678257
0,922414506811677
0,884700334973332
0,983831294403225
0,907092843307171
0,956487253348309
0,912840026624592
0,985275044248012
0,901134009869406
0,959913738521443
0,885434240089403
0,89869404120032
0,899600008452871
1,01532014885313
0,853158946062862
0,923684846615932
0,949286603837875
0,944639945098661
0,881153182163741
0,910425645532781
0,910567848778832
0,987623370637645
0,891290051499174
0,901060219033844
0,925791618461558
0,985534321448477
0,892977998224037
0,99250018662292
0,911539972402919
0,94436586255537
0,906827879666524
0,971977049290445
0,881190112730475
0,986029863903374
0,905216536781545
0,909626106740338
0,916534820132977
0,953804763057157
0,915685825534183
0,994601241629862
0,901469900280032
0,944753893758654
0,904895417786406
1,00941040270172
0,902022647702659
0,922858371983679
0,905133728766981
0,944009597678186
0,898187472013869
0,937181515936499
0,895209718843825
0,991457154901941
0,918356924368021
0,949974040924246
0,912429686880466
0,950772138149498
0,974949944134649
0,961151547753042
0,914410247933614
0,954099424098402
0,871867828026718
0,943943453491801
0,881756936859348
0,915872020657785
0,914069325991076
0,945604028455191
0,892098273666359
0,952529197624054
0,885315092715532
0,986372662393476
0,882238506875582
0,980283602827116
0,902039104632088
0,967947793219741
0,8666839017864
0,922453930580372
0,856729860405784
0,906310186620169
0,900592685726542
0,93785211578032
0,879305061077693
0,898883501304383
0,881267798226501
0,966696604635712
0,883679151200027
0,925826807367494
0,852925892373969
0,883940658211357
0,852479237833987
0,954696480496056
0,88555240391089
0,90550425281915
0,877270633617208
0,877730435662181
0,877851973550112
0,898152934443754
0,863389848456726
0,904153078623755
0,872438906666642
0,866387943234539
0,844146827546455
0,906250427052976
0,837362617342606
0,879823583530325
0,836420803327885
0,873851884011824
0,822668830018313
0,856266123925655
0,842573753455089
0,859033652174631
0,78422447927735
0,858508004431066
0,8476420827731
0,874202545405698
0,820529730629827
0,825141685698702
0,845326863907397
0,820160524287566
0,815715969230149
0,881303015219151
0,802377140292588
0,836708274199535
0,816614404152187
0,820075695359514
0,808512614422698
0,810774182224893
0,79493015665449
0,820363488319088
0,821941227390783
0,829065810852639
0,793418598695282
0,808318284955718
0,78226567069079
0,795491593138906
0,759095832954209
0,797066015913073
0,811953989255029
0,808862346878352
0,774890681145044
0,787967337092994
0,787454680522193
0,77856417640387
0,735157499397693
0,773869667249553
0,758283570859375
0,789827051708357
0,759727840960675
0,765400980121804
0,746553540863754
0,795753306642824
0,728973498317946
0,747798776538133
0,721771872487351
0,790555474145634
0,724024131295275
0,765752610547662
0,731039240626004
0,731631231007488
0,70081243749511
0,727411804710434
0,715110716310946
0,721928474538787
0,706590887913182
0,73197103713223
0,691838493471055
0,736598253830318
0,704171195820177
0,7210801048373
0,721473320777965
0,721198113928201
0,68369991375196
0,707326759198871
0,696250124237739
0,688066311840509
0,687466949949512
0,70551523239297
0,666580585844565
0,687486528562632
0,661241366681802
0,683038295984819
0,682629294720253
0,687722092333847
0,665432501289685
0,679463835859637
0,654129481049783
0,65461174315539
0,632945223422955
0,644622903379692
0,635869763262243
0,652932831516451
0,643245030713092
0,649913703080481
0,63709385192256
0,657061003518275
0,632391583971615
0,661663662149458
0,621163266905696
0,644054412015199
0,605455416204775
0,623594145822025
0,603632029232939
0,618046758241394
0,619712242757969
0,619209433295536
0,599328440660188
0,605275784806283
0,588339003191435
0,606727340075256
0,579546442249259
0,594993367640034
0,577964392280618
0,594617393973141
0,583767339289156
0,58829441785569
0,572685082644723
0,589402683490769
0,566045709031343
0,588873923653273
0,573476136755761
0,575728058125562
0,55750864354949
0,568124270547286
0,561927794836845
0,569160728768285
0,54669983030798
0,561897168637678
0,541184365272619
0,55174823841794
0,540572242020387
0,545283416820687
0,532358069954107
0,548254932313026
0,532742397554068
0,557825772083866
0,528017730992468
0,544246137505846
0,521266471033662
0,526266195040162
0,497875644734632
0,535791001356568
0,515140577120569
0,519509137968907
0,505072886471461
0,514687379345655
0,509782263755385
0,50278916307023
0,513152596377238
0,527305944576031
0,510792446763074
0,507795065501338
0,490793392596516
0,501733329710741
0,494716789203501
0,502644001946942
0,475510343014685
0,484222467197065
0,488318518177163
0,493085745708907
0,482857094558206
0,482499912445458
0,476401406225525
0,493310902702982
0,464512735136542
0,478972594626271
0,45248775254318
0,484250898835187
0,460074535210212
0,476291558080611
0,464581163365088
0,461800038528555
0,455257525735304
0,462027070442921
0,45467139341853
0,453822506759828
0,444051358094404
0,461681427576218
0,437784108761111
0,445214006180975
0,43906075189647
0,451721687975457
0,436930017205758
0,444001629502598
0,427267333210695
0,451555813855703
0,433268936696701
0,436878991809307
0,42871854403983
0,425338116147721
0,433034786791795
0,426567294219438
0,421445782882392
0,430966126172787
0,417287316625435
0,426070520101744
0,407442947517571
0,422321607050884
0,410637816398976
0,419638105346819
0,402933551378856
0,406475119764144
0,403068991009717
0,411086026442774
0,404590489667789
0,409854206252114
0,398029569046183
0,402618372228548
0,389662966535884
0,40214240586148
0,383849322187737
0,388320285306847
0,388192060546958
0,390860275683688
0,385402065430317
0,390603966226769
0,377562696831514
0,392607988420972
0,383888780454091
0,381740778244356
0,373004555119522
0,377555772702881
0,368773380757898
0,371920832786915
0,37284493613071
0,369873735566372
0,36459219299594
0,376660601192666
0,358232161030081
0,366801449215723
0,361918068781787
0,36058626782308
0,354200001368741
0,365044405328347
0,34801841493107
0,358531462648807
0,353224104213809
0,361722319490465
0,347602032982328
0,356829192508491
0,346939680729018
0,34875353092278
0,34664898281595
0,349281280705983
0,342485820618685
0,348450539354744
0,336368832701359
0,334973349791464
0,328011190966977
0,340111558896056
0,333255228973157
0,342854037031376
0,339564706294231
0,336011930370658
0,331481159523088
0,337143575861549
0,327903371624004
0,336611096015801
0,32483968188134
0,323480149088595
0,323071591196937
0,332250938033333
0,320282460996163
0,327692284104314
0,318202885227997
0,325754784544447
0,319176369224793
0,32633064638561
0,319739990928513
0,313227741631285
0,316184522816726
0,321983846685883
0,316894075914825
0,323591206761117
0,315011649117992
0,328779679227477
0,31765257622078
0,321904593791072
0,312055331669389
0,328329601756925
0,322264090303908
0,322411161250216
0,319321098148803
0,329437011122268
0,320658135594437
0,325799686832249
0,31996390683834
0,328852432894792
0,323712916426671
0,334357628830983
0,330920922846459
0,333079989884824
0,323716546617501
0,34059801390298
0,339997060792972
0,339362901827721
0,331282216675474
0,348568793629249
0,337140261234353
0,345540539746783
0,346310792856364
0,347223008167928
0,338251549912138
0,344304991413968
0,345573337892239
0,354113087453396
0,346803930085642
0,356252248194643
0,357751441649898
0,365900015098789
0,356103179992686
0,364357941232567
0,366706202681169
0,368349089242946
0,352870765698599
0,365696217987518
0,364888522377934
0,372340109272134
0,369119476071969
0,373995788783411
0,376385938849847
0,385156536858027
0,372798547970262
0,381231862513354
0,382699504423402
0,390174430885458
0,380560781179907
0,392353084688639
0,387384736237074
0,400317862077771
0,392627546288696
0,404280033054976
0,394497717101111
0,411106465616635
0,409354404237759
0,412087789600395
0,403663706088475
0,421609450684145
0,410521836640009
0,416254163899933
0,41874356594647
0,429537017219417
0,415369486764852
0,419901152131781
0,425359083286265
0,429416010636204
0,419685032619518
0,433603401084694
0,423182323301011
0,427252725182817
0,432028809154581
0,432389750676963
0,418062269311737
0,432573024299145
0,419318925237963
0,425809112241806
0,422259669390763
0,428230923144087
0,412668829200672
0,418839057627185
0,40580485262891
0,418282984610709
0,4146816597035
0,420880503851945
0,414055018335327
0,417816643017864
0,412596627874676
0,414394273778177
0,408797131306464
0,418211282764358
0,417569326352425
0,421210259574658
0,413088005547867
0,417058514748543
0,410466383789188
0,418093215375162
0,409916082040263
0,416785634538487
0,404539192094172
0,419552645206125
0,415959296403658
0,418717378301239
0,407988895341618
0,413742863511535
0,414089732791232
0,417989332075204
0,413100552915015
0,422978057458728
0,40779882982113
0,408677369547914
0,405479198838021
0,418860558413609
0,411157216901002
0,411461436601619
0,413379788739476
0,414885333755617
0,406550800419703
0,408676825191759
0,404958887266326
0,413968869313528
0,413423116923396
0,417532865875022
0,402304022072458
0,403183525138262
0,397029443902483
0,399741406905813
0,393855966055242
0,39753553985815
0,391873677433468
0,395465744346062
0,386216514838434
0,390994584998095
0,377509628948713
0,385009575187937
0,3842718705179
0,385336997863186
0,38332613296773
0,38063931459362
0,373099888542123
0,38356262180788
0,368037586488894
0,371533773389643
0,363543550357779
0,368100859665885
0,363540190398287
0,361768349264728
0,359225429071011
0,357052780218827
0,348472525273553
0,355501569437842
0,350824351818712
0,344620243697608
0,337589158836
0,34986459758724
0,339005296109341
0,338161415282478
0,334978253044765
0,329414269357688
0,325952495699726
0,332561313379529
0,32482808755581
0,333358073646859
0,326501285597011
0,324200438169433
0,324902365646243
0,322901967749955
0,316821339146423
0,319146445345132
0,3148339400793
0,318493104042908
0,304873720016267
0,307136290055317
0,304586812936123
0,30973216695018
0,306214578595291
0,305364287282198
0,305826472435765
0,306594721810995
0,294986402902997
0,300486572950805
0,292304283396481
0,300102689304493
0,300688323723258
0,296823559297864
0,294945438642571
0,300334781749967
0,288101717904885
0,292483142943493
0,291365292156431
0,291425918113436
0,285832121083951
0,288733326662417
0,280899189440149
0,286079650662089
0,286330299533034
0,281639980355603
0,281141531885716
0,290710956135799
0,278580102035014
0,284175933207497
0,283106633253499
0,28234337304183
0,274606187469705
0,276510039033991
0,274465330343921
0,278876905440951
0,273125336847357
0,269821258160326
0,276899718039739
0,278935922130396
0,270493547706558
0,272232911777002
0,270490287657192
0,273949746044975
0,271116297947675
0,275342675908225
0,265706009636762
0,266967204337184
0,267787163811995
0,266316450826827
0,26246261773456
0,269064482687023
0,258916245779078
0,266443436681234
0,264494717568922
0,26597276424158
0,263892785111243
0,266807465033812
0,260673467251629
0,258568242022802
0,258145199002954
0,25999414383777
0,261394275093393
0,261166289151496
0,259811625036745
0,264676943671988
0,258198719562327
0,258347161413442
0,256538237995172
0,259491837880737
0,253301672465504
0,257479504522735
0,250711656793613
0,253781971724746
0,255264663866544
0,255186097368197
0,254509348969344
0,252500307892952
0,251090510873059
0,254893133487617
0,250603443439986
0,253010484685701
0,249360846574794
0,249542229912973
0,249182493622648
0,252811975198714
0,247665471545319
0,249844287884674
0,247599876544763
0,251318589923551
0,247965352030609
0,246538197128704
0,243102220738992
0,245462259094558
0,24501956931874
0,255559239655539
0,244889134313117
0,245328414498946
0,241004876691874
0,243804052642915
0,247560537473002
0,246888896882144
0,244227719398534
0,248335453546596
0,245449635846461
0,239703914077848
0,240178074609328
0,246339010940371
0,243436984466602
0,244683906606269
0,243265615329361
0,244885745747943
0,240795993807538
0,243607457298566
0,240332757450496
0,240774155116296
0,238452341252471
0,242834890318346
0,240319296898961
0,240929059755293
0,238974002195206
0,239749016830721
0,23628455946364
0,239775515270132
0,235921395612545
0,237209889435838
0,231949407010062
0,233874465543285
0,233334820567668
0,236239006655901
0,234956754187853
0,234120578345888
0,233920502136255
0,235759598311392
0,23463110351415
0,231888298690279
0,228115163315107
0,232977528329988
0,230532633742705
0,232183641650203
0,231988556232443
0,229727511418205
0,231820936382607
0,235590045712061
0,231654617040501
0,232454797417473
0,228358320094697
0,227054429464229
0,228825331540735
0,224578458733022
0,223879318953217
0,227240024503926
0,226267696803669
0,224927948841795
0,223954734943875
0,223093886012142
0,225577011957999
0,227725952213654
0,221484458930292
0,223942654897839
0,222692436219275
0,221375854550768
0,220573677230319
0,223562140101813
0,219881249515376
0,217402688166815
0,220378966720471
0,218900243916816
0,218115686975043
0,218937697369899
0,216444282781164
0,219817607984301
0,2147848480773
0,210300073612878
0,216267718336634
0,218011344304138
0,209980846295075
0,213575477688946
0,212811680994838
0,208684300525988
0,210031598839887
0,211312232025291
0,206965715646337
0,210257494378527
0,207515184335305
0,209055630278187
0,20752168243375
0,20761926396486
0,201778709435554
0,202561867008501
0,202498321054605
0,204106110310503
0,202093033721755
0,203008406283316
0,201043833996096
0,202962168062829
0,19857546337108
0,196620972811298
0,200880768519639
0,201465028392618
0,197980240683242
0,197959790383861
0,196089066778463
0,198931047103993
0,19753322987641
0,198962949350494
0,199015019606146
0,199311169745032
0,192557028844528
0,18986088657057
0,193383263786586
0,190754837139756
0,189395532450103
0,191736940385921
0,190405672740658
0,187478265877575
0,191230074675787
0,191816843685503
0,191246108332428
0,187989069969427
0,184213245335884
0,190310327133701
0,184017497591517
0,189970172246348
0,187212027980485
0,182702595504055
0,184766850610758
0,185221858862689
0,183401171474764
0,186278904068081
0,185456473023352
0,182186884320472
0,179010894104027
0,178341098756972
0,183695620821364
0,181237781277025
0,182373582697466
0,183834919349103
0,178197659523892
0,178660288233516
0,175422551576648
0,177176464215708
0,17851772164795
0,177846612448068
0,173068244295758
0,174645993936455
0,177618412332253
0,176285778142081
0,176605431429097
0,174229059100824
0,173402221179151
0,171501400991472
0,171671336211369
0,171807178382973
0,169341339504109
0,170369626771946
0,170729407598176
0,173338677032009
0,16671643987268
0,166963232343802
0,168992846858032
0,167565624111887
0,1674493033965
0,167014025105536
0,167493866397373
0,167589372220458
0,166357952475054
0,168487776135412
0,170845353933573
0,167184562213894
0,164641703092879
0,164252927845122
0,164997033607823
0,163637115977563
0,164316610933531
0,165470381073976
0,163363516118842
0,163760638844919
0,165293257095224
0,16353831849888
0,161039946106002
0,163571198634419
0,160947608253774
0,158809683168137
0,159555064977385
0,163595087965344
0,158761330389961
0,160859807154977
0,15975396849507
0,162265027036413
0,163488987944993
0,161903602164614
0,16081317510666
0,160496063509392
0,162815101570392
0,157914541246671
0,158009888816028
0,156533502980615
0,153186671019899
0,157699426957202
0,159103358571722
0,159218749385483
0,156705334953931
0,154018727447417
0,157149229622374
0,156740837223215
0,15553027749827
0,155999005691032
0,154097693098403
0,154515088410526
0,152475438461019
0,153666482398708
0,15407162166852
0,149068121985777
0,148388494455184
0,147735176367669
0,151569655179105
0,152317163509897
0,149090072303882
0,150679770023277
0,152130431924636
0,152175983384097
0,145665387927281
0,148594450121754
0,148945268551732
0,14837473084751
0,145725939909715
0,146368232036551
0,144970180168934
0,146645440865538
0,147683578063437
0,148120468300291
0,148478860737229
0,14526197466256
0,146144206981039
0,146016935062831
0,145127907367376
0,144426937128361
0,143390818698682
0,140815688245803
0,144412399941129
0,147727697768
0,145858784754004
0,144819616008104
0,145713300824797
0,14529472957024
0,144501297001761
0,140014804946261
0,141642184826141
0,145481221487528
0,140262681183107
0,137073802890825
0,142156068755111
0,137407898395394
0,140126041306221
0,14267574916543
0,139816034689929
0,138013083871186
0,138092010695355
0,140092409724888
0,139820652432375
0,137740043188554
0,136743192079029
0,136404429446492
0,134979521881265
0,137634548589436
0,134150330725734
0,136997677906244
0,138469176740107
0,133173910668517
0,133453642048373
0,132341531019302
0,132826243353952
0,134668208770949
0,134336145305689
0,129673786394433
0,134242571258706
0,128903468911824
0,128290785689274
0,130137865217976
0,130690604673784
0,129447894960882
0,13148367038727
0,12739866756848
0,126898226294471
0,123010264706655
0,12799462941643
0,127075201585977
0,127406994277523
0,124522554931404
0,125158563206515
0,125260729898797
0,123924128737561
0,123920399982133
0,122290076277122
0,124302391951162
0,124439701955717
0,122431702422163
0,124131959401088
0,118170517612081
0,119731527565896
0,12073681968183
0,11983595396215
0,120846547645359
0,118678455432744
0,120035444938878
0,120507175728697
0,117970682048913
0,118987921064521
0,117931157004531
0,117800711893122
0,114251610168487
0,117545404384237
0,115142228814463
0,113268651664653
0,112639498397554
0,115005596855893
0,111744071901743
0,113289693995516
0,114560362377928
0,112281773428491
0,111251115593553
0,113284623042068
0,112609260829531
0,112869084598891
0,107837329623544
0,108210702022074
0,109617638010843
0,110895092584955
0,109161923014361
0,108598312552653
0,108931205300713
0,109929526389371
0,105071300967324
0,10774140547768
0,10602756008466
0,108563649026944
0,102923966166998
0,102479221605976
0,102855500772773
0,103611178323014
0,102659920742066
0,103172359144828
0,0998138978709915
0,103454158532304
0,100104560775343
0,103166082928783
0,100079696331678
0,106820761266976
0,101180931862467
0,101481158916739
0,099817233458512
0,100820593960015
0,0959891725767567
0,0990976796340526
0,0973134636265361
0,0985939878617017
0,0931604345195155
0,0993790137567364
0,0960901716279144
0,0952713661449664
0,0965877963214767
0,0990994604071029
0,0955778555286651
0,0971084751529057
0,0927302333343735
0,0970095478829743
0,0914251191008434
0,0933437537058345
0,0907168712385271
0,0960623110378169
0,0920287322673566
0,0936862553399542
0,0929384509770634
0,0988337532779753
0,0913543500321255
0,0934845951618801
0,0907326400985534
0,0922467402747765
0,0899604347815643
0,0943751927913926
0,0927236160809801
0,0931208335197566
0,0896643273991949
0,0945573253427812
0,0878454056406899
0,090697524095349
0,0859253424338186
0,0928467677982195
0,0889732841067559
0,0895637432571341
0,0875988582205787
0,0939399828163119
0,0856160386768747
0,0966914742741402
0,0854330839462535
0,0857201872845586
0,0814714117338147
0,0881889436150744
0,083154863798934
0,092237090117994
0,0775186093134967
0,0822869014499692
0,0751595857617807
0,0887923387351413
0,0785392397079163
0,0880295955336378
0,0827397689267873
0,0904230710392169
0,082647351364081
0,0817259121920764
0,0775354854652412
0,0896886222620225
0,0722647224796297
0,0903340872765499
0,0788068168212065
0,0876608878856517
0,0729475284363204
0,089220533778702
0,0670205738462859
0,0863597580729129
0,0713497290128406
0,0913774762105432
0,0732774671218257
0,0910858062633186
0,0644485658278702
0,0918252413702868
0,0704152511426746
0,0902051951919464
0,0723973286125494
0,0927041254893846
0,0723549888598185
0,0883384114888562
0,0689076539760064
0,0852708649222463
0,06783174176045
0,0902910231301293
0,0741031429645856
0,0863214226252253
0,0683867380633192
0,0800861198131166
0,0738000060145043
0,0789594060184641
0,07912380373012
0,0671534038468953
0,0854907713561739
0,0692541413097672
0,0958098788068381
0,0571317188767628
0,0973571666696076
0,0610419182904329
0,0961326732741661
0,0563383285087439
0,0953817766561576
0,0571475744317505
0,0894223518893406
0,0650149952971954
0,0847372631769931
0,071473501244141
0,0777445672225192
0,0761853054396418
0,0760792116763624
0,0776997643186202
0,0747510317474597
0,0773654295796752
0,0786788613697047
0,0730785440890713
0,0816401803878977
0,0700885775156223
0,0797170240233317
0,0720183028059697
0,0768524174775386
0,0702364633950114
0,0756229316818247
0,0717794400397826
0,0759192618162454
0,0720558816804616
0,0757917662503719
0,0713741330276078
0,0747667941196359
0,0714167488555465
0,0766008789850317
0,0717565755016978
0,0788954444900336
0,0723051508866791
0,0714241599948183
0,0724375846301459
0,0756094734108776
0,0723092779109639
0,0741079302722092
0,0733473734771255
0,0744697871178332
0,071211449543838
0,0766067157096626
0,0722045509691263
0,0736104215625257
0,0736261118733202
0,0719429870163049
0,0722192085222402
0,0733403997163603
0,0738596312370791
0,0791518311818702
0,0754019567503223
0,0732009888706672
0,0713489691527691
0,0749193614007195
0,0711405099225664
0,0754754838999047
0,0701062571739043
0,0738067762560995
0,0717213350058707
0,0732712315666035
0,0729267732440653
0,0762258259445744
0,0716529915237717
0,0739855427323752
0,0722598734379999
0,0721839458315844
0,0692220977698691
0,0728504045849191
0,0680928749344397
0,0705141140999026
0,0713166013482016
0,0712163189157552
0,0724616743484612
0,0743511426900263
0,0717613847894423
0,0739139996570875
0,0725225923370111
0,0735691800541308
0,0691034965054548
0,0711994259738811
0,0732321224841879
0,0737571333402742
0,0724314308737371
0,070467106912583
0,0719333946756696
0,0734148496840242
0,0701744336291725
0,0711014333292819
0,0727597846584217
0,0723047909588797
0,0724408456259681
0,0733464605003638
0,072408588614988
0,0731557297990338
0,0720148919029046
0,071575109320729
0,0724934841167414
0,0722223341716272
0,0739952824996271
0,0728504560084973
0,0717443947672765
0,0752813511313574
0,0712619779784815
0,0737160187287454
0,0724239475387973
0,0715687824228084
0,0734691109522362
0,0754548805661329
0,0730756453274624
0,0730471696762277
0,0720610285345119
0,0705912050221718
0,0728297109018928
0,0728265266260392
0,0717012388450866
0,0752970466614015
0,0749321422359521
0,0720850487189323
0,074411987368194
0,0749833315006241
0,0724880733199637
0,072903227294625
0,0732421689737077
0,0738036020171828
0,0760343909027619
0,0742180186909889
0,0736112701628838
0,0743542411010484
0,0758004272566979
0,0744000511903139
0,0736091702531805
0,0741851768673349
0,075390278420579
0,0769629734309042
0,0762354823711944
0,0722030081400711
0,0754820756367934
0,0746448630602524
0,0754494977440849
0,074382501724542
0,0700173994880443
0,0743630690051336
0,0730154334981116
0,0742221835948059
0,0734354188281162
0,0769192163799239
0,0758668426692139
0,0757485911624161
0,0767881698343082
0,0757011163510524
0,0759028533241637
0,0767655743900408
0,0767295917013392
0,0757597598434787
0,076379419121201
0,0777339454717955
0,0773099255779907
0,0760912908973256
0,0752618427422203
0,0762168691934216
0,0772839142132629
0,0800617842693783
0,075669663405321
0,0769008593729479
0,0770105659250845
0,0783970821896921
0,0775828509581637
0,0751142597963762
0,0772807893265988
0,0798136169664379
0,0773730124438974
0,0802565550179685
0,0773617420227487
0,0760128292502009
0,0760849593015747
0,0775347632810673
0,0766470452920877
0,0786315043324356
0,077576683243897
0,0784331887021921
0,0764111457181953
0,0770967087857451
0,0755982332254455
0,076698095310683
0,0752474915069486
0,0745677797072264
0,0775074204686729
0,0773973878054877
0,0777791570721318
0,0752279820435984
0,0772980634253902
0,0767706456705403
0,0765327984085863
0,0763558942258507
0,0751955310189446
0,0742639438269053
0,0754027196633857
0,0756866606751601
0,0739759089461341
0,0738747173925952
0,0744073522590201
0,0750730909601682
0,0747572756029661
0,0743442057599359
0,0760865901820365
0,0754377036404196
0,071954946978804
0,0748909280788581
0,0756534161496535
0,0721614080171389
0,0731157934081707
0,0728245814257829
0,0740965462392603
0,0735341446636293
0,0745429669345477
0,0715706221172027
0,0708756697091602
0,0715211311518305
0,0742958165754057
0,0746855613498085
0,0735337789625
0,0730985109454792
0,0747138844709896
0,0723407618504167
0,0719632612246634
0,0704646094207113
0,0731382745642417
0,0717327525084727
0,0729985645637496
0,0709639119929782
0,0718431632424636
0,070842766875281
0,0710722187148776
0,0719574602429083
0,0713841715226845
0,0709431407533447
0,0722738858329586
0,0692181311203197
0,0708720502762901
0,072236843296454
0,0701442447274384
0,0718046248060268
0,0721097238643203
0,0701961930580563
0,0706821328335953
0,0697822093437338
0,0706719844697259
0,0687744823333388
0,0682308227556688
0,0694037737222334
0,0697611467572849
0,0707128275501258
0,0700113989855913
0,0698347998154951
0,0686016630178426
0,0707611386037045
0,0711577762723214
0,0696510313353149
0,0694837600677253
0,0685014726232689
0,0715000199946567
0,0682153125599761
0,0698660518144813
0,0700849011328286
0,0694743190635155
0,0686034350521179
0,0713000189108643
0,070130108312616
0,0732530815274583
0,0697989450114657
0,0714430933244311
0,0701601180791401
0,0711006952291157
0,069394280392234
0,0680205499074503
0,0695415362148801
0,0702188193021551
0,0709730027590822
0,0675704082602969
0,0695780730059565
0,0673797792808111
0,0673886659070646
0,0676148282324257
0,0660224008327647
0,0677329887049389
0,0692542224430596
0,0669481615413521
0,0677799250250584
0,0691166563293137
0,0688476329718089
0,0673767331635006
0,0690038125233792
0,065614014813288
0,0698617255976305
0,0648082820071991
0,0646294743034552
0,0677916730266355
0,0651594317856913
0,0656630142242903
0,0636461724461089
0,065682869289233
0,0663629117360505
0,0680643560275795
0,0660156718788735
0,0678245251003571
0,0653372772875554
0,0636822505740244
0,0643492233241872
0,0635880411182827
0,0651117991016578
0,0645464856934812
0,0639977747219769
0,0624418510149685
0,0617281953460642
0,0640655958247101
0,0631715085356012
0,0622297347795553
0,0617110628300009
0,0633123204524717
0,0623560622395175
0,0688019671255948
0,0616379969025223
0,0656111443822288
0,0592147252612978
0,0613416802146679
0,0589683570987949
0,062667926393863
0,0605853869870359
0,060863428516041
0,0578581039541061
0,0624003507050353
0,0598948487475076
0,0616325386730119
0,0591203059170218
0,0604819674348195
0,0584396617704614
0,0606052376037532
0,0576331978028607
0,0579187031005719
0,0552818806011808
0,0586353697962838
0,0568857898705768
0,0600002518756068
0,0542025483425092
0,059129698959911
0,0581418457701908
0,0574268510377136
0,0563937860584295
0,0534645649247002
0,0550459374948036
0,0565488382133296
0,05659753763105
0,0528175508756045
0,0577061317027281
0,0558622613384334
0,0549570531865266
0,0540847511628998
0,0558706868833509
0,0536278323510468
0,0548726191652433
0,0560293849714932
0,0563763962075109
0,0521185994556908
0,0553659851054805
0,0557510161244367
0,0543521200895082
0,0559470718955398
0,0552955525232728
0,0533535310682126
0,0519682086368569
0,0524251796245212
0,0557950199240448
0,0540635635471946
0,0588409063002104
0,0508919349965061
0,0522282681588157
0,0506486261408481
0,054656284512708
0,0531828817438876
0,0553822753751327
0,0541029131358684
0,0537930725497217
0,0525247581679693
0,0548808707058806
0,0538198866008585
0,0522538587022751
0,0515416001431697
0,0532797500998419
0,049430732619726
0,0500892299839118
0,0509405387336245
0,0525090065821546
0,0486928239983864
0,0516920207699452
0,0505050612810485
0,0539804661922492
0,0498428739025399
0,0527829100948725
0,0484726889828774
0,0529443584338552
0,0571029175466389
0,0457745549328985
0,0565491634457027
0,0498915985975393
0,0506727373576072
0,0488970519458786
0,0525486928059785
0,0465253823048372
0,050022544223553
0,0504041588342984
0,0527021213107362
0,0468917750244871
0,0542400298784657
0,0484824872291664
0,0485694017915427
0,0478686854225473
0,0505797581884866
0,0452068504215416
0,0522502036396239
0,0476018447737496
0,0517740267026729
0,0505903261054236
0,0512345606860301
0,0489343519829664
0,0539243082872518
0,0432573627693824
0,0624382001875978
0,0452168880301639
0,0514997128092106
0,0474986479662041
0,0494630364323142
0,0471223979043557
0,0493146869931426
0,0482308969520497
0,0520778272629116
0,0539577757088446
0,0452245132253672
0,052115177821372
0,0473519777248282
0,04912959654225
0,0485536863334826
0,0490153642270841
0,0484779120023132
0,0481195926221799
0,0501453984274242
0,0483794265138646
0,0484787468720843
0,0445716690001879
0,0482525617074393
0,0475947175051633
0,0522285708693494
0,0498814248585112
0,0481465443979669
0,0467878970441194
0,0478100688758722
0,0509141199071338
0,0530598126020604
0,0571193396543427
0,0424660532731985
0,0534391447726658
0,0449013005378659
0,0494918217955089
0,046722900745678
0,050475373549998
0,0473642494841538
0,0513415216455333
0,0468217497267028
0,0511048822191673
0,0487696764486328
0,0470339305358964
0,0480850511046255
0,0462720119466997
0,0474925723025302
0,047540759898008
0,0496921810215757
0,047895046088631
0,0523222547042221
0,0467230746656998
0,0587681815312584
0,0547151378573594
0,0468416428578737
0,0511222011989174
0,0481792676503922
0,0506010045985992
0,0478364618932848
0,0482204244893451
0,0437178892984472
0,0509630077083033
0,0442493934231104
0,0502029615119859
0,0462120191021372
0,0504927851748452
0,0465626702269676
0,0501383941348125
0,0467730075041474
0,0524523028513094
0,0447883896342219
0,0533725675230605
0,045187061898331
0,054434831996483
0,0446480954153676
0,0537567333164892
0,0449977639796984
0,0540179593517899
0,0477216131210109
0,0597660390023403
0,0524065312412349
0,0441733957572296
0,0534524404876894
0,0452310340192467
0,0518454411608466
0,0454846341624996
0,0515595933787003
0,0514814764936066
0,049344002642411
0,047134422281123
0,0497945438519777
0,0500288896521345
0,048768749685451
0,0487162976656702
0,050801402886031
0,0570410320645877
0,0457930212790899
0,0516223086429569
0,0531545524607908
0,0463115121761729
0,0622838298787645
0,0450352760817751
0,0553949059766921
0,0481274034216805
0,0513300659588649
0,0504404276924533
0,0500043413695738
0,0510287851948795
0,0512631908642445
0,0498323447924758
0,047182853880627
0,0499328554734177
0,0478218015689471
0,0551608957859373
0,0513274371764024
0,0536624159000303
0,0538398261676471
0,0485918597780958
0,0536062590799071
0,0520740880319452
0,0541751556808326
0,0538133469131592
0,0508337937499642
0,0552805659912007
0,0562632797443439
0,0588337718455282
0,0511257530127395
0,0586309858544606
0,05307554396653
0,0542596110134647
0,0590958808150153
0,0540753088599389
0,0543974611285847
0,0563242775737723
0,0527372185459193
0,0698379639795549
0,043790938538512
0,0711759295574902
0,046496801676138
0,0599023859684773
0,0493493936708581
0,0632867054108345
0,0488059015095628
0,0655579984607
0,0495334498335287
0,0616668263898043
0,0575896773275679
0,0570304933008734
0,0616753961964837
0,0585365270899258
0,0567467980797168
0,0571033897746678
0,0590413206635294
0,0565309347734747
0,0615840293113646
0,0580512130649782
0,0784548609203049
0,0544758190125274
0,0592842911574101
0,063069287723371
0,0569027800369452
0,0745260733671269
0,053802913599759
0,0607797126631454
0,0592895318718616
0,0621326765652155
0,065276638365163
0,0580752420246715
0,0755829143946008
0,0640664790102144
0,0611296929899741
0,0698183019029457
0,0636875396426974
0,0806474250839281
0,069529568674524
0,0712280251150792
0,0721084221571313
0,0782747623090859
0,0744615245232382
0,0798914250029034
0,0873173189103286
0,0727664226804421
0,100260576499732
0,0711901203305083
0,0928525920189192
0,080941739203691
0,0915184000048219
0,0772847673326665
0,0934343854928817
0,0765203219401752
0,0917616765636406
0,0741570233709474
0,10014158545502
0,0753945433976489
0,0896564883762453
0,0777053214512063
0,0936464370772594
0,0869971480200605
0,113072756437807
0,0815844157210293
0,0915560184133652
0,0845933705888009
0,10220445847128
0,0849541581259
0,0857299542671346
0,0900203019151537
0,0890387430185082
0,0920502730110299
0,0939787827860707
0,095241105452776
0,0947757295872958
0,0947574232680274
0,103314428089475
0,0964876658304576
0,118988637600678
0,0900550742809349
0,116951189227975
0,104423139828266
0,118186277984949
0,102991216845175
0,104829766135705
0,10684826845932
0,104287128450379
0,111133197883821
0,106115928882437
0,108694758821399
0,113515830781409
0,115902079232589
0,126805998680096
0,111871999115273
0,136692198288831
0,114094540690671
0,142965745806361
0,121463831501151
0,18394422077167
0,129749731878188
0,140487093786561
0,15702371916631
0,134126740948834
0,17146910071558
0,159777459197686
0,165694249436091
0,170209163158395
0,174684324437777
0,179159631749515
0,192187250312048
0,189835614001122
0,200105949855942
0,203280370640876
0,211643536675256
0,226302071642014
0,223759015308663
0,220376019678073
0,235761011830581
0,239050536254183
0,248408884655513
0,252767273610887
0,249190959107509
0,257890850563816
0,275990056623288
0,261885379097087
0,304269569695519
0,274624500530539
0,303317826965207
0,293564659045999
0,309202157498312
0,314082889908141
0,3176862920031
0,336040804566841
0,323394334670484
0,346223371945801
0,331601273285289
0,359406156167389
0,352566942194856
0,373818630472059
0,374347868499255
0,376012015863398
0,379072595642232
0,385364818710145
0,394748610626489
0,392194460739667
0,403444540826658
0,406368832778073
0,426275335417903
0,470904799230929
0,377991867060468
0,432787252168629
0,406751909596163
0,4257139774406
0,409565254829209
0,438625132283033
0,425050625143506
0,412453962888372
0,427240501627572
0,413818494798928
0,421202534612659
0,423596847212212
0,428161177287523
0,423079379134147
0,426941219085968
0,423955405681735
0,422909442218255
0,439480426011766
0,385265010368459
0,472688056465052
0,420097418706951
0,430035829641265
0,413481509113447
0,425951457729592
0,414976105383281
0,424629309264878
0,404083812036152
0,427796908600617
0,413930383289848
0,415650840489128
0,406566860561352
0,396452953973403
0,404160482891653
0,381898823164942
0,38429550390166
0,380001775217999
0,369033912348653
0,385933062900992
0,368439917602467
0,389284407034754
0,3599745759
0,361353392905399
0,357387705126261
0,356471819534273
0,354189654349358
0,353850323899884
0,348029431492181
0,356706126313848
0,342372511312046
0,353398115437113
0,33668416402971
0,337925683288972
0,341956288836579
0,336529162563449
0,337464060841736
0,341178555543466
0,344711311560364
0,33794124607534
0,346772129601733
0,343048976261024
0,340099857273441
0,344475035979509
0,344006436614425
0,344764131990095
0,342883923471966
0,336625409078972
0,338847646932966
0,339409791525241
0,343473043320179
0,340602427107729
0,34032409896069
0,340868451355574
0,34446643003595
0,339098551561084
0,347012932402433
0,341448659492981
0,335999616886379
0,341140941299872
0,343092230599702
0,339559870626472
0,343721265247
0,344505260366398
0,342898862502834
0,351238288090066
0,326186293303822
0,340485010147809
0,331823761259991
0,332892912234219
0,329349590806775
0,339312635288126
0,341480036070604
0,326725914820475
0,334105243055671
0,331139791115319
0,32365707427901
0,338438884424798
0,324684326120941
0,3280152518265
0,334656386562145
0,324171625195177
0,354981315364996
0,29329123311087
0,358397038302534
0,314846048724369
0,329653091725363
0,305384586385375
0,327054659404368
0,319099112462016
0,32007377433007
0,331955862606614
0,314102044477553
0,330124398345557
0,315031672372792
0,32476405015955
0,319889144461748
0,322854532184515
0,336792291617963
0,332582600647934
0,321402617339268
0,328884679426173
0,323702621450955
0,348144931804829
0,321261149787166
0,304448741822179
0,307235764321755
0,297797254205927
0,309230182407199
0,298648884821021
0,303205996356971
0,304077624445858
0,294361958639438
0,300962652889756
0,281468415826809
0,29648158455668
0,282236603714808
0,298064079440926
0,282931985104683
0,278095069964098
0,2820188284007
0,272272388999049
0,306389847427208
0,280455734037861
0,295291243067205
0,268526029676766
0,276165626615751
0,266593469311913
0,271778341622515
0,265550351589992
0,260944210262997
0,261234753918262
0,258357699426939
0,255048014289229
0,255076580728045
0,237312208224942
0,260553493414282
0,251370466842333
0,271363369157837
0,223205418563126
0,235860132252125
0,229442567568165
0,229825679138716
0,224397295983394
0,225169971760285
0,217435289517214
0,233323329619399
0,20581360624431
0,237563032655073
0,218655997357556
0,228538247101594
0,218951720092268
0,220666016556011
0,218301996217704
0,223928468506633
0,221088469656893
0,252843796848168
0,222888257965277
0,238453004432157
0,217120816952236
0,235566399465338
0,226348960272015
0,232537523487099
0,234633751913232
0,234758515450944
0,2392115811461
0,24550747084405
0,244279027512144
0,248415365516168
0,249343891858701
0,269401867519509
0,254721681806791
0,277122386134629
0,276641066444686
0,27082457726121
0,310715164305121
0,270558854015403
0,300513355955613
0,295483075305614
0,302129735177167
0,307985539833804
0,307692317223273
0,321845518339691
0,31753949960199
0,323493144336784
0,326866988155141
0,3267985244106
0,337812460340805
0,335490726172076
0,343016627780789
0,337138319783911
0,374490875356809
0,32407902029817
0,368220203840581
0,347654150187907
0,356278227979653
0,360783200153508
0,357901425781825
0,364361717219849
0,359228119180992
0,367723658072015
0,361349302059716
0,371629384414372
0,375155354170053
0,366423829561427
0,367413695716751
0,368065179482283
0,374115185024739
0,373702525911551
0,379890817543921
0,382920971550884
0,379738656016175
0,389227474089942
0,391462863206209
0,385603373944138
0,39741087045802
0,386677247217671
0,403535760372352
0,399153958567602
0,404918851163195
0,403799460403976
0,404994985881658
0,411846952093765
0,407425261140712
0,416569203764156
0,415282979893486
0,420157459422071
0,424276071622573
0,419901508115718
0,433603241630668
0,416969069679758
0,444644533988733
0,408697049940864
0,451413952139974
0,437194573479876
0,44216243602037
0,442783709654371
0,443274046922774
0,44965650442375
0,444099717484837
0,450893036217981
0,450346449494304
0,451079119233956
0,448745513674595
0,456660302158424
0,452645127984413
0,453850607085636
0,453245400691317
0,459811548837817
0,460468932052513
0,449283225496432
0,458225351670591
0,453097640646315
0,459203815910407
0,453487413995709
0,467518697025107
0,460346281051759
0,452599776516862
0,452856135598318
0,452583906019467
0,457984282697458
0,459082362860151
0,44983121113953
0,453400859414869
0,449053965161821
0,458781553481102
0,452259881889295
0,458223338104245
0,454106267322501
0,455239339786347
0,456003697196271
0,454855942034494
0,460162894838961
0,459401339907875
0,467906104883342
0,460458582618231
0,473083103650534
0,463870814268513
0,467286213993276
0,46344433273285
0,470169422419556
0,47312469045684
0,475124920697867
0,464413025704546
0,467239033399265
0,464745276092831
0,462913465295301
0,460306519469545
0,460687819311376
0,451892550172908
0,453261018480461
0,445280609757524
0,442493369917075
0,438001421240182
0,45534475662295
0,431103223565249
0,437310028593745
0,431118088883184
0,435048617569455
0,428104753047489
0,427641183019056
0,421139436350627
0,422173016939382
0,415194572018471
0,412450133792394
0,410499442035114
0,415387074526785
0,414006369639605
0,414370189339495
0,407578285654854
0,407457222477189
0,407106411992728
0,408983509222348
0,400524883045684
0,40121430109291
0,400009666898489
0,412113467672251
0,404869014549115
0,413851783149987
0,405151306129654
0,411601556080608
0,409005109046484
0,40360596509794
0,402879419996701
0,401846115914513
0,402949249365959
0,396915381786356
0,397480225975621
0,401642402140479
0,402345620049096
0,398545150943045
0,399720102012035
0,396635148956995
0,398447637472318
0,401178337540825
0,403980954149996
0,400857462300724
0,403206960860241
0,39784115836024
0,400340892907443
0,403782526085053
0,402973875795971
0,402229918081195
0,402513338257597
0,402192177737518
0,39756252914496
0,407318328329095
0,401070987088068
0,40120544521456
0,401670333286809
0,397202852020658
0,399701441824078
0,401063875435005
0,400982445375675
0,399435101353969
0,396765537696498
0,397804252310487
0,392394365622229
0,39189001189986
0,3939406850806
0,390218997880622
0,393224945679445
0,380905161829819
0,377684753187023
0,378589700548766
0,378564371436121
0,373127018355648
0,368366124339053
0,367105598207109
0,363967572591175
0,364184389953548
0,36407953239373
0,360775095193439
0,356045347094121
0,360523795894631
0,359449956965007
0,352656072377931
0,350550020942309
0,354981416273731
0,356055194801666
0,352803834242654
0,3493328721607
0,352463909162158
0,352127267975844
0,348414881034476
0,349503965368933
0,349838748057061
0,35130602104306
0,355039130954529
0,352814654893454
0,350525960573078
0,353134814690983
0,361713165544603
0,357582853505522
0,358850071711488
0,357374898537584
0,359555876151783
0,360067355812448
0,36395621307617
0,367669934449004
0,370868754485606
0,366138423600831
0,371110659526792
0,370441781742426
0,369331195910168
0,366220008134441
0,368865537365536
0,368556266855219
0,369048140341995
0,370379375799672
0,367312551978749
0,366239116929458
0,368957712718722
0,368762925941605
0,368140789204145
0,368852970185258
0,364278348835197
0,363056534727456
0,361976434623324
0,363677102537062
0,362355411505872
0,365557595062591
0,361250716219407
0,360451333479265
0,361391171790112
0,35483222718276
0,356471953624738
0,355939074271314
0,354708603554109
0,351887097495332
0,348089828265271
0,350335287820658
0,349826945308091
0,349213352021928
0,348747998011893
0,345754034711787
0,34476074066086
0,343406713349838
0,341589479582392
0,341127831098707
0,340946743915193
0,341114721076033
0,340951965137894
0,337213708186316
0,33722450520577
0,332086968806971
0,3299196634221
0,329539573149118
0,329980573421867
0,327267642585677
0,32757651802493
0,319156279686417
0,324611436148099
0,319070481217653
0,315807095521081
0,31484533114796
0,311094975493924
0,308731451439002
0,305009410737045
0,305073800426571
0,301333031652287
0,299821651936699
0,302501056477404
0,300700133467612
0,296309831113988
0,29720434330656
0,297067722317897
0,295899001262043
0,293282341046081
0,294414835669643
0,291755547581943
0,289739586092933
0,290521871525665
0,286191674934227
0,282343547888321
0,278722218410655
0,276806537746129
0,274502367180029
0,272398921226164
0,268063466663471
0,264828439198175
0,262065641894982
0,262540253369771
0,25904715288985
0,259625972382946
0,262787811939019
0,263320662982163
0,267466411896083
0,272739462344167
0,276921305369224
0,281995825454005
0,290469060367371
0,298174848985773
0,308515021641686
0,318815873463456
0,329261110639434
0,343520945261246
0,350964127191794
0,363042354524641
0,37217894456544
0,388068882048841
0,395809059938923
0,409377027528396
0,422986634429153
0,432914301366131
0,445630800856184
0,45525995814987
0,464348127115845
0,47545547712276
0,483508160152258
0,491183656428914
0,497642480479223
0,50924463310281
0,520490701502573
0,524386570680543
0,53101018664808
0,538224023398432
0,541646392386001
0,544756351983364
0,551694774091723
0,553791641111044
0,558247448169079
0,558485950403767
0,558230905484372
0,558668506383709
0,562833755823107
0,565115386076734
0,563269696664298
0,562192344771464
0,567465188563258
0,566306682066028
0,562008409139803
0,573656314146043
0,570648213350524
0,574188223811843
0,57209755075213
0,575070071271234
0,574724459643284
0,584269017189173
0,586214796992365
0,590120851333724
0,590705203142436
0,605506579881306
0,60106105136315
0,613377730436137
0,616552267478687
0,622109080789971
0,636117229456782
0,637309111461458
0,651265024235824
0,654399217903257
0,662757996719556
0,673416136918027
0,686309886826774
0,686269470542676
0,689444975776998
0,701933991300113
0,70790940138823
0,71015123712913
0,711079329425194
0,717758041501439
0,709171652315935
0,715536039895449
0,710707238649349
0,70943008333926
0,699364068318082
0,701176009148156
0,703553774396181
0,705590134399626
0,701659749770741
0,708063208014202
0,714169075646285
0,722140237059728
0,723201051899501
0,736546016828565
0,746634687848825
0,754478027227131
0,762870533571505
0,775052758577828
0,781268899073379
0,799148522559232
0,801975220532178
0,819572383594127
0,836183681943137
0,835035729768327
0,854775637519669
0,863636707561935
0,873196370254287
0,880522811997816
0,884128151444744
0,918776898711901
0,935289477444699
0,952898681222142
0,962280102213065
0,982272777357404
0,99171808578943
1,01215258614718
1,00608912208104
1,0360540527082
1,05167489455326
1,07791185356376
1,063667130744
1,089233365971
1,10105652865052
1,12544532175978
1,14478481965757
1,13776898489279
1,1422859029566
1,16452754860315
1,18740220074475
1,15607868355357
1,17184774581192
1,16176238283731
1,16115276434544
1,17056802878522
1,1737264307715
1,18233500987312
1,16255341154321
1,15803897020612
1,16195409672172
1,16209465782689
1,14065111991544
1,15567453098881
1,16084672905572
1,17662401373086
1,2089457196695
1,17489692468009
1,1890186684282
1,20145470034422
1,22274669027578
1,22982439006473
1,2429719106271
1,22187694704512
1,25485567815818
1,27224940527112
1,28639920890812
1,29086110063737
1,27622540027704
1,30776914447946
1,32880653716063
1,32570500402965
1,3375459358543
1,37334656374622
1,34634618964171
1,3646419952905
1,36061893079697
1,33766026294629
1,36589005237516
1,36205732092705
1,35885644146697
1,373574352532
1,39011122459595
1,39251770465455
1,3612004996709
1,37879842815143
1,40644395766334
1,40687445615008
1,39692577078239
1,37151982176022
1,43318580954269
1,38545455191717
1,42116158778102
1,4078164490746
1,39301110525116
1,39409281970866
1,39276678475301
1,36951833089097
1,34882546109173
1,32820266814589
1,32426241617798
1,31373287553349
1,31009069589186
1,25130547063388
1,27444078577605
1,25032106737036
1,1931384904259
1,18909412136378
1,16933034211209
1,12317887879988
1,112662841829
1,10750859048735
1,10334960750594
1,06240825382691
1,05814387848312
1,04629992528811
1,03532015413194
1,04440405638119
1,02100627040151
1,02891176389068
1,02001481644624
1,00064967259522
0,99911088037388
0,99586939483017
0,997468786153593
0,969369672591139
0,976969190703494
0,952559991135688
0,963435330247974
0,939029885380289
0,940264157046383
0,911056215924164
0,91114325977492
0,879424643782649
0,867833989718486
0,842262879223412
0,819738265011564
0,794360318202187
0,771911442770602
0,739682624333457
0,714526560708118
0,68894426522784
0,643953134256325
0,63208653496109
0,606838904570392
0,574023162499602
0,555305634278305
0,53420818930901
0,521917102080681
0,500824806794764
0,479103779420531
0,464142349622338
0,446431161493387
0,437164651770516
0,42774150894201
0,418621164031759
0,418626246107325
0,403645553528445
0,398971046278712
0,393189807381746
0,389217238913615
0,390936672565817
0,392460695346198
0,379764000805079
0,385400544800008
0,384165791762456
0,379933404625082
0,384283635022905
0,383363686304998
0,382214099728051
0,386046680087616
0,38245597247286
0,382731683658998
0,382636591630275
0,376243496929334
0,368798104265123
0,371085264477764
0,366722963303172
0,367060197245055
0,366264242055412
0,363301534904021
0,360238216454221
0,351886242571945
0,350638625429907
0,344027081569123
0,339258837558494
0,348980670145635
0,348394957310045
0,34667789747461
0,345663800209069
0,351728433678693
0,348995188352465
0,352578431193556
0,348998978250695
0,354504867901359
0,357506682068764
0,360305494370505
0,355391892101785
0,362319835823475
0,359282837436524
0,367491768469598
0,368498232565366
0,366948064326581
0,370432508803623
0,370146660426302
0,372168729108967
0,370507905019757
0,367766773023872
0,362842476959662
0,361623714598546
0,373666427238334
0,370600293315861
0,370414954790913
0,37359551187743
0,381868843399859
0,386869669927222
0,386064923267477
0,389179211873305
0,392116837676873
0,39042897282684
0,403573728784445
0,410148121805155
0,423182597277708
0,433928179724329
0,445477050481208
0,44860427769093
0,461398282009354
0,464556687905136
0,466300886254648
0,468564245414724
0,47373900846304
0,465918101648258
0,472781903456217
0,462520226622975
0,452170526824287
0,452186277261914
0,447898632121171
0,43587181705357
0,428719832886215
0,434297785895175
0,423412555187643
0,423405448714586
0,423568731474991
0,42497439983069
0,430849924827656
0,430803355833578
0,420181008709044
0,416424131152711
0,419999918147234
0,42559941236211
0,427005017024637
0,410465355745415
0,411187299451034
0,417061252612436
0,410820897326633
0,40198535167224
0,408408142277555
0,387338717594433
0,392442949098215
0,390959718403666
0,386510729267906
0,387333071279561
0,388918520645386
0,374374469745351
0,388511528710783
0,376258054577382
0,383294413884993
0,38528196696399
0,368304100436398
0,368091959828589
0,375202709744495
0,371422498956224
0,361040287541268
0,368388299991354
0,366270486542501
0,357111126860726
0,362474694416621
0,357857969718259
0,367812104861901
0,350592872400174
0,358876549540112
0,352862004183581
0,354344680991682
0,34895662569746
0,348607303952563
0,34777054429165
0,334617617442901
0,333352945984443
0,340595576122461
0,329846701160203
0,336478860754184
0,333770268025598
0,337870126731613
0,328590473471084
0,323184555585771
0,319644253824501
0,338328472840262
0,320432572822509
0,324629971366985
0,323258127077862
0,315555778430013
0,33632582611572
0,34410901836362
0,323954125015717
0,32887016704958
0,324229391373164
0,325945005506952
0,318599794282607
0,330549575297687
0,334065855793566
0,329599650175313
0,331544813382438
0,341910721908895
0,332524786159578
0,341767864591312
0,339956379233018
0,345383132581572
0,354673968157614
0,357307246070144
0,347817955721821
0,342385953645338
0,343355897196172
0,369502387537403
0,350263562571053
0,350884107496996
0,364517440238543
0,38142276622066
0,364341662770195
0,366004188456066
0,380432970217493
0,402470414557112
0,394305823880577
0,415360926196221
0,415845519044061
0,432442054823162
0,416954067412347
0,453092380931769
0,472957081681854
0,48306382721151
0,486374746907742
0,491327121118331
0,504024005609205
0,51616649027551
0,516262818257534
0,549270157164982
0,527490719502267
0,527189240208169
0,543426264046865
0,556038405866767
0,541710568833171
0,550966251430599
0,53197742873397
0,51937671334957
0,519596241393368
0,555530331896821
0,553248428344268
0,559310825942347
0,534314028336202
0,532372894409211
0,520998231539901
0,523247893202275
0,529825699255274
0,531026577899115
0,498737946969156
0,520798162787638
0,530941733791207
0,498973114657017
0,499112691351668
0,496625866931599
0,510393298933615
0,523601438098388
0,481213591292301
0,500646831877351
0,506385594731175
0,485093193905791
0,471888183657287
0,488282070842372
0,481626914550283
0,478444854420553
0,457086998897578
0,475633532719657
0,453935666808161
0,483812582938877
0,489649434124882
0,457674888701758
0,452227357151103
0,520202343207354
0,494122098728762
0,472088842699579
0,478195027960976
0,483648918460976
0,455313639348163
0,525244955768607
0,515748894160247
0,501405622557432
0,494274766602298
0,490163727424052
0,492863014237144
0,502314864496906
0,495994796342309
0,52226213176122
0,484835889418786
0,511700764265556
0,479163597153268
0,531947295005228
0,490526325333059
0,497775334629037
0,489129390643962
0,527294408093526
0,544855965865083
0,508652155569667
0,472322697635611
0,585225671535152
0,524337034648241
0,503469795423499
0,548931764580359
0,551256282098186
0,512815998206795
0,573926963363725
0,582361058611279
0,619211430902129
0,574410428229528
0,557178482151104
0,568110311181311
0,58347376561866
0,611483782778271
0,599363425569443
0,578751010279553
0,670532946605799
0,669570666431749
0,685849902162484
0,631845336775549
0,614705285766381
0,601395172882288
0,678993773522769
0,6497163885373
0,654801850880335
0,54733700300554
0,775690522679869
0,697920741357879
0,602818304625354
0,638793243744841
0,647918933026125
0,579612806496223
0,645217924922209
0,510129646955596
0,556464067060505
0,683583662955398
0,744840151004726
0,630454668919138
0,637929750537409
0,701108637574157
0,660998903728178
0,642944836731141
0,593318973661302
0,579113276451389
0,630820994212302
0,648936438646889
0,584029137975288
0,49923236423628
0,587690568359095
0,633432678611171
0,648196164755079
0,568989598203746
0,629171975494989
0,544481239135076
0,699424527640551
0,670313943563707
0,824099255491905
1,06776936664058
1,03983477046539
0,545384088194875
0,717716295583011
0,722059957962683
0,785198028366672
0,871033896803006
0,61455494054323
0,746026773647149
0,593238061430869
0,900331585134198
0,853417369231783
0,713623697811164
0,762773380968536
0,748976699949815
0,589603222687266
0,568480004803792
0,487400004018207
0,44390457583171
1,07389897980488
0,561257115210386
