3596
4000,36533379555
650,420452594757
1
2
2
0,0198553148677819
0,0252599844287165
0,0231850740272431
0,0211279117045298
0,012118891011185
0,0252422043802355
0,0100107168469895
0,0291362870563309
0,0204235018304071
0,0268193864962745
0,0125551621222558
0,0202767150471168
0,0138273830954802
0,019667461121839
0,00859327845562208
0,022443435280954
0,0130399426155843
0,0273231488136786
0,0181273190992768
0,022436229858783
0,0124307184876393
0,028844742356348
0,0108526724722998
0,0223216940583073
0,00680423691227505
0,0257875592028817
0,0162197593770183
0,0244813445412534
0,00757887578936224
0,0314424233797716
0,0186529443158991
0,0270588524244502
0,00531865769900301
0,0173062334682145
0,0131047450878185
0,0228005055035516
0,0105594228789073
0,0235674126238519
0,0141254468181043
0,0368183156446212
0,0176676099135116
0,0287774896366876
0,0134765983860399
0,0280407561187954
0,0104508301036924
0,0219008030393756
0,015238407010373
0,0228452213626695
0,0104507554707013
0,0292117514948199
0,00965569770800096
0,0272467137158631
0,0196072712034608
0,0229438961888335
0,0206703687430482
0,0403546171618252
0,023089854983062
0,0274552038122296
0,0214908293668802
0,0407244446311872
0,00911453730800501
0,0241897046185325
0,0041502572090073
0,0236877981826261
0,0167577640066287
0,0279377940917683
0,0201945850134855
0,0233540554785904
0,0118422559203578
0,0172980738259718
0,0250099706154408
0,0265283666423834
0,0189847109863895
0,0294857765189166
0,0123600723486269
0,0279522260947992
0,00557474949540811
0,0243800157981545
0,01948312919533
0,0291886656974597
0,0188142816797076
0,0305962902274244
0,0162439559336803
0,0235316188485752
0,00774438964407226
0,0175997248940046
0,0274790332882993
0,0370996044947662
0,0242969196763704
0,0261119714221985
0,0150919191023913
0,0303812067048041
0,0159050087656363
0,0201715595994589
0,0156770338896402
0,0222661509582504
0,0133305143208518
0,0178766735673469
0,0261265574609866
0,0254774879270313
0,023589984870514
0,0406426856344807
0,0134492400573819
0,0531249916005856
0,0112968992323183
0,0316119056165496
0,0166719152299093
0,0304047223241584
0,00956218472772818
0,0200459046791942
0,015174663988366
0,0196603652564736
0,0197371903520874
0,0227752039803113
0,0342093654448209
0,0376041871701921
0,0129852027995852
0,0124913089800488
0,0217846599603196
0,013678690952349
0,0331200286446018
0,0424906297771815
0,0123900151163907
0,0332237116942558
0,0137383124201129
0,0255288263255762
0,0336865517425383
0,0422345161970485
0,0159598192559829
0,0130041237823608
0,00774648701945794
0,0200385209750222
0,0160179419852346
0,0441639504385044
0,0200590823497896
0,0305459553542196
0,0154377229811572
0,0435852718891945
0,0187204525243879
0,0337762175318242
0,0116287963508285
0,0103891722103244
0,0298146435722092
0,035679455299337
0,027506766471333
0,0235427213545611
0,0183339982751141
0,0302859447218932
0,022860423272923
0,0211236528540043
0,0155203204784683
0,0375800129627357
0,0280142217102921
0,0272762696266932
0,0356879305167224
0,0267988348990791
0,0340425551976047
0,0607729444045158
-0,0111685777520532
0,0315607454090629
0,00177358768989009
0,0255863728226249
0,00647146681175716
0,031627566103421
0,0129107981113556
0,0367102393662357
0,0161236781812069
0,0340756568315093
0,0206022475414618
0,0298109216681808
0,0129708767954932
0,0274180761086779
0,0406147633961191
0,00979800240204321
0,0204734265401132
0,0371314078779883
0,0236374005272418
0,0230653941095432
0,0184618492750914
0,0227408259818762
0,00943705295562938
0,0204905158467286
0,010637887214829
0,032576305207098
0,0254346440184383
0,0256417827126836
0,0162514854295163
0,0237274991574693
0,0186590646727444
0,0366419894026591
0,0342376578436634
0,0481658229308805
0,020067833891082
0,0310515249307728
0,00714027514958701
0,0476393734358851
0,00712533917491654
0,0156528014539594
0,0188875258080205
0,026497421728592
0,0117188568582843
0,0221853255847273
0,0151918903132667
0,018624722624682
0,00877729408906659
0,0525460665101576
0,0170399946511718
0,0287338901443175
0,00343671259968108
0,0260017363760216
0,019105647951949
0,0628383935605278
0,00810912392383817
0,0251489840536894
0,0126754041975456
0,0214716424496304
0,0235254148206723
0,0307608127931978
0,0272678504928296
0,019392891946071
0,0116534174303305
0,028768799320115
0,011735491585532
0,0246182318673235
0,0173949604522618
0,0199630879199948
0,0147499963434938
0,0194944382621869
0,0174865837942317
0,0288812211451335
0,01092974926857
0,029053846619551
0,0183899812714651
0,0165632930061853
0,0231561625982231
0,0379718432030115
0,013404571450573
0,0278687245791172
0,0164299802011189
0,0223187844388761
0,013268860871992
0,0250887044965498
0,0124829015893956
0,0236692895039079
0,0174570904217297
0,0497524002656682
0,00301951528327193
0,0348662059397459
0,00844201736969526
0,0358156226927746
0,0154737690284837
0,034849420795137
0,00999538650009194
0,0300158842912515
0,00481637856031054
0,0327189936634689
0,0290616085379031
0,0301048826471459
0,0224867803840759
0,042406063115961
0,0211580858420714
0,0266497558904797
0,0168338681348686
0,029992989228513
0,037897027730501
0,0104219413559711
0,0307623597297094
0,0699212737418151
0,00842029634046912
0,0390853319613402
0,0218023991611487
0,0387583474609101
0,0542525365605884
0,0225695368514487
0,00971957217338552
0,0260736164925535
0,0304902096275297
0,0273436138061213
0,0268983571092703
0,027078604938095
0,0239842623575071
0,0366371501411852
0,038895964138051
0,0869549862594933
-0,00433462670490954
0,0574433980488443
0,00914717173392673
0,0388297647014847
0,0155740374573347
0,0288144022233875
0,0155811296606402
0,0391223563861743
0,0289221085668734
0,0467648442984423
0,0236581884097455
0,0274478471428609
0,0370433006152544
0,0278095758854119
0,0271216878714706
0,0333384613708714
0,032794602252182
0,0147726838761349
0,0296672388596646
0,0206769773721965
0,0310427666316275
0,0280850383392916
0,0261068653841423
0,0546286084625954
0,0335478798407475
0,041754627169899
0,0433343501663617
0,0353301298507367
0,0215066890582056
0,0302146955733272
0,0324159894350691
0,0351346610232356
0,024986678097374
0,0277893147605964
0,0477358750286066
0,0333572657095307
0,0222718743447582
0,0284363646338783
0,0278718245260047
0,026898471698855
0,0320572064671084
0,0364270530267787
0,0293471813552851
0,0356482544638574
0,0302528207132495
0,0478492536927479
0,0561448756856864
0,0358905868594755
0,0618364110958744
0,0470364159049441
0,0293479080457323
0,038899308113295
0,0300339792071654
0,0406346416897674
0,033990991171273
0,0484161531149591
0,0333985144470582
0,0484634461751009
0,0534232392463393
0,0489973975104401
0,0391179934028716
0,0605423538127925
0,0679816638687954
0,104276380867879
0,0309511671289014
0,0500032649701464
0,0410467859875223
0,0799103526965441
0,0478458469540212
0,0605827796318831
0,0600973903443527
0,0481842043879273
0,0532082043011065
0,0499272343730352
0,0633538220989473
0,0558086765951503
0,0616537751824435
0,0584608005854567
0,0617677101316391
0,0639716345072967
0,0689688031529877
0,0639830491041197
0,0768005739387451
0,0956120266399441
0,0673525198982226
0,0711583445728703
0,0691016699789037
0,0710492283067892
0,0995872085893759
0,0943060159682842
0,105900043712729
0,0962870669795068
0,0848553899759151
0,127749582067772
0,0737984140021874
0,0928835887622835
0,0709766725509753
0,0829095391498535
0,090079563147614
0,0996795533788464
0,0822075830024195
0,0931248426457729
0,0956829205982668
0,104165920840801
0,0894693850705657
0,105450879218704
0,0951661072643869
0,12152837124181
0,0967591541725428
0,107633283287721
0,0942927713230585
0,145025133152044
0,136876027100608
0,160438465116467
0,0923231238858625
0,114457272954283
0,110064788453065
0,120845676714068
0,120627387392807
0,123941646081338
0,127013553113133
0,128010573587251
0,144813166837539
0,127954781724585
0,127129108450011
0,149542134076795
0,113983146529056
0,146041217790705
0,131646599751496
0,148913598716213
0,154024303630216
0,142946500255799
0,130826602126497
0,158021967759002
0,145167508004318
0,147744356692888
0,176929500772618
0,146668251358325
0,150086885265197
0,144071785546087
0,161467606115122
0,155437249068491
0,165388116203861
0,162596909673737
0,160477755265254
0,170614610671895
0,163195560707896
0,170068629812288
0,175252424039779
0,171880019658087
0,164719750714917
0,181482856017374
0,155265770519952
0,184020981552369
0,164089933065496
0,192101892505817
0,18564919972396
0,195261599299545
0,199132319728484
0,173559049424728
0,184642820182388
0,18545240166402
0,189220160813998
0,189820030992357
0,203896173628419
0,207629520652284
0,199459480414959
0,208583842493357
0,206439843204957
0,199859791299483
0,207334786255364
0,205547445408739
0,195448230339461
0,20752063280772
0,211954980455906
0,227724298603754
0,210939892973213
0,241628735812879
0,25509764225764
0,251333578637392
0,27603400826045
0,220790662494678
0,232749701918548
0,246452091004472
0,240685801104716
0,226758286560929
0,255986699677529
0,24585887166318
0,233119009676844
0,237862056261335
0,239211828058504
0,249820189630551
0,25573797739184
0,244329826282655
0,263181307158557
0,263436208234095
0,253578307103555
0,265783746214976
0,263210392169998
0,260905597567055
0,27829893728038
0,270771190687879
0,2806958048128
0,286808726555693
0,277316167625249
0,27714444747216
0,290794957715417
0,294571719262871
0,281305741389817
0,296423254893764
0,28287817904613
0,292044418190777
0,295658718675552
0,292853211187108
0,295685158181593
0,306220521004559
0,317306342508728
0,315350313853531
0,292209896075675
0,306242360544272
0,312846950970994
0,311258758507931
0,317384967111593
0,314130980699406
0,308918323085689
0,304421083438382
0,327572623903107
0,32796593862504
0,323848682865919
0,320869618082073
0,325234655184844
0,321303030683363
0,335380775629466
0,328873638096154
0,336304211411579
0,333480216161059
0,329385243713668
0,334773712141378
0,328079212388567
0,342212691150444
0,348376795004374
0,359146563884721
0,369825463451136
0,369595099233893
0,36409222045279
0,357392390767668
0,350959558193393
0,349160629438674
0,366244372308842
0,365296710748771
0,371822778837138
0,375909301144331
0,39593185372969
0,368648837526492
0,358737519204818
0,370500030775944
0,373320187986707
0,372905182741286
0,388910653494677
0,383763283958024
0,399090718030403
0,404698032367862
0,396894378676827
0,411829518027464
0,414785708893209
0,395607200765339
0,388360370988853
0,406429931923819
0,411998470536433
0,413172428606012
0,417730672459417
0,39558338528668
0,410495215635294
0,409410216596898
0,437681019382696
0,419165283610029
0,423639968751188
0,424039609832173
0,437415001050264
0,419020583916958
0,438151371542575
0,441189253445441
0,437748168511511
0,431305593663685
0,439213433664504
0,432407726101558
0,439879718494217
0,441736989108973
0,452965076482469
0,449267635673336
0,460476875590559
0,456559851316409
0,466116798236827
0,462169937931964
0,458477921521043
0,454444120093263
0,45886641403433
0,469109258086177
0,478469646959164
0,475539554506107
0,463461084368295
0,462303952753157
0,478920583104483
0,463752685564018
0,483194913034065
0,476707913888159
0,499731842299348
0,494576644217754
0,475625217828604
0,469517469937043
0,490109191763421
0,487211702280532
0,496638444458197
0,487318319321572
0,511317135641521
0,487295775461789
0,502107209752114
0,495236961198694
0,500571998117184
0,502451919030961
0,498297531864296
0,501568757386871
0,529747643497855
0,5057477284098
0,514537327447915
0,53115570440812
0,527139376327347
0,515277183783944
0,527178795564039
0,510346800182353
0,516291011615577
0,541020225806495
0,546602149258222
0,548023633952269
0,558514737761329
0,52390942412775
0,530618343066632
0,525304761682595
0,533229444875414
0,535517287894484
0,543103272877647
0,543753988404209
0,540830115653336
0,54236854716708
0,545583526844791
0,537312383307597
0,547627004495338
0,552956972639483
0,557797018489999
0,542907211612231
0,568395000091441
0,553851488498086
0,566523514551443
0,539764233521581
0,576410162643722
0,555940341342711
0,552951838201542
0,54737184309998
0,578246611933738
0,568832975181239
0,580117255842525
0,583125479347175
0,583225470254209
0,56241443343139
0,578324926936823
0,58034862424318
0,58366373313312
0,553855150472642
0,58732391945208
0,574312260074912
0,592651028550766
0,585151412025021
0,594176481278318
0,595389383632232
0,614627128271457
0,591412502764671
0,590237439785627
0,576081464886756
0,570705940129158
0,569324548999059
0,587120173277069
0,59560763132694
0,596506037587216
0,597860836187921
0,604999972813427
0,606936767856258
0,596351063362775
0,570198098086414
0,593327911107925
0,575608162711957
0,632985194529531
0,573071294608625
0,600853477362899
0,609043166727028
0,60598333604052
0,593958144334189
0,614868940202541
0,607541094891139
0,61466170161072
0,595659093411344
0,6139439653802
0,617027238447096
0,638952806388476
0,612843123417021
0,61603821686284
0,608713680621386
0,645406398561059
0,597311579037599
0,616890444557968
0,599030497464335
0,600932606832394
0,587098869234081
0,610466311089629
0,603701536458343
0,618572092563648
0,593371083944007
0,623488327755662
0,628758123744745
0,645301254040219
0,608789608443455
0,592535289182405
0,594288990528497
0,605936874893334
0,601260820041508
0,632699613674481
0,604393141174656
0,623252347812767
0,619623463048099
0,620431213567556
0,605758056058386
0,61658573989614
0,611273082686784
0,629602662706745
0,609403635862941
0,622857734345222
0,615083969122187
0,611295802121176
0,618119584530204
0,604755675750198
0,582547377362727
0,591379370664939
0,608768924245308
0,631334912273305
0,601362534301006
0,609498987452494
0,593679620270431
0,622575026144811
0,596792942485654
0,604181781500466
0,588503178641445
0,605410456399692
0,597616751221822
0,607035519105441
0,60640608273049
0,615846280622205
0,59982393517337
0,610031684740329
0,605566973614462
0,615011695980019
0,611662314786043
0,608279169596934
0,594282638740139
0,612802538975418
0,594750850671818
0,602239102281435
0,594731938142551
0,606685448545864
0,592740378757332
0,610277301618149
0,603446059830813
0,60799643259907
0,577802242325475
0,599541574197204
0,60053056265388
0,620370256237769
0,601793390712317
0,612449358493492
0,584990438949113
0,5962377294204
0,587783371313359
0,603877846820675
0,596911200992633
0,593412514251229
0,594015416303009
0,621742239770196
0,603079937918308
0,606288453103358
0,594553804015055
0,588641444493385
0,581478610416868
0,597518299977451
0,599484660861874
0,597625038253788
0,579929925569703
0,595195060730933
0,583336430422579
0,582107351396759
0,596308469687867
0,601081520759884
0,573417929861146
0,584219276334352
0,580965121849475
0,604639055371889
0,586100776840567
0,581108192177175
0,564908763867991
0,579873104636018
0,572101751164837
0,595091720601374
0,586555935266826
0,583868199395137
0,569449322275844
0,579821900998129
0,591780106876482
0,588702699096491
0,578188133372003
0,587388418444915
0,560161013962432
0,58246468524924
0,577995537621348
0,57842098834403
0,559344590484309
0,578794348510485
0,55988140613087
0,568977317834592
0,58341483948814
0,577132941779467
0,558909201670413
0,59207136686266
0,565112591153847
0,573653181056013
0,550645410437347
0,571628663962517
0,559030995199197
0,564218827769506
0,551658209066608
0,570202556625601
0,558120353688271
0,556753925755715
0,557690039168397
0,545408492512625
0,543690773234106
0,562561082082473
0,538265102084954
0,553333640212522
0,539905996288542
0,558601530237858
0,552260575791791
0,566415344948316
0,552019689557343
0,560292530506358
0,54196105575466
0,537403298352837
0,53619107194625
0,549396750379472
0,530925809924797
0,555273794217351
0,53315432033778
0,529439660602854
0,530551118032688
0,539490133925121
0,517425337873391
0,527998847792962
0,525140133150842
0,524551734833837
0,524627492264581
0,514994841759488
0,514247729690061
0,525337340108364
0,515214527979951
0,518747360188123
0,510804927381204
0,517768454237154
0,506997336772714
0,512658781017059
0,49849067933397
0,505434853297264
0,489477780552955
0,504402525220981
0,498743867374825
0,504208018005373
0,486087595406297
0,507297309005545
0,484490576855005
0,49745743644281
0,472858678228794
0,493138830776201
0,493498036330936
0,485372048693428
0,475999373398911
0,479379403416328
0,482691883024923
0,48408725234098
0,461525262312373
0,474485585288739
0,467513695135105
0,475736727088171
0,465830700715979
0,459973191490476
0,448562691330247
0,454896396125987
0,448469480784014
0,454413816766792
0,452449025202026
0,462703406135596
0,449770766408632
0,448998237154377
0,4458939894508
0,448763909838075
0,441505569112658
0,437152192147422
0,427496551299521
0,444625447683775
0,425896582972054
0,436233847782641
0,428946598338035
0,428344196748024
0,421379383846673
0,423002075058231
0,41504234917858
0,419630716903158
0,418011308111598
0,412478259965449
0,403512592538146
0,411952443381446
0,407385875913684
0,403103444666242
0,403009159063856
0,399174794020611
0,392328905830029
0,409211055219908
0,393092150293253
0,397761902349601
0,392294429035164
0,397441762867143
0,388139907708062
0,396957331944589
0,383810273438659
0,387725826256956
0,376403853135293
0,382636915014534
0,379475359767824
0,373765002524154
0,369365320999985
0,370865483124056
0,359150678439592
0,370462006602087
0,359332710521322
0,364132697065385
0,35774625379806
0,365435787960494
0,348054812549357
0,351457934751648
0,345872304418198
0,353963001037209
0,348627169547618
0,353333443531992
0,345319383754943
0,347492680106736
0,338787312161288
0,342797584902915
0,336638423788519
0,330589633354305
0,324438632392504
0,328191467478725
0,319959868492682
0,332462243261417
0,323295323951414
0,329213058268116
0,312389193834131
0,321026797141666
0,311762931601948
0,316404116070894
0,317600228130864
0,312247479718099
0,307981904666833
0,310180166146609
0,30827435620486
0,311277705268565
0,303226237154197
0,314210120014158
0,299498084366043
0,30978889726548
0,300891122859941
0,294791735137793
0,285330952495611
0,297506290594008
0,285907525647907
0,285784552272003
0,289778748154312
0,284637937716923
0,284918567623511
0,285982543085376
0,277922723788734
0,278529125267783
0,279428234016633
0,276113184225878
0,273693640935164
0,275484547314791
0,268029422259458
0,275427415337402
0,264819946552957
0,27052390153108
0,257981757225559
0,263016947165151
0,259572385833777
0,257941057239865
0,250582999362281
0,257995018415996
0,252245599531687
0,25378469911241
0,242522077604449
0,253354628378443
0,243384380747572
0,248243264083437
0,24503013987559
0,249473849733377
0,238160834849283
0,247792553640085
0,238462014482108
0,243644496362598
0,236551942406629
0,24192972661784
0,239583394861347
0,236944241777332
0,230334525372656
0,232126453279793
0,225857455480393
0,230597978638999
0,227303967232559
0,224711204849315
0,215267413848968
0,225975461861878
0,217521574100229
0,217587295179812
0,211572035268564
0,213946773531355
0,208569836194047
0,212096185085756
0,204218338979237
0,215094069571992
0,204069462875326
0,210408719691883
0,203452644829291
0,204035745750334
0,20331111743487
0,205088031140606
0,198505600483921
0,204505637961571
0,193709416328416
0,198432394338243
0,193494555145835
0,198233011705571
0,19019202503886
0,198960204702914
0,195057375084526
0,192652502763186
0,182854244544348
0,189599011940587
0,187616528930458
0,187246132378966
0,182400151210494
0,183578401225818
0,175333574390504
0,182965893115618
0,18181360986427
0,183661002692728
0,171197500536947
0,176233260973851
0,174614091184518
0,180061280767661
0,165809305588848
0,168841622564582
0,165993566957551
0,171223877204106
0,169851494437973
0,171366137551971
0,165265700174886
0,170891470134776
0,165739571467809
0,164610145926408
0,159629603550884
0,160386059525938
0,162522694777288
0,167189101645067
0,159233535072787
0,160793226633343
0,153644954273927
0,160146379400033
0,154150868587428
0,163677947220907
0,156510874620741
0,158073325796659
0,150336404537093
0,15958443476844
0,151101106909074
0,157208875251303
0,149026704468414
0,152434593614244
0,147306655669762
0,150663207877618
0,145100055065454
0,155866352934042
0,14447992096119
0,145360263379597
0,146523857752648
0,150260985245862
0,141716882152558
0,15341812075281
0,148550558807762
0,152322466191799
0,145623636862934
0,152735742845085
0,146765127695578
0,147480512851464
0,142198743264889
0,153424248489763
0,146016373920967
0,151246805912994
0,142343463232034
0,141011037943689
0,144239240775134
0,155214074081784
0,147225127505655
0,14959237184709
0,143840924446181
0,151731750026569
0,146342608423238
0,150591634177441
0,142563592888703
0,152959225229527
0,14387976948286
0,147735693525557
0,149210961490252
0,153932357135475
0,146014644357847
0,153257892671143
0,145589287857373
0,15636777403267
0,147723266941623
0,145596991655819
0,147096521634676
0,151482448061875
0,149762338156209
0,154646559590081
0,145314851675786
0,150794040985806
0,146653586834441
0,149382608984415
0,155525675797558
0,157240332965497
0,152311360178942
0,152764544004376
0,153484599530103
0,159372440579367
0,149194308846685
0,155432629522244
0,156611539622433
0,156765935872229
0,150721356858363
0,157375693693149
0,149215677533139
0,153915179367341
0,156292776657542
0,164658786837086
0,155200000228008
0,157895550711612
0,153662913891728
0,154882003021142
0,14775620934181
0,155996325655169
0,154867864750486
0,15396566456331
0,151631820831283
0,150664140611063
0,14726707982147
0,151750009140669
0,141451724947821
0,146590201782591
0,146696886540371
0,155177771850385
0,143717667429971
0,153469394222031
0,147239469870244
0,152641189796354
0,143786954226963
0,146734890934976
0,142198483617483
0,142882375408393
0,144443674994346
0,144978270564878
0,139501182021033
0,146986278388526
0,148867858540427
0,149351924752166
0,141444181783289
0,144326219577027
0,144948445097193
0,144576853735117
0,142443933980118
0,142579502891676
0,138854653074123
0,14449025331384
0,135815219897084
0,142087099700813
0,141204550518143
0,141176406450577
0,14257963858675
0,146798998994706
0,138904764072983
0,143990466340189
0,13566791332303
0,142412183412732
0,137145343026398
0,138458981195621
0,128858837302725
0,142718569481014
0,137232825652906
0,139192497978224
0,137370485445051
0,137441660109947
0,133656695996661
0,137605284001208
0,134141886839779
0,134551077490747
0,132567171573691
0,135836028976368
0,129082020029979
0,134426316476712
0,12743257225375
0,12732382688369
0,126334174404441
0,128404926464338
0,123262390477766
0,129409817731451
0,11986528342687
0,122846956194078
0,120375037557582
0,119587542031774
0,117088664715648
0,122979756539628
0,115016190085893
0,118798054479299
0,112216368076869
0,116477251504757
0,114517650571833
0,113584433635887
0,111410860321224
0,112765525220803
0,109443074405752
0,114899791451464
0,110842499092218
0,110507174798938
0,106512443185376
0,107932660291596
0,103319265854356
0,108864456537797
0,104520715716274
0,108076802407907
0,0959512661593086
0,102220257357473
0,104532092050149
0,104230915482699
0,0963042735435654
0,100445682120915
0,0962071224021279
0,101541681334133
0,0932832270993593
0,0958953518606874
0,0937958362475774
0,100830993114943
0,0915368281989987
0,0967305109079319
0,0928402648161199
0,0940254315647289
0,0934514805862516
0,0970696084449984
0,0944639725183624
0,0966393172531043
0,0870463388390991
0,0933787796541383
0,0887487937687904
0,0907092736959003
0,088880106828234
0,0854127278204581
0,0834666611448678
0,0898169921045856
0,0860319546749277
0,0905260942456771
0,0827627103233571
0,0899717058135081
0,0860402247594971
0,0871795852480542
0,0821572591367004
0,0865894907051195
0,0847346724253173
0,0870906714995699
0,0803703130518672
0,0818637028812111
0,0774533784983495
0,0854529430255821
0,0833653142013482
0,086568194592434
0,0806005195638734
0,0829847067523097
0,0777654309798238
0,0797403370029998
0,0786421865788566
0,0855530517991502
0,0795001032665731
0,0783229134667906
0,0751886740909546
0,0790035060264778
0,0770995941436077
0,0793319305944717
0,0733767666928172
0,0818365521702577
0,0720819732519335
0,0773143940084894
0,0729356111155339
0,0767945389298444
0,0732540504368511
0,0801652588079326
0,0704085139076439
0,0736070562328058
0,0697920354690365
0,0780530821705225
0,0747586098979278
0,0762786443060426
0,0715288988559779
0,0750392863733539
0,0702834493659184
0,0750659005036288
0,0695167876507736
0,0713568449140087
0,0670276545335056
0,0709069951308015
0,0695128280083618
0,0733776719678725
0,0693507772248174
0,0702673288638315
0,0671425370382404
0,0707504192124812
0,0700038865203225
0,0690276749769947
0,0681446468371441
0,0727387589444297
0,0697656821584667
0,0704545012742499
0,0636860189142297
0,0705069107994941
0,066829560834274
0,0717507107698611
0,0649407039675504
0,0668877447933176
0,0666764311302886
0,0694970016196566
0,0622169714923199
0,069390442535555
0,0659228971996439
0,0683553568041619
0,0633598224617952
0,0710321311434274
0,0613299646971372
0,0674098452034227
0,0627250043135324
0,0678567023451152
0,0638381173252026
0,0660732793183085
0,0614621603196511
0,0678722676586481
0,0617781941610005
0,0661056551583149
0,0638188429046744
0,0694162267473958
0,0609702352546256
0,0636088959249227
0,0624875507289919
0,0650576963850557
0,0610228347448378
0,0613023766840232
0,0621224813751533
0,0660060222208942
0,0608638700601622
0,0638831965628539
0,0595783569096923
0,0634752023464772
0,0607664956465451
0,0629746638395128
0,0590457430199796
0,064703739465967
0,0596815294207165
0,0629688420267464
0,0584614686015476
0,0616309263728478
0,0597118142708542
0,064481571356436
0,0577809090051138
0,0633078916969809
0,0596348692220582
0,0652109556286463
0,0597128414158046
0,0606709694492189
0,0583981503669682
0,063644999900696
0,0570949701396905
0,0596372269552099
0,0540147963278686
0,0619970946004201
0,0569723675943162
0,0563937463761429
0,056451107827756
0,0594361279728536
0,0569340190232478
0,0573941446519926
0,0553129022292482
0,0565215636863686
0,0546913043536902
0,0577488650100791
0,0535851663742226
0,0602796720555364
0,0530240763023042
0,058477363886717
0,0564508063860895
0,0592038036491672
0,0527752020061698
0,0561103034294129
0,0531863004349227
0,0590071531114204
0,0551402371406231
0,059595925251565
0,0533696756307763
0,0542316338634226
0,0515623083665396
0,0559536798755909
0,0552914967869442
0,0535706801629205
0,0511176939509954
0,0551514234322698
0,0533444163941029
0,0548068270228437
0,0513165812968861
0,0525176845204993
0,0502063372962961
0,053261675899353
0,0492855250298212
0,0531244929541428
0,0490599804125931
0,0534316699357553
0,0497183210679693
0,0514934334917971
0,0481958898086392
0,0516883738567488
0,0475367453896357
0,0518866286252681
0,0469140133710985
0,0502989768970701
0,0467229273371125
0,0513698541878834
0,0477880744712188
0,0523477998583795
0,0488610403101694
0,0479360759439459
0,0466453323755528
0,0514867632078247
0,0455958401515886
0,04817504435661
0,0451853099045966
0,0516071751925266
0,044797536282655
0,0458438994755356
0,0441808464166421
0,0472878550558228
0,0453866693618981
0,0462927906134926
0,0433062992766463
0,0465269008347127
0,0447384622776009
0,049260084384514
0,0450599202008851
0,0497072663939319
0,0424202981096109
0,05159806372445
0,0449582594297358
0,0449264287912819
0,0425683725777108
0,0444279823791556
0,0429084535488765
0,0430745262193767
0,0409731377351399
0,0464224503516076
0,0417584888193941
0,0460089884082975
0,0420836673019723
0,0424536122390635
0,0406628167342279
0,0468035428954744
0,0396644362994256
0,043706287184772
0,041960322052696
0,0428726160218124
0,0409476286804848
0,0449507124512546
0,0401614468051039
0,0444437090361443
0,038623776361143
0,0416210553986044
0,0375862753964756
0,0446854008150389
0,0393001900518263
0,0407478185864773
0,0328855266197982
0,0396927132058239
0,0417257270744677
0,0451010544684285
0,0409777083170647
0,0404695990769337
0,0395952569747619
0,0421194388957507
0,039790116266124
0,0413786876593823
0,0385320158671447
0,0425047757958749
0,0387455257983128
0,0421113391549375
0,04125931203411
0,037955899869398
0,0393139844953158
0,0456987568583801
0,0412316947279372
0,0427183870329158
0,0362477451730251
0,0420904102688781
0,0353843038182929
0,0384093072274858
0,0396323104827811
0,0416206936433865
0,0370098009973491
0,0402932605979519
0,0382773252194115
0,0417615606979748
0,0371646333173481
0,04090694567355
0,0381304132997482
0,0412628291684377
0,0383743939396231
0,0405957690016159
0,0374211843710494
0,0391616315190161
0,037869161132515
0,0387482714465241
0,0355311640654962
0,0399243076748841
0,0372490937406812
0,0372197211514569
0,0352636518485309
0,0375372786273618
0,0390783294360787
0,0409417883155167
0,0369087740757618
0,0392100363226146
0,0344359281608054
0,0392183543039976
0,0351989286523915
0,0397632188300349
0,0354694074282613
0,0371519510801285
0,038234125907805
0,0409231992805356
0,0368522357820854
0,0366571638176362
0,0336879170513797
0,0414188921347555
0,0380870706136771
0,040048082832884
0,0341004779573688
0,0366169017554073
0,0378954350769212
0,0377955451332214
0,036055213421133
0,0369661989233628
0,0365983487215775
0,037767566995709
0,0341945516011563
0,0353773815086652
0,0348182792480099
0,0420781547894439
0,0327890222972977
0,0405708013410972
0,0364383449095228
0,0389982911862339
0,0360208609197352
0,0363196292886374
0,0352961247133792
0,0371891169770245
0,0338064150663471
0,0397974334734123
0,0357707560669438
0,0399452702271883
0,0347442646028328
0,0365334357385981
0,0344656823010231
0,0359184434027326
0,0317148558870235
0,0376945827585833
0,0328387821609431
0,0372465742664944
0,0333028164324188
0,0376704657382779
0,0345095806730356
0,0376366725329279
0,0338541670298473
0,0357079181888021
0,0342169475705583
0,0397264849264906
0,0326136309885332
0,0336778292333823
0,0343752791752735
0,0349121730633314
0,0366311035001423
0,0378230715040048
0,0341657684614887
0,0367613506207057
0,0318223135930746
0,037604553754555
0,0344432120132636
0,0355458431372533
0,0330045233001401
0,0412541308331121
0,0344833882336291
0,0340204373721939
0,034100820969723
0,0377318504732552
0,0324136682518465
0,0370067687757279
0,0336602614365262
0,0367284848022727
0,0325352926010815
0,0347464053081398
0,0333472246436029
0,0362786857402382
0,0337535906434791
0,0345404210274352
0,0320576437345093
0,0333231036541407
0,032228357475472
0,0381770404246396
0,0364457149494148
0,0355610511459793
0,0340816034164539
0,0365543017759155
0,0336955820251882
0,0345068268063521
0,0307355777945879
0,0357033677381349
0,0339182344892023
0,0381889892100261
0,0325439240372741
0,0346515869111113
0,0344171343133724
0,0353213902731974
0,0332403345657898
0,0345976353595385
0,0314501661618786
0,0346522213014747
0,0309598662197977
0,0339203895745748
0,0325110271831702
0,0340973303517398
0,0321296986050066
0,0370451590490881
0,0334396716730592
0,0338615834169904
0,0304124263739815
0,0349022007345959
0,0319184472224638
0,0329373875172544
0,0332643656865149
0,0345367324258047
0,031319604775004
0,0330034461437187
0,0309193310678154
0,0339252879150061
0,0310037449657741
0,0344877633110132
0,032167997529673
0,0344388996979312
0,0308901522957945
0,0346700664264555
0,0307765768929064
0,0336979333255459
0,0310107754656587
0,0338610675548263
0,0316633359361417
0,0349192340629458
0,0335318597939083
0,0360454349854026
0,0310938548730049
0,030439410286906
0,0314441889121669
0,0341611920946972
0,0326232753500733
0,0319064711904477
0,028681211049254
0,0367006341182776
0,0300508153155085
0,0334936934207375
0,0309896876235526
0,0337422409488247
0,0311912363767869
0,032883305314592
0,0320118966842558
0,0327351881899456
0,031694315340833
0,0340495786686007
0,0319267754769
0,0341356930829956
0,0314296772462103
0,0320240894299436
0,0319974113047317
0,0336173210423169
0,0312408589304674
0,0341071768639632
0,03107193881613
0,0350780269795701
0,0330205450435275
0,0301750845928319
0,0308474873003731
0,0324868826864611
0,0297056250039722
0,0322386564690321
0,0311631131382179
0,0321840021657523
0,0303826890541674
0,0335289396781749
0,0310585162310261
0,0319507528745424
0,0313017673931939
0,0307454975629775
0,0287688633239402
0,0344128676937838
0,0294491743102133
0,0357870990787571
0,0326884948875285
0,0321294982190208
0,0333940865948331
0,0327426708174056
0,0320171917212975
0,0329184598004976
0,0306024082343639
0,0360091779528543
0,0332739164447516
0,0333286973700889
0,0330254993870995
0,034668866140928
0,031700038219645
0,0332493219850615
0,0321100810080796
0,0347085337431622
0,0344383749362068
0,0383418413297776
0,0357651446451415
0,0340721421319152
0,0316329599194244
0,035517434499348
0,0301866642610429
0,031518089983565
0,0344461723897382
0,0382914729062847
0,0278957091529167
0,0313559242172854
0,0279051247104069
0,0333754524692849
0,0316315724820777
0,0312871321211303
0,0301605503135325
0,0332167129722948
0,0285247757341044
0,0354839944709537
0,0297248065411451
0,0382930785156308
0,0242715202152257
0,0358106151090492
0,0310200308314994
0,0347000061575382
0,0359145714415966
0,0319579666523213
0,0301381410410932
0,0368190906548814
0,0352028277194714
0,0392779217348691
0,0371807057744658
0,0391554083726812
0,0274611411838892
0,0397887315241147
0,0303855690298356
0,0454020467042763
0,02871506984649
0,0377703426929471
0,025628242558687
0,0408048814337318
0,0198137047371331
0,0389606903343456
0,0123361744000596
0,042060312966702
0,0220681750260218
0,057353911829435
0,019043870376519
0,0483749699562352
0,00300311905210601
0,0576305727089505
0,0133362952300669
0,0615072319187627
-0,00258141918725008
0,0611244432779867
0,00331832358449026
0,0697808425295128
-0,0021949140152679
0,0629792453595285
0,00583094975080226
0,0635031411413442
0,00681837462867817
0,0498821478266179
0,0247885084996052
0,0425079552815288
0,028759118775011
0,0396575076271083
0,04101059869519
0,0277952110733218
0,0422481319591492
0,0290045942356425
0,043977952557164
0,0292442970133598
0,0346544695551161
0,0351133654360605
0,0320424137811236
0,0373118878864029
0,0325346392457687
0,0387502947418952
0,0308238995967726
0,0362557359199905
0,0338568099899262
0,0345091865727011
0,0332323384968702
0,0337596781855619
0,0321762619991472
0,0329990295395762
0,0325135682783834
0,0349832075108417
0,0308778212540768
0,0351815981520141
0,0331974216186963
0,0374551286231819
0,0357114456989819
0,0351524504778678
0,0337729893630504
0,0365652860603939
0,0341828713339798
0,0348160009552855
0,0325935540834258
0,0350117179672903
0,0346508897112744
0,0369460502315667
0,034087234646819
0,0354265899168092
0,0347060421200862
0,0361181301905468
0,0314893578431445
0,0376411387276848
0,0333767445425368
0,0364926689105246
0,0335382475815552
0,0339348980327161
0,0338815591834767
0,0366910160574471
0,0343119438246127
0,0341332254139095
0,037303957209743
0,0374533874306987
0,0356109223958794
0,0363326736770949
0,0368416991804429
0,0365205689175376
0,0344459589629108
0,0365658641565203
0,0350977397048621
0,0356971852024029
0,0340046743352898
0,0363833835615151
0,0361611944844197
0,0384417641618026
0,0379514256683395
0,0345812356436433
0,0338727313663334
0,0356397829706096
0,0348954534542542
0,0356174543135188
0,0366667402871352
0,0387825503144437
0,0343206236042836
0,0366297990944586
0,0375985169209368
0,0358973308646815
0,0365325777395548
0,0369518691600836
0,0382747789411019
0,037303476491209
0,0350577630222876
0,0392027123040793
0,0369664039400446
0,0385454061945034
0,0369740316649189
0,0370408096803035
0,0370430158675686
0,0389682792455745
0,0351428518688279
0,0373107478793541
0,0370778502349642
0,039527053944561
0,0371095237232476
0,0395733013862763
0,0377932845993276
0,0390240272026726
0,0378615367379569
0,0386635869526912
0,0366173532088797
0,0396238878544213
0,0373734791862426
0,0384717181078598
0,0390535594486596
0,038876226639776
0,0365683697496436
0,0392955861017793
0,0391172282620638
0,0394382488878518
0,0377949162576208
0,0398173644068848
0,0393406210911635
0,0407648714660272
0,0386890267330748
0,0403057082617694
0,0393770952918377
0,0434145212323607
0,0385046999245953
0,0391174289514408
0,0401193864285525
0,0394122522445648
0,0374202129767083
0,0414399064208742
0,0378470542426184
0,0371624061967699
0,0360218773608502
0,0403152255059097
0,0406728603106205
0,0411374974344443
0,0400459835032538
0,0405901184815847
0,0383925044145736
0,0392037309061674
0,0403102474641865
0,0416333793105907
0,0382396103068584
0,0405705753187578
0,0418630362926984
0,0429903663404521
0,0386364225616089
0,0396086175242742
0,0376954715933073
0,0402868391683727
0,0388331048382513
0,0393770439169589
0,0370302794111306
0,0429205367647025
0,0436902303807558
0,0422715646113579
0,0417911998968158
0,042748221777314
0,0402981976720058
0,0422205091040922
0,0417820085097669
0,0425389698391766
0,03916267691185
0,0413115558735681
0,0414703340737312
0,0416459191179159
0,0398710858821026
0,0418315292266171
0,0394747297399287
0,0430136848179555
0,0422888684337272
0,0429493615664391
0,0431075898655389
0,0443048422796077
0,0426767683265373
0,043377277007842
0,042128748076328
0,043596801510054
0,0426175381457556
0,0423102438672698
0,040431992927506
0,0432893519546905
0,0445825480615141
0,045505160124522
0,0419114798272093
0,0439300560089423
0,0424960713127009
0,0425425896196601
0,0418554319362229
0,0431935586590986
0,0405168970528483
0,0423030768417397
0,0412641937249204
0,0439080724773333
0,0424376180237787
0,043226495001654
0,0436322664658545
0,04206539184749
0,041453611883823
0,0422896831048247
0,0442015141746824
0,0449732339374767
0,0416374905170839
0,0403400258553425
0,0409215866097348
0,0404674282102696
0,0413518596849751
0,0429624469993512
0,041461589619256
0,0429757517159502
0,0410800807507696
0,0426740588811387
0,043580281782691
0,04508600363816
0,0403067722986689
0,0413051949820627
0,0420117107027993
0,0404118556906669
0,0409202284585921
0,044760586236905
0,0423145684053566
0,0441485268593513
0,0419402581685491
0,0431691391815976
0,0423865643179089
0,0442290474396348
0,0424056298131082
0,0396628088193425
0,0393212259176355
0,0449660745121454
0,0415126068593758
0,0425502146406158
0,0432410804331942
0,0419931756614085
0,0408211466974432
0,0425001695217484
0,0404964174842102
0,0415707132259941
0,0421663367743132
0,0425492203453592
0,0406867017149342
0,0422583794645061
0,0398563176120286
0,0421751569218519
0,0409315243713101
0,041315560916496
0,0407391022744302
0,0407166029767199
0,0402930122923401
0,0417280434404425
0,0417998283253643
0,041321649760732
0,0404580334669953
0,0411464910670954
0,0391522337735032
0,0421792355802688
0,0423543848162755
0,0411623511837911
0,0422707212893591
0,0429488272947165
0,0406621689142893
0,0413666791387798
0,0416460761027324
0,04103245912346
0,0406439750328128
0,0399439636122208
0,0400154550304378
0,0423852111596663
0,0389988943095903
0,0390030072216815
0,0408846760138598
0,041502434613439
0,0419089043651117
0,0394550541311337
0,0384221486227815
0,039518237235234
0,0377713004695549
0,0397818465091994
0,0382442360360062
0,0428002857441722
0,0378434086350407
0,0413860889269305
0,0399880788980148
0,0388289339095397
0,0394355746551663
0,0391168703729238
0,0377293578508184
0,0377064989009099
0,0378841839821078
0,0394234179524399
0,0387502591922787
0,0402105549867772
0,0376013457120034
0,0381689918614846
0,0357287783253565
0,0427713897373477
0,0384114133737333
0,040858921827424
0,0411877409519852
0,037701907346427
0,0384650605511826
0,0370386114104813
0,0367353216431435
0,0392794805377761
0,0385808594225378
0,0395580980873873
0,0376563290244071
0,0364452692462478
0,0372827990202898
0,0352032265582889
0,0376941336537454
0,0374209849368401
0,0366279632684296
0,0388215736939976
0,0362073923516238
0,0376067253278623
0,0375766931862438
0,038203748707323
0,0377217600862292
0,0365037380316265
0,0366270177883945
0,0363334381741338
0,0386712759800244
0,0354157695986983
0,037815777821146
0,0334283352415023
0,0377886160437035
0,033826448729286
0,0342769894279638
0,0343104142035932
0,0359432985141858
0,0364380363518771
0,0348673211207296
0,0348974064288476
0,0346574506149467
0,033719580149455
0,0332516576152189
0,0350925170357868
0,0363165898671834
0,0335859240850927
0,0323922651206398
0,0315364820266951
0,0349022064635443
0,0327273720142732
0,0362184431499254
0,0345999817247699
0,0327598671080665
0,0336455731410384
0,0348678862730905
0,0325330555100216
0,033672064956725
0,0418633777260498
0,0342175814271389
0,0368459066211975
0,0317081532907255
0,0373278965442513
0,0296347715703238
0,0347897149806042
0,0306424001940926
0,0334029513358975
0,0292126594607121
0,0328495537368556
0,0314466458937099
0,033186920959594
0,0332623064114337
0,0352286219913359
0,0304448738412887
0,0319705353385159
0,0298163311885784
0,0307265253411454
0,0298383531342718
0,0323400296085007
0,0302898260656728
0,0332602367700997
0,0332329874210587
0,0340539082124943
0,0282967775455874
0,036449404769456
0,0308579873696454
0,0348280613176681
0,0296516154121716
0,0323650591088834
0,0312635743447303
0,0322915429041022
0,031352967260065
0,0313520742500347
0,0309148957237339
0,0295968014097985
0,0304340476879679
0,0285575895257492
0,0297932115447478
0,029628330313431
0,0298665169399674
0,0323989640174294
0,02821905086251
0,0311447588888535
0,0266925567436413
0,0305156657270566
0,0275950554011448
0,0294537375775241
0,026988078238174
0,0308400585203477
0,0311661833362135
0,0282283374651788
0,0423154317017859
0,0249414773829801
0,0371828639793612
0,0252745900889722
0,0327619720547911
0,0289395596327748
0,029874201006803
0,0251432437643941
0,0298670356463854
0,0254613158763861
0,0324406255816129
0,0266322830397494
0,0291809445983841
0,0277239816093498
0,03036573234722
0,0268825202249152
0,0296888390315133
0,0273728151592447
0,0301202749138268
0,0250353450978108
0,0284443957990768
0,0330233568429601
0,0332570533860769
0,0273951902505947
0,0308981409491762
0,0205052869536347
0,0421657791075707
0,0272135459500547
0,028459723117683
0,0270084985272572
0,0268235565604219
0,0305664606377522
0,0257667080973635
0,0290171955426329
0,0240322537075911
0,0362185826171986
0,0253067560918435
0,0360425950405149
0,0239112107346099
0,0262832017253164
0,0255763800946018
0,0274057610939733
0,02530152777592
0,0266975934263193
0,0264448994561395
0,0257467826114387
0,0275359094765112
0,0256072489663669
0,0260440985147691
0,0259748814334739
0,0247464849215486
0,0344641843152023
0,0235359758337644
0,0298442611960737
0,0250223037852714
0,0287885321286282
0,0247638593598828
0,0418746202157124
0,0145263308742894
0,0341847230349583
0,0204356325160481
0,0313129397522373
0,0259872210247037
0,0300040653620213
0,0240241696813057
0,0285713689014131
0,0250505322639381
0,0276971707569089
0,0258237733725233
0,0270233175151273
0,0256644183332278
0,0248901594910713
0,0271757124117763
0,0245437812413006
0,0272418976314468
0,0233373540049981
0,0274267529309623
0,022530397102467
0,0338236932196899
0,0388356873872867
0,0265186461723726
0,0419230367081373
0,0256825145926984
0,0322884435595547
0,0240980714159394
0,0310988373335904
0,0206239072208247
0,0326424481383642
0,0216447548722576
0,0293616273763525
0,0216979567031516
0,0328761892485711
0,0211521637701806
0,0293447314856551
0,020667901457194
0,0314481238319123
0,0213190372791555
0,0330828587382641
0,022329673277639
0,0332818711046074
0,0182012261612387
0,0340330067273979
0,0285079184754716
0,0322767379816187
0,0202584203962409
0,0387385865863242
0,0439620475706169
0,0177478418853565
0,0396332368081195
0,0179931914273786
0,0303958455927125
0,0207771399346976
0,0273088526758057
0,0297193035976731
0,026765079157657
0,0282456186995032
0,0287670889614061
0,0232642278042135
0,029283544623432
0,0249080125395344
0,0317077471839079
0,0466452478491848
0,0316023008108214
0,0307352450360902
0,0290931854064448
0,0228418463991601
0,0532926258651367
0,019933084717779
0,0322965883389514
0,0241791841716266
0,0268325340867298
0,029708680268946
0,025256879368913
0,0276391604606061
0,0290544302363136
0,0322346656140412
0,0217559971276522
0,0329969090922303
0,0214718585518911
0,0307039723587294
0,0276057860723313
0,0306731403314247
0,0354474704769703
0,0274759027391509
0,0277777075725617
0,0315282445747586
0,0263644290632987
0,0324398947299662
0,0252160141311258
0,0290151663361548
0,0280993887606183
0,0417310383490945
0,0262004547727938
0,040084091947383
0,0346194076342639
0,0292124520479925
0,0313743855158125
0,0346529610437016
0,0361565431323107
0,0322570255612269
0,02691308411493
0,0646839798187201
0,010251681123672
0,0663634267070084
0,0146883779434456
0,0439782944843986
0,0206870911265316
0,041193953112933
0,0162834094041154
0,0475553910677549
0,0283556280782677
0,0333244076124304
0,0293637453763005
0,0286446715464115
0,0439358995297108
0,0287870988707927
0,0390329772589979
0,0305171226889592
0,0311563545386262
0,0362788024512333
0,0463629661011381
0,023826838313616
0,0592322722059424
0,0247633586723606
0,0527503021506964
0,0479757380179661
0,0218038492028427
0,0567125407381903
0,0255305903081383
0,0355461246171146
0,0344464508633755
0,0350173072395358
0,040402099216802
0,0273237516732259
0,058624816066291
0,0387457124183645
0,0325990428178187
0,0411003193358398
0,0291067363747786
0,0495133548729804
0,0421640642700109
0,0348602767151679
0,0384266573312915
0,0394635319065104
0,0335872971856885
0,0538755378411956
0,0687691443111238
0,0237026847572958
0,0786654209558496
0,0228786117406658
0,0703083135958805
0,0326884719657724
0,0540526372936995
0,0356534008692612
0,0674086304965371
0,0365614108345554
0,0469414759581523
0,0391368508641801
0,0836719724269558
0,0198295227389452
0,0623567444412143
0,0397203940152901
0,0507536141769357
0,0570667870799975
0,0834322944429718
0,0405218095122611
0,0647076821586961
0,0429981559626446
0,0712781380119407
0,0536625911012986
0,0516163602798651
0,0520156808992164
0,0487235684503024
0,054866430282219
0,0480008341209761
0,0592761980757078
0,0573317036207398
0,0517591984723661
0,0669050260558502
0,0505987173923872
0,0760981959800132
0,0657213699257928
0,109015643855489
0,0488658336682176
0,0832933103930252
0,0671212039727132
0,0644235931526135
0,0739486498312172
0,064809098633277
0,0719839803657439
0,0671029253879715
0,0741879677575085
0,0703611685311143
0,0819458960318833
0,0904869420512347
0,0665215264018247
0,11511843096628
0,0575355863388681
0,0981287432905022
0,0748655467675222
0,148735891008961
0,0285897083587063
0,0865240104802126
0,105970513335191
0,0894962546102271
0,155047140094065
0,0690342946077068
0,103650423069278
0,102092109250477
0,10239289140519
0,104152706561626
0,120943920361118
0,105016664027495
0,122372789614553
0,12147604244876
0,117920253911372
0,132585262089277
0,15784601521766
0,137301376505451
0,16462935519002
0,125094064673319
0,144702947760984
0,149571761450902
0,143684261094431
0,14504218517237
0,154154872646898
0,14222646171715
0,209986349993324
0,128242761111831
0,180903610629907
0,155484088285614
0,188906661414316
0,158330592743898
0,187317238064887
0,212386484064026
0,160322600881768
0,202484179615798
0,174189068113506
0,201415189526943
0,17699129687501
0,213482304103842
0,198526210048897
0,200779612842962
0,209221651192175
0,201927295530396
0,213093197619038
0,207468395342532
0,220702574078415
0,217315051676847
0,232116523286173
0,244980683319577
0,242775296558355
0,335675037462134
0,202819859322645
0,253440124870944
0,21695433638157
0,256854448272758
0,229803723863968
0,24688431614881
0,254523790405941
0,223903893118044
0,244673468338698
0,23713539940419
0,24457893866829
0,240004962279357
0,24976405537078
0,232009985751961
0,241760741064279
0,261873912832898
0,226952408426492
0,340174188954742
0,185924173536456
0,256140489973898
0,227105058842732
0,245701000466797
0,232133790177896
0,241928775076024
0,217073961722429
0,25656069957549
0,210991576955563
0,237075179536779
0,216689339038734
0,231885538401643
0,248127580512456
0,211243670412986
0,215812669506681
0,211288163547009
0,208077900624259
0,214288107464987
0,198240565045311
0,25087373189918
0,173219002643404
0,201496421226504
0,192248225501587
0,196303997312974
0,182949531558681
0,189530493435076
0,17667652195596
0,189836677075048
0,17307910990257
0,183338115885633
0,168852742503478
0,173505594396574
0,163451897900154
0,165695700278028
0,163597417709329
0,158599924374579
0,167313846470129
0,154445401419744
0,160185281094031
0,155548177242512
0,153938919612206
0,155000402455742
0,151354198453796
0,15852776793846
0,148197872543307
0,14824683028919
0,149563973738288
0,147027460362145
0,148146500192462
0,140494697345662
0,144454134589489
0,14455248424543
0,143080094119451
0,142380134931328
0,138186008500095
0,135829106038916
0,142366441376561
0,137511958335589
0,13656655106063
0,133681423351823
0,139847136845387
0,132471994599291
0,146466902171246
0,178588953813835
0,107607357218188
0,145526992651441
0,122798519528127
0,14094808648868
0,1239638842719
0,145622494382153
0,156154224027852
0,120688753468946
0,132793807654745
0,122491430431899
0,129093793621498
0,148925261261882
0,113476960825543
0,135272007471214
0,119217952243362
0,134550808563322
0,194048122781647
0,0815037205200849
0,235975007525914
0,106513769059469
0,137107411824502
0,11617011114744
0,167415275660209
0,108349856238304
0,126310959229234
0,118692496840295
0,110988006792302
0,161863875526037
0,103433144473531
0,125710368061361
0,105722117492844
0,119862852152576
0,148783037700297
0,119914411713236
0,127311848990305
0,149881534042493
0,111351676052095
0,133849790765313
0,152781857895235
0,13241097105881
0,110424333659881
0,106178897264898
0,116540836207018
0,101616358763887
0,137850538806398
0,117328656911947
0,100593390923478
0,1247310526259
0,0881418329265178
0,11474126706531
0,0986416119567351
0,12667215106097
0,0876805381281606
0,137919154593316
0,102928244554252
0,0965662411427034
0,130998035278984
0,0999160239387663
0,153713020483163
0,10406234377263
0,102865928516594
0,0965356933114895
0,145483334559824
0,0930451742622544
0,110652372878592
0,104169722928543
0,0812984175435167
0,117767767072376
0,0888347300256402
0,0882602667243737
0,125587804318828
0,0966480052457303
0,136612601828091
0,108577860195058
0,148803827029076
0,101630229680953
0,0857680316068128
0,088213006344919
0,0887030010543487
0,0872253305551656
0,090754189744133
0,084054979742484
0,140826311992352
0,0622509284758327
0,116905690769258
0,0902877854987444
0,085343482698241
0,0914986671202344
0,0878043019977245
0,0825830175504328
0,0988725326503896
0,0944685448252149
0,122155571324058
0,0761652678139495
0,125947143538913
0,0844591121835594
0,0975793886606954
0,0823801957686655
0,095666237179358
0,0845973050171635
0,0955074270765113
0,10155047533041
0,0915053921632878
0,091881066950801
0,0976020445989408
0,0837518682425584
0,139297226421538
0,0854415407989526
0,108553652453508
0,130587476428213
0,097093646148876
0,149892084929422
0,08691550977221
0,118800570117924
0,100712483132326
0,108410940070944
0,116570252252526
0,10257490164998
0,143021016190165
0,109498099224403
0,110735321906929
0,113995280962354
0,112627866783318
0,123611634478124
0,11830064279384
0,154555732814082
0,116778097068943
0,207514000028972
0,103791077262079
0,144366923344258
0,11900893623563
0,124162605028177
0,129639704925592
0,119128517343345
0,123961889916888
0,11360038221726
0,135095301390732
0,129489473655403
0,114454691823153
0,129894827495535
0,115746769844352
0,1290220198588
0,122528640178647
0,126911881863936
0,122700867641315
0,121035919778205
0,126500158293663
0,125096721269219
0,144298106008912
0,163826282731877
0,114065090614378
0,140760338869522
0,124161867846918
0,14078469053314
0,12256888324223
0,139682353076428
0,151326959507709
0,128588025446913
0,138494783056472
0,131761445093256
0,137908600182258
0,130970122205342
0,142639946013591
0,146845166902993
0,128385299223232
0,152743062795849
0,118584313322177
0,213997412067174
0,114591988853063
0,160677660709638
0,143115422056631
0,14616335714532
0,137205706041369
0,139616735449123
0,139954044500386
0,142915430849041
0,141476089088904
0,142254648219826
0,143004321056963
0,138650722394245
0,142952985402937
0,135058863822705
0,147673802511385
0,153225723168543
0,133603855881525
0,144348730024624
0,134656383402079
0,142424755960498
0,13618846927184
0,163984217153228
0,137286370915525
0,149271307833134
0,134884986494419
0,157568598681796
0,149217092127372
0,145674693220855
0,132814263905058
0,14429877556903
0,129625073841651
0,148103609836334
0,129775060796337
0,163775053526567
0,150916961442805
0,147713289669881
0,139994987515483
0,139054226390146
0,139763920117007
0,141587358006563
0,139947177396547
0,143733633575368
0,143870403831407
0,145796232521712
0,146674529529706
0,141699320272512
0,148938463401286
0,150059035888527
0,158434765930382
0,152188478729955
0,139571330908465
0,150734437646027
0,136585462417215
0,150363680023572
0,142039360010778
0,144730322009812
0,135855420554804
0,144908145141581
0,133410442734269
0,144850118569827
0,149927253887364
0,127286559377007
0,154624441177911
0,123288850651115
0,138870152401087
0,128041818825278
0,133260862326637
0,128773866471933
0,132462703299589
0,129437460769754
0,128842257371137
0,128721161622865
0,126575761203767
0,126804934778479
0,126710835824985
0,127380790175657
0,124517827466341
0,125193408413198
0,124514142588333
0,126547436757834
0,124132272851117
0,12385378144572
0,125419461454711
0,122154688341052
0,135783236811492
0,127548444545364
0,144268808631169
0,122700379252528
0,132345780337249
0,123883961067968
0,127652711457064
0,124289522974638
0,12255467302925
0,125752701166721
0,122632907385045
0,12467583646732
0,120419100967547
0,124778755052909
0,122895029069255
0,122990147928441
0,122321954836997
0,122973814245586
0,121654878495389
0,122864264879404
0,121010035628821
0,126734884573784
0,118336328674866
0,13142943787321
0,120388819456497
0,128594353976646
0,121773338549322
0,120763217213207
0,124902619962771
0,122417706020783
0,124474683831742
0,122390680828769
0,123696681755872
0,122327262086351
0,122612872083176
0,121720956210922
0,119359790109821
0,121932073271088
0,116557711920248
0,119054963439206
0,118413248290783
0,116601341105863
0,116527486331109
0,116088782688557
0,115292558978246
0,118467466164002
0,113726129077779
0,117063345743271
0,112472468854737
0,113559252651663
0,111719227216715
0,113405269047316
0,110113750475443
0,109844057024272
0,107549312214737
0,110844576375693
0,110422151083615
0,112728166942398
0,109941041888537
0,109210551225916
0,109919805893682
0,108479844519603
0,106184679439521
0,1090940828431
0,109743839423043
0,111629638790074
0,106960134460823
0,110074526011197
0,107786518944834
0,110704224410345
0,108739643396805
0,110807643091004
0,111656260015104
0,112995023149974
0,110504220058199
0,109809281493339
0,11170068298315
0,110916469673268
0,112359779459517
0,111944222990456
0,113749646901926
0,113515062384483
0,113313669717265
0,114852069255771
0,112784433833897
0,112318869967131
0,115574772513967
0,113372015208107
0,114020349004692
0,113238366604559
0,113673479271662
0,114908473540679
0,112094877664524
0,112828474061967
0,110883890125041
0,112968012540224
0,112421296698797
0,11213015380424
0,112711749928166
0,112646017489183
0,109849086482127
0,11053788467951
0,109900120557945
0,110961186993192
0,112188802276465
0,111201952993368
0,10952021375985
0,108080064314197
0,106835153182512
0,107776248878375
0,107348211393464
0,109068376308975
0,108053311070886
0,108547089097805
0,107792991816357
0,108497372316543
0,104267448642347
0,106039665145054
0,105739097955143
0,107498319020701
0,106833830666832
0,105245185653741
0,105838669380433
0,105819485913824
0,103781149056963
0,103917972554023
0,10601193496068
0,105175460576576
0,103784008581857
0,104485577908975
0,102212693078539
0,103366550705002
0,102519826960684
0,100607837347516
0,0986086184293034
0,101015982715011
0,0994203993153085
0,0996473364994107
0,0982029092316412
0,0995874457150693
0,0982130445492536
0,0978657824807925
0,098470277890948
0,0973808378611486
0,0957373957139802
0,0961139332691672
0,0965657863852198
0,0976160446150027
0,095933458317725
0,0943889451908169
0,0950681500898511
0,0953770724137124
0,0969877593340412
0,0974986825757969
0,0956197727880086
0,0951621652895976
0,0932214771391837
0,0929773190677343
0,0911680713741167
0,0918063273708878
0,0897827836453296
0,0906586329403185
0,0878458106920516
0,0895534488960702
0,0884164995916764
0,0902778226447118
0,0890965683835122
0,0906321768507912
0,0900092787813941
0,0903222122638457
0,0919790110955792
0,0947360355294075
0,0947695095502734
0,0966871377185517
0,0995529478629709
0,10123693155547
0,106091759511446
0,108372087062182
0,111485362462765
0,114547607800279
0,118261438288328
0,122776140554705
0,125802785710837
0,128836078268435
0,13345034516821
0,138456034948433
0,141293313092907
0,144850012085153
0,147850925406046
0,151290480967653
0,155007852118354
0,160505510103077
0,162518233898894
0,165770788468345
0,167271751351771
0,170255627386696
0,171770436555602
0,173230085474324
0,174774734051863
0,177381585208902
0,177872493059023
0,18042722990991
0,179467747466512
0,179050410327715
0,180483081274783
0,181597473253207
0,179269948747366
0,179783490160719
0,179401950607005
0,179635342199041
0,177577014967386
0,177757316707041
0,179642553443177
0,179639104885621
0,178285065812717
0,176891726046382
0,180227032942682
0,180548770428124
0,181642606498748
0,182887003899372
0,183815901730239
0,185057862319267
0,187116869612192
0,191316518864044
0,191592572989776
0,192981890216973
0,194863115054304
0,198014150289013
0,200964675737645
0,203549590168958
0,204415926045552
0,208540231954897
0,210771415904913
0,215109113966658
0,218509766803884
0,219563123509902
0,222931557655725
0,227476858604788
0,226453069533641
0,227814282090192
0,228940004908825
0,22755097499481
0,223056375257145
0,227043958016963
0,225124923114214
0,223598121819477
0,223604078078981
0,220588994858546
0,220895345880781
0,220413426992832
0,220739688552106
0,221075699909009
0,22367163228723
0,225496040612646
0,224405304292239
0,22942341603968
0,23378724890255
0,236695991174017
0,240836417518013
0,244304653782867
0,24740880925373
0,254120352384493
0,25745554737428
0,261243226994027
0,262192344447904
0,26829817570055
0,269400439690378
0,27438732179966
0,281618483141672
0,284463043890687
0,284050434098485
0,291430946950254
0,29610155056613
0,301345125596952
0,306481417497525
0,309710774793547
0,313569410067522
0,320746301220223
0,328351687158923
0,330286417646512
0,336065731690683
0,339526591479178
0,345092186438713
0,350895633290019
0,35226220850537
0,355562492836323
0,355514217945525
0,357394519690533
0,357203307431218
0,357782700873962
0,361729307880024
0,36137776090676
0,355251602129089
0,353562764716372
0,350386568808937
0,348872193230881
0,345192106777652
0,341602405001992
0,335319428006468
0,331670178475241
0,328972630244866
0,330876944462357
0,326504799967314
0,327831444009549
0,330199063045145
0,328849360647957
0,330283201469451
0,332711101464989
0,330734193888637
0,33680324447983
0,341624848178574
0,340812185122709
0,344322465135779
0,348919297943801
0,350848839927951
0,35071471472011
0,353437651085564
0,35800162810187
0,358904554546979
0,356201898608879
0,358375608855994
0,359145261605466
0,359013281995477
0,3580775048612
0,358680874214751
0,356685215772439
0,358580860020591
0,354695342186859
0,356127925691364
0,353828599302616
0,351158975052105
0,351284324435458
0,347513460173432
0,345349674175343
0,342826418180884
0,338271642830947
0,336820342907709
0,334746100447347
0,329409275977169
0,330665389081892
0,325198194024434
0,325439214079176
0,320703265307512
0,310969799541734
0,309817849503888
0,305791002132665
0,300796382045548
0,292471265123549
0,284926196276668
0,278772530472012
0,26840591391073
0,25946545278399
0,249825985505604
0,240662051947106
0,232847886355982
0,226104736987757
0,216634510120774
0,209118388281832
0,201374475101437
0,19764524363699
0,19332551624877
0,190022589197025
0,18514306527649
0,181526190238826
0,180727617024917
0,179325842061659
0,182313167764081
0,181823863584796
0,179402111229913
0,178083791728048
0,177896681041696
0,178052324364577
0,173531720014282
0,174749573102083
0,172145385766156
0,169000682109158
0,168085937492407
0,165452234078159
0,16123960996096
0,158789022260385
0,157155576275534
0,155255857204105
0,150174705920222
0,147292243029121
0,143383580034159
0,138815887505066
0,134498913210938
0,132775097390946
0,129152468903233
0,124551625909356
0,122075932532235
0,119064595293424
0,116794890084593
0,113621091616163
0,107498569358398
0,107157677223436
0,105794373602954
0,0995516041486003
0,1012586797616
0,099605701050131
0,0972879345257927
0,0971687461729145
0,0952370807926586
0,0956914354345784
0,0958682618596417
0,0938302304114061
0,0928336141219042
0,09446070917503
0,0928506033688098
0,0925883125151635
0,0917749784930049
0,0892940877023628
0,0912635089400831
0,0950716248655883
0,0933411421631892
0,0931997495924537
0,0946090461001191
0,0921273588456131
0,0960043914796036
0,0967491061994428
0,0950885357491525
0,0975436689851932
0,0961062394912743
0,0971865108160452
0,0994507265246119
0,0987271732817175
0,0999877648337322
0,0968767958728379
0,0966277188202446
0,0982380543431186
0,101837201809949
0,0990726766841842
0,0966681028730029
0,0981210582615798
0,0955329398027283
0,0987188938228077
0,0979252065346133
0,0994152541259527
0,0988166217729352
0,100136602353968
0,100441815588141
0,100655901233488
0,101018801481525
0,101927953288394
0,103768742660063
0,104494185415826
0,105549111841977
0,103712378339586
0,106041657732074
0,10520082884025
0,108127395167047
0,10908051569347
0,110163533564519
0,108271112524602
0,108309495299192
0,111798954020377
0,111365428066639
0,109236603185862
0,107936388998087
0,111218168723568
0,113116197296005
0,111203902347183
0,115481105443662
0,117718122321507
0,119391882270222
0,115238420463482
0,115377398874384
0,12148222502385
0,123832934929054
0,122144311489381
0,124355157458622
0,126340389566906
0,126103399621429
0,129839062473556
0,132028429917129
0,134907735379099
0,136901545092682
0,139488587949763
0,141166649696025
0,137520962285199
0,141189349425011
0,138552881466626
0,144215429588419
0,146427351523778
0,140702508570005
0,142290084527962
0,137123370043635
0,139802346478142
0,146175610058905
0,137858587471454
0,139321020721625
0,136052658275336
0,136012874016996
0,137824055034726
0,139864744257247
0,142390645957169
0,143897872443266
0,142450537497695
0,14083670854802
0,146405281950315
0,142481986604872
0,143077417334653
0,148883363023269
0,144148746753268
0,143329295235799
0,147090785602763
0,142091960549106
0,140649705322881
0,144782402758243
0,144029584368196
0,143999005370338
0,144210409382158
0,143368155302448
0,140956803488026
0,146224117016204
0,150439453993599
0,145183881352399
0,146600583295098
0,153200222227017
0,14391422038892
0,146671202433468
0,150786949046571
0,144311779772036
0,150420110506914
0,156154025592622
0,147624244776919
0,150977858361529
0,152139096238793
0,153481210108244
0,152798274475507
0,155744674855936
0,154519105122657
0,159599648985806
0,151763910174821
0,151894749702167
0,157018734822007
0,156969217586229
0,157796050036131
0,161328418348129
0,152203583203978
0,156454046112117
0,159040735697602
0,158667020864581
0,162960683224135
0,16717688260861
0,167582667622704
0,161208458755791
0,162935292912793
0,164577230376959
0,158495887361587
0,1694856102867
0,165592773458758
0,165646007879846
0,169496178458658
0,162909274047159
0,171101279826605
0,174788975304126
0,166246002297193
0,168793596343863
0,170447100783843
0,169454970969005
0,176035750510793
0,179680987564064
0,177345959844417
0,184981357687759
0,173914631599518
0,183098789475855
0,18717090108916
0,171712453822081
0,178031898989244
0,186650575185087
0,186204985794442
0,194150826860554
0,190839204230306
0,197956282375835
0,187737744972816
0,196462977828183
0,199273209743493
0,197405979420694
0,200749158421633
0,20618435266691
0,201355233709773
0,211346316463819
0,205633819414545
0,211363650857728
0,222158772818109
0,217874043350423
0,21529037270777
0,21968845125615
0,223952535998984
0,233745330160862
0,230565280926437
0,231834492266637
0,224055064578752
0,243792913677653
0,244768385185018
0,235462364853139
0,234331997018342
0,246636279599882
0,240799402972905
0,233649288175655
0,244304813362884
0,256632850100112
0,249170740083177
0,238230893132975
0,246519866593611
0,242053219703276
0,241828012705047
0,254590562517394
0,243575208526208
0,234508559054279
0,255449575097152
0,268731939220174
0,257006230560199
0,244851641420274
0,231295038149163
0,249798678499234
0,244802836844982
0,243306953700086
0,244805883444576
0,253966994130933
0,262055318996188
0,252926515665257
0,254958379752993
0,245741203318703
0,243078675605777
0,253790765588743
0,24311011334895
0,241948327031154
0,255207351979492
0,258872269941415
0,241066838776094
0,249208649412385
0,241218102494269
0,250362439138726
0,253775069670646
0,255903709790954
0,260166388276343
0,261003288098598
0,262722847466981
0,266625335025929
0,26936572215317
0,274258628741563
0,259910112808276
0,263982245044529
0,256135780333858
0,275609788693423
0,258093701537758
0,250475428962103
0,264758225914779
0,267438090344111
0,263634666304574
0,273086334162508
0,290652970441333
0,301635995909212
0,267365028307028
0,259184759145321
0,260226409319018
0,275838844281946
0,308026052847021
0,303247530464593
0,262069747574123
0,297812523181961
0,299913177185908
0,278492840654407
0,293062377038629
0,298464376548427
0,2663909885534
0,284622301230351
0,305177031558653
0,316618363426981
0,283314579036156
0,292022994597872
0,293342365613926
0,284220102476529
0,320792469931587
0,30885098929022
0,276790967382887
0,301658981175065
0,338142498520865
0,319685521939434
0,29632503322445
0,30655166917799
0,298181812319417
0,328814248627086
0,320187139972097
0,319341147246268
0,35362558206373
0,325575127762973
0,319615257186173
0,34723433206256
0,309659584616588
0,275031723243414
0,314997514036358
0,340148414349953
0,285738853732489
0,279094900720714
0,335784667672956
0,289149008170164
0,27418938287767
0,32950413630778
0,312562101712948
0,353776310020584
0,337340358822336
0,362598239961119
0,380114858531545
0,307815707940427
0,299207579456042
0,359629555278909
0,290827387645745
0,330397532983564
0,314852397760427
0,358629683771744
0,367634469796785
0,313635447896593
0,303869850708391
0,297511666903361
0,317269688034327
0,383341157992612
0,277063369951651
0,323616975502029
0,390165646110593
0,377321363893107
0,426877278237003
0,275723437534832
0,334443481274561
0,297020885857593
0,286798178370811
0,457700781537572
0,413853739194859
0,30928250798262
0,377847952113245
0,32003847005873
0,246938763347608
0,311032692080957
0,343552395741617
0,322982937339535
0,277624679175925
0,442904882730321
0,268567726634997
0,290464545353904
0,522533589974215
