3596
4000,36533379555
650,420452594757
1
2
2
0,00858824871462086
0,0185174138414842
0,0158780385555401
0,0101942767865601
0,0151528303614107
0,0191544683865331
0,0183743314440006
0,0140203237433426
0,00770915177251072
0,0117800835046156
0,0111135158601483
0,0109392990430668
0,0118024251417457
0,0153111028087739
0,016831399583663
0,0185238968378766
0,00748468049860303
0,0245846218838427
0,0162217171758263
0,0168764264574816
0,016899925401054
0,0120204817960649
0,0127990401019722
0,0115652600407239
0,00389030291906385
0,0076524849302871
0,0113862594701696
0,00515688877652564
0,00326642320096939
0,0240420814579675
0,0182256445896639
0,0122730682337438
0,0116938570347532
0,020669145129334
0,0134515888146009
0,0200028424230718
0,0116201099510625
0,0212692028893452
0,0100962331846578
0,0201835396893712
0,00809433212057271
0,0134795093269842
0,0100934176929523
0,0227823114385335
0,0177631888543245
0,00342887573226773
0,0113857048093946
0,0241844680396462
0,0132359303198771
0,0123088949332719
0,01162340867165
0,0115503901266148
0,0148981621002881
0,00552769063693879
0,0159867369651514
0,0165423694228352
0,0117980808411873
0,0178059177933717
0,0131327107218582
0,00497391272315211
0,0152588668128986
0,00792657882513081
0,0149987746097268
0,0132754842551595
0,0113716714604267
0,0169831417877019
0,00646004819502971
0,0151584954474727
0,00647299905502745
0,0191254320253616
0,0048670480629487
0,0123165410537261
0,00578502863801328
0,0187224165534053
0,00766491979781335
0,0122912717188239
0,00469144715025712
0,00933829711467836
0,00983132060569445
0,0232249844216937
0,0155949004147204
0,0162403019552927
0,0120024914728278
0,0118589908097562
0,0184173937897606
0,00602828777236126
0,00946557364763473
0,0163381879453794
0,00737008531600523
0,0127881411832028
0,00324477774865719
0,0171432725733449
0,00670898211256398
0,0122389718315035
0,0133354026858054
0,00879006809403417
0,0059442731566842
0,0146425735603735
0,00398584928965964
0,0245418954115699
0,00161489332387809
0,0121884623540837
-0,000757605237399592
-0,000900099719393025
0,0209980389932112
0,0119035580208459
0,0192772460592458
0,011651855489088
0,00179786956313818
0,0129283387005184
0,0122305622440964
0,0176704119643241
0,00845851565948441
0,013428646306367
0,011396346738481
0,0261294414770067
-0,0010250241320376
0,0084749081455957
0,0166166864970411
0,0163287867748649
0,00818028284549282
0,0136595124531823
0,0146735921133509
0,0154914636885431
0,00454060573376664
0,00814937181310259
0,011998564614612
0,00764250751689179
0,000536925547327712
0,0111435719412821
0,00430921338742758
0,0126260121716517
0,0111758911538302
0,00992777463309183
0,0115212115723564
0,00591632574237118
0,0126111715289471
0,00569189422203256
0,0106255816202594
0,00469633314494675
0,00864118377627
0,0109542527017529
0,00699281338788759
0,0178498693493394
0,00957842595104757
0,0115759919428537
0,00695151976353581
0,0108481617782067
0,0119990718639508
0,0109445596719143
0,0124022530959327
0,0132554087585606
0,0172105391273013
0,0173730057183911
0,00913486488928371
0,00974046803164733
0,00312547263394148
0,0166608150582689
0,00572517770606933
0,00466077048043888
0,0110742546912425
-0,000427741149654098
0,00835951042057439
0,00264507036868885
0,0111285305426188
0,00648932181197119
0,0109409477823573
0,00842469847682689
0,00184584341989023
0,00927905997221334
0,0117088955385489
0,0107869835940391
0,00748549139560313
0,00693222112607952
0,00646623680538287
0,0106117134302382
0,013042693993845
0,0140071657731696
0,00127629167671155
0,0102388304982627
0,00902973458257692
0,00727865477839427
0,00644166806655697
0,0097373588993274
0,0170326365753545
0,0168112663338991
0,000266803900948905
0,00693007163643084
0,0078303221933334
0,00410631078445779
0,00328640060165756
0,00684530180343444
0,00576605527760734
0,0059745282708843
0,0110829887703335
0,00894430344350851
0,0250483736057886
-0,00508591700493297
0,00586835446128232
0,014082201284109
0,0104946735697771
0,0170662719165734
0,00967799273833517
0,00960201897474994
0,00744426930821313
0,0025300246323473
0,0197388273414022
0,00779393705898364
0,0141673308598875
0,0186566734573695
0,0158106304423339
0,00862879726811414
-0,000555313329957282
0,00658289340457914
0,00584240227725693
0,0122512842847208
0,0115314665687058
0,0118267633145284
0,00162786707804176
0,0116695885420263
0,00286271704445174
0,00977472878420887
0,00571527163989597
0,0120612704573824
0,0170024468983032
0,00631790370178593
0,0111205713772707
0,0118561799960329
0,00465558821465036
0,00317659999908833
0,00958832946040663
0,00456627243019165
0,000957811536553655
0,00987598327118769
0,0109280175919763
0,0029492815917443
-0,00720778839736565
0,0120581687359993
0,0125931550768619
0,0075363605453647
0,0109801343987448
0,0130841538801667
0,0152931914976117
0,00815888272230489
0,0106141015216592
0,00359476129429895
0,0169082497151972
0,00717744219586387
0,0206931936759624
0,00959526021986187
0,0107506895263571
0,00966864435952437
0,0166556548505338
0,00487752378239418
0,00934899842506071
0,00582112838144424
0,00804146574686123
0,0120755629997829
0,00729878012754552
0,00706222396504703
0,00861763331870819
0,00513128274287003
0,00861362041522309
0,0197538745915953
0,021938918172664
0,0107122309732959
-0,00913610285022699
0,00870872227089035
0,00837923958286311
0,00803665068983163
0,00954469309168124
0,0188714095836038
0,0095206675336647
0,0178783134863276
-0,00854226431866494
0,00902121574075744
0,012068931904756
0,0186414261594996
0,00866758116798785
0,00691836222747003
0,00757609249321283
0,0192922771934821
0,0222179853739846
0,00771747160416981
0,0155431574538132
0,00878860850321359
0,0222467721757826
0,00195339066390758
0,0142547864290734
0,0113146391473881
0,0118678500132757
0,0095709738528112
0,00892003834278029
0,0138338949565982
0,0108410979875186
0,00740053138612446
0,00276948644454293
0,0130598001852418
0,00925576176621613
0,0187210866064192
0,0142814600540415
0,00942007783812735
0,00582449211013746
0,0157358218985529
0,00956605839837962
0,00435446257353189
0,0105638969952073
0,0217092674023012
0,0231121206683956
0,0170586192842574
0,0135611446856093
0,0286327690804885
0,00917599162235737
0,0144744696132094
0,0134740539222879
0,0121474622427315
0,0116015792570582
0,0146590491183716
0,0111574061161526
0,0206110758343608
0,0087176481084462
0,0140422796377565
0,0120829564770262
0,0126276267381633
0,0112446340130331
0,0164393395668665
0,0187443423125662
0,0159739092862836
0,0136445563042136
0,0211052789929269
0,0180897317622989
0,0181826337551773
0,0195523830335966
0,025351700568681
0,00944007681686349
0,0208537263224839
0,0158147421553874
0,0182789752422167
0,018899594228982
0,0132918127956083
0,0193665801354045
0,0196977017214679
0,0160604473605237
0,0204514814783199
0,0188444094334285
0,024193354926047
0,0190429592247415
0,00256755736289608
0,0404718389649927
0,0209658349598487
0,0230145290130413
0,0212046463297567
0,0276050161931835
0,0305341319564458
0,023339809526177
0,0266663279212704
0,017365744616381
0,0283642055564114
0,0261122863736987
0,0305053756001103
0,0257115628676966
0,0323936591953881
0,0243603207907147
0,032096594612989
0,0263172356005408
0,033113233956074
0,0364965887027573
0,0461486056197537
0,0307406232654735
0,0296025012303398
0,036678670826135
0,0414067599382947
0,0334909830525015
0,0351526976490875
0,0264660112662407
0,0555071446660916
0,0494327598683537
0,042305714328044
0,0347701936690032
0,0370978786057998
0,0426235566393405
0,0450783566736544
0,0533707862273167
0,048078343907661
0,0478360436750249
0,0533975898571227
0,0487076171359727
0,0469542241782912
0,0571260709266241
0,0579277909971829
0,0601728086970265
0,0561683120891332
0,0605364166630128
0,0535130225361776
0,0606642747084522
0,0615409337648775
0,0776230108938038
0,0671184939510273
0,0612724273182601
0,0736256634570932
0,0720120267170609
0,0643142598413596
0,0606893286699441
0,0734175483231831
0,0675670755905147
0,0737979073508184
0,0877335783856568
0,0887799702787563
0,0800704468031406
0,0834704111429649
0,0805403832077399
0,0834517450476303
0,087698381008549
0,0869815198906237
0,0872449956410545
0,0929547990366
0,0877388902655434
0,101404431360199
0,10274686410537
0,0940924580360246
0,097651631172637
0,100817638169622
0,0878924636889723
0,103360567117705
0,0983892843446744
0,103022493741021
0,0999462495902572
0,115428747157719
0,114068541190918
0,119715323813505
0,122833231434923
0,122032430098669
0,112576658701325
0,114867662105338
0,11296227177838
0,124957094525745
0,125004231295672
0,117172076075487
0,125850275353531
0,128977741832973
0,149358080207128
0,149204511466731
0,137936322910645
0,138021568570564
0,127738579964457
0,15571843610255
0,149568464816427
0,145986087386266
0,143731348665778
0,153366394468612
0,149678303409379
0,152737775197048
0,149570456095443
0,158890672428868
0,160909082745586
0,176142029046061
0,177648317726879
0,17416397692169
0,172626609204836
0,1738230326683
0,172654611304006
0,184026383241846
0,197635063949469
0,197298875584367
0,178791310948165
0,177055225641893
0,177588670798855
0,196808148246881
0,194224593972754
0,207620326218966
0,206690486184114
0,213839674854174
0,203852044898504
0,217059360184564
0,212821968363998
0,228126702423512
0,220045792625554
0,217656254210542
0,230653708447284
0,235455695695642
0,232637372312733
0,239450187850535
0,240684850986133
0,236650295450247
0,231396195221516
0,24940235960339
0,237001134608199
0,245335008112799
0,26436497155286
0,245646761663294
0,259154196958607
0,283064310146573
0,260170650192997
0,258779885206604
0,271592245976512
0,273178108657735
0,267688638094559
0,29593495423947
0,282159210223939
0,293698982183718
0,293955423131001
0,281395633851028
0,290020915303663
0,307175126937307
0,311499394339625
0,300925344407727
0,312147385699925
0,330083486819038
0,31958692219026
0,323606690662551
0,31735416159014
0,338455307984975
0,320264566272067
0,337025522729087
0,346690724144366
0,338252161695597
0,337610486104239
0,346308466111324
0,34403270055693
0,354859512005239
0,34839042765252
0,361239102313691
0,367478302603787
0,362878100441148
0,372099932297625
0,374518962374904
0,380190852279437
0,378990969947517
0,366723111550045
0,375027754185699
0,385661751678342
0,38419369366748
0,379690136874581
0,385857019260866
0,390663726598567
0,394206270619421
0,399602985276958
0,403999330313353
0,408300199685055
0,431336255159231
0,431061815242458
0,428454767029595
0,407541691883154
0,426564778458942
0,43619802308921
0,43201031273653
0,440547025565385
0,449908176920577
0,433432986774841
0,43098324694053
0,453768558949595
0,44738102958468
0,454615274654552
0,461595902770405
0,469682336666343
0,485343873238384
0,477813513316356
0,48892169735966
0,475739320165185
0,478289223657191
0,49492993844195
0,487580756813609
0,495093401617557
0,504213080066361
0,48737523167471
0,492466767625432
0,49780024995439
0,503692443859291
0,505726297797946
0,516054861467348
0,517626634858982
0,525661880034982
0,549005816431621
0,530979430986811
0,513793670297684
0,529036745582937
0,521646548622277
0,529447031253898
0,547217143247258
0,541805584396959
0,566063695254644
0,56707236351832
0,555121068553339
0,567118512179157
0,55333034513875
0,567839564832608
0,585832940721488
0,577295124341715
0,600513248774887
0,587135066290029
0,568912796179575
0,574732338416495
0,610322484002425
0,625169311563513
0,62485289490947
0,618505940065014
0,60147264916917
0,612098809557075
0,608114015460401
0,592519160048789
0,599811125671846
0,625517133341339
0,610931590280036
0,611543590011687
0,630513566913565
0,606562372672657
0,618787494815534
0,661520185366236
0,648414797917977
0,624672663097424
0,631716971310735
0,648900516770558
0,651972692082603
0,659599887610059
0,674523341742189
0,653577200260901
0,659760438757876
0,670641075109889
0,669424556273253
0,659383335916344
0,68189872491211
0,652421662824122
0,687225316539057
0,710384341006659
0,690654817522384
0,671673454378579
0,675383972391098
0,687874717646429
0,69176229428289
0,699763766406252
0,698782078373106
0,706959461641515
0,727530641838032
0,712606024842318
0,722357443064586
0,684590415174332
0,666221116941712
0,684997067226427
0,701421179069825
0,705536592975941
0,697678208275297
0,719050964082642
0,738116505872683
0,710683446254862
0,755551401945489
0,757992890489117
0,745898021855859
0,732939232092935
0,740403713042913
0,727112993186755
0,748580068967009
0,722391432568187
0,743208395684966
0,777047750410958
0,768514340814165
0,790305519708105
0,812209253974687
0,790121040339607
0,772042811905871
0,794361491376583
0,777232692380338
0,742905712490016
0,740860824509888
0,747104829386707
0,77349833058522
0,778085205677648
0,770458949783317
0,785086854815671
0,817164449360093
0,797189860081041
0,772000280322898
0,78489806128388
0,800131641959863
0,770116446550236
0,790999872899953
0,778631680356816
0,786067511207409
0,804706400818964
0,813129254444929
0,802961669793161
0,822473825012196
0,794870622884608
0,8382757124472
0,819891619994155
0,802248390472406
0,792686420006097
0,779077181654518
0,783353036763971
0,807542072220435
0,817974570105343
0,822204290683672
0,815804331639658
0,835093803049252
0,828817221707403
0,82510112812974
0,806022843154691
0,847923179712182
0,825271069073888
0,854392305453714
0,838162748388488
0,848459828456228
0,831344006079202
0,841748471508712
0,823613129447922
0,837855107934058
0,839253492317121
0,816589423339912
0,826614145134632
0,846009773366812
0,838259838451732
0,857109166428868
0,840869345545861
0,873584111960873
0,838506949036548
0,866687022887834
0,857028641093533
0,845056960088321
0,834055315042652
0,833256552425565
0,83789143818336
0,812140899134388
0,809556408145374
0,85775918874713
0,836564278483137
0,873070809996259
0,848500685031303
0,858268768619937
0,84900511352543
0,84806154520628
0,8339402409266
0,870963961242226
0,834228804525537
0,877027300749907
0,854168579952767
0,82695800408092
0,819647413725909
0,846341302282952
0,822128402774223
0,841486489717189
0,84375415341283
0,847802600419102
0,809635726211554
0,828626487359324
0,819774150087929
0,841417927253768
0,866524324853014
0,855505906094943
0,846522162973634
0,851698601834334
0,826308141591086
0,841172092754522
0,842855275352609
0,86562357280475
0,839267211809319
0,823443683528205
0,851290231533363
0,834572794683447
0,843489001573069
0,858892311666664
0,845389947869236
0,846653557288274
0,836498090632782
0,850325370066275
0,835910403553464
0,853303364771812
0,847409980304253
0,837476391085091
0,814819766236837
0,810521926630404
0,810091734303377
0,826213896688592
0,82483731567889
0,859259603857765
0,847587291510863
0,825373595772488
0,833167650436033
0,81566412567274
0,783668904123646
0,836368635807399
0,839759969356465
0,842086873880123
0,804390476743711
0,815633045040898
0,839903871828479
0,849875099624547
0,835625883218589
0,826784990946376
0,801417534675857
0,807151335397124
0,812066319847
0,810846103982255
0,809223932142664
0,859839945521406
0,826848752151567
0,816376662841641
0,827370750608847
0,8202982550447
0,800649429308477
0,812073643182084
0,804684007117162
0,791847077569821
0,799002257813868
0,80147356152066
0,801056684724569
0,794791090565113
0,795422094531952
0,81024196400959
0,786942306653772
0,794932134210565
0,787525849142979
0,790054659907325
0,787267851211402
0,823432852678262
0,772381381339507
0,791761722966887
0,784466584878341
0,786778048845148
0,771936023458846
0,772230016994684
0,763890640290845
0,755507576911321
0,761359860234025
0,761311893203116
0,76437427533139
0,793410968206282
0,765246262346702
0,7624022725568
0,737972788558413
0,767606433588804
0,746512865679845
0,754801099791667
0,754459199847971
0,736225342427934
0,752658368765985
0,751519955100276
0,752387385092359
0,762187158537129
0,724794323390618
0,746851196867172
0,723635754204658
0,752866490537875
0,732362447432187
0,732387551359495
0,722443600466595
0,71800476868349
0,699621375708097
0,71705944618707
0,709203740520708
0,716981695142407
0,714337571937855
0,720770411896995
0,693653305924285
0,711843573331533
0,696014461205497
0,703156908147941
0,709367319968187
0,694567085878374
0,700997563042301
0,689125807716171
0,694211549872725
0,701905682624787
0,693900446976505
0,665668144139957
0,655522406334606
0,657188297737816
0,655343006986084
0,661211192994958
0,662846395853341
0,687489711874402
0,653655555987191
0,658784290335595
0,647480615539554
0,661345151643207
0,659798256769304
0,640812659859574
0,63646215737656
0,652010109055525
0,632769452705409
0,636509322392889
0,644359252818275
0,632034907359072
0,620219172148476
0,623061314419897
0,613998051192396
0,635491659941891
0,60696369414045
0,599959704023388
0,600286156407924
0,606434991741905
0,599474516343148
0,61286965757376
0,613687406680453
0,595255128884453
0,586999718176648
0,601262729138261
0,575787971280831
0,600896644896307
0,593765474420839
0,579306253185667
0,579224548276019
0,580110771305816
0,571812924587847
0,589296977851979
0,547136746281494
0,560339751251954
0,563830774087022
0,551453097456177
0,558732163325499
0,556582488795313
0,535759321640959
0,537775423755805
0,540891368384496
0,53671298883418
0,537568112746368
0,54543000056041
0,537081191715517
0,5454620718241
0,527703140297312
0,53093844604089
0,53234185944176
0,528048021820187
0,515929672929002
0,514570964351919
0,503195443359469
0,50441398410201
0,499937968499664
0,508701268231057
0,510213434848898
0,493155586867314
0,483243170303946
0,497877652889936
0,490697092421268
0,483044136756458
0,483483029127938
0,484189646707454
0,475325953857135
0,479250098931006
0,463400637235575
0,475221509015107
0,467931279086769
0,462927545616551
0,457639596060579
0,459962714601543
0,45537368610643
0,452375702586403
0,44401873166208
0,454423683384967
0,456576775523609
0,451088378604869
0,446509387785625
0,447319836259917
0,435748801249502
0,43758594671524
0,429468312109797
0,434561761302517
0,420955461431954
0,440755193666442
0,424560642504988
0,423925852008354
0,415657475446935
0,417742259708729
0,408845981809655
0,415436062294083
0,40910565948356
0,406306116015221
0,406718501164576
0,412407543581197
0,399776151793597
0,400746024656365
0,393782577221491
0,396807917910194
0,390790952061229
0,395332495848822
0,383537662731116
0,382574046516193
0,39289781375581
0,386400746807882
0,377666412968727
0,379384163744039
0,372116442463654
0,372649287803801
0,368583340511783
0,365797029477224
0,360984012091914
0,367396151616171
0,35504534804147
0,360984776872707
0,357497474647847
0,359027351599805
0,345852707600173
0,346863735405522
0,352781935203331
0,345553274738797
0,34426951088391
0,350164079663688
0,350125495166162
0,345983461055843
0,337409321809345
0,338359853605839
0,336421798266551
0,333374137895083
0,323959764991992
0,336253126713239
0,323922087445506
0,325303635473271
0,319670385153672
0,325648809611083
0,320591675161198
0,323538090750499
0,311281248807263
0,32290473736601
0,30648905839102
0,311900874883162
0,302479368157228
0,303346548283111
0,305421437052242
0,305687620182755
0,301515980275277
0,296146081180742
0,289996320971893
0,301218179836649
0,2907423366418
0,295999025455171
0,291658481346525
0,292878140283582
0,295116826247502
0,289742155238898
0,283425486670276
0,281857532242093
0,279405787877595
0,284132388299553
0,276695276982164
0,279926824901814
0,274365334518793
0,275162163014462
0,269862930804748
0,268249877574261
0,268429820286871
0,270309056122603
0,260404174763919
0,263222967777054
0,26527444226384
0,25459594113254
0,25486683144641
0,25365554484901
0,252011483052172
0,248115599876456
0,251526927315618
0,252411150835823
0,247958553601816
0,251163502136954
0,249955628061691
0,245240369491761
0,24322756463315
0,238520416528789
0,244810080159568
0,244271582449938
0,238791644038088
0,237476141449036
0,236724082158971
0,24041878461033
0,232745263421557
0,23611158068534
0,236130833759169
0,237959668003145
0,227502069825624
0,2343017701946
0,238298559613532
0,232471212902195
0,234691985442179
0,226403510458809
0,230861548774556
0,231933190096868
0,221641902245467
0,228687850087515
0,22339872090224
0,226729010449647
0,22763447354756
0,22603398531726
0,22648338942779
0,227590915753993
0,222899345426224
0,229363353258802
0,225880937799174
0,229190847153
0,226928441715064
0,225817032674259
0,23138399152675
0,234546702532248
0,222897428337754
0,230464100282735
0,226192353962547
0,230614976365295
0,233869071864812
0,233856056328427
0,234550189493521
0,241256265801047
0,240898595326951
0,238584028239262
0,24190560053374
0,244485527146039
0,237299190972264
0,247780420860707
0,238736361384786
0,251914489580097
0,248300539623706
0,246088841008814
0,255309687527156
0,25135835937764
0,248691754743407
0,256728828256904
0,255027297132302
0,261643682703348
0,257401731230371
0,266835335450765
0,256149646233849
0,269934339446306
0,261085591123633
0,27308973741487
0,271370535869568
0,267743614539272
0,270287869648451
0,276552138637495
0,278048378157944
0,280925954359227
0,279820170700869
0,286786862716796
0,286083951360765
0,284820088591636
0,299082340583592
0,296336419312667
0,29757243648105
0,3013869118844
0,304044480126654
0,312449108463098
0,302671464903381
0,306750626156801
0,30912107732029
0,314387444680086
0,320078646418799
0,317553843748357
0,31268337768472
0,322687813350746
0,331761520118637
0,330876148329301
0,328896534085275
0,33576494265864
0,329404596662496
0,328272292920227
0,340942872594087
0,335125203023246
0,326860086060989
0,3316962797966
0,335345181545435
0,338794515232457
0,34132036617004
0,343201663521886
0,331901280366584
0,339445744922642
0,332276085650419
0,341477067468894
0,333528827194773
0,332460386849234
0,333837154496732
0,332355222200994
0,329680869508489
0,337925275643875
0,327532369156995
0,334463830332118
0,335764659118994
0,341562519840932
0,334578362806712
0,333993502038387
0,330884601015186
0,331112161869863
0,334625498351459
0,336833165380966
0,3329149475346
0,332509692981464
0,336169902677035
0,339691178527481
0,329158078343798
0,343935341512413
0,33332563793373
0,340144011864052
0,33994822842092
0,332924283780522
0,341536707105115
0,331911251959249
0,336022966897656
0,345833068416034
0,335964049821114
0,338668393231291
0,33776546880672
0,343121652297711
0,333721108908155
0,337637031931922
0,337022255454975
0,337238782639227
0,335561818693565
0,326105461934033
0,331401726857527
0,331932895779866
0,32875099007197
0,327187773494049
0,32734261444108
0,331914144322015
0,326711830919845
0,321899190707948
0,319202658311416
0,324287801772984
0,311162870202881
0,32184475772323
0,311741331438873
0,318309076571379
0,309733083239655
0,308723002418682
0,312438513117504
0,310436174846527
0,303013339036836
0,298749806450241
0,292018799432186
0,29268560069283
0,287454787557776
0,290959610003959
0,284430200639911
0,286745841193777
0,280681698302462
0,277128467916667
0,272195491765255
0,277328153758582
0,267550156008384
0,273766462237398
0,264739965633754
0,268280030862736
0,266638334803723
0,25908240651187
0,255566265891938
0,255581674704296
0,250669171915328
0,24901473223084
0,252913774514085
0,248043213420766
0,242182185758457
0,245575914861255
0,240263495900989
0,239396628533465
0,239181919432546
0,238473470447309
0,23160142658122
0,228882249426216
0,226940994609848
0,229682175893917
0,225891898110475
0,218297982878385
0,221820103809589
0,225841341675782
0,218683412756189
0,219570155850333
0,216585485762497
0,217650294252099
0,214509500123634
0,211809772181057
0,21006935356634
0,211039370799454
0,20470893420935
0,209767470658517
0,208529892723733
0,209123609139321
0,206539436793812
0,204355052118644
0,202863179198735
0,201324178216981
0,200165606606111
0,204658095880416
0,196938013615727
0,200973764459995
0,200142604834427
0,197407806445802
0,192683046300233
0,189517394944462
0,194014993464002
0,193772465819728
0,190446748599981
0,187917449674533
0,188463649716539
0,187544912033497
0,187054658282815
0,183848159221258
0,186756998728657
0,187364979489702
0,179579777260564
0,179706026654343
0,181314546886495
0,186008293939307
0,179769529412051
0,181928080488808
0,175722730140553
0,176802244713529
0,176527043131656
0,17585919024155
0,175833102600044
0,180309692529383
0,169578304654152
0,177735777296269
0,179009737794045
0,17652644193541
0,170306584995686
0,169408427074121
0,172009960687702
0,174879500442034
0,168338606645613
0,167879416006825
0,168852578465727
0,170556784850973
0,167981545712573
0,166327134591405
0,167704795431028
0,167362667795803
0,162982592207208
0,165437013631221
0,164138605653126
0,163138636021873
0,161442012308886
0,161676676413719
0,156361738369864
0,16300091572418
0,159092521076584
0,160678911635701
0,158545543587169
0,162677794611632
0,158239757565929
0,16174622780711
0,155847853557658
0,157794280365118
0,155934354713663
0,157616939575925
0,155701621254925
0,159127344074109
0,157048856415459
0,156814375352848
0,152989006755624
0,15487951053861
0,150946510189407
0,156892805433598
0,153181496538521
0,154023184939047
0,148255306120343
0,154504880737151
0,149394348028003
0,154237907640272
0,148925241806096
0,149569307598612
0,148239468035347
0,150968339217739
0,149935935310326
0,147370641327741
0,148530725575961
0,153281337532373
0,146711586746082
0,147659074039217
0,151197317571509
0,151486345832575
0,150810461018571
0,145103190539899
0,146220029168567
0,148651928762933
0,148028279018145
0,144636421208088
0,145650458696607
0,145222833198823
0,143296417922215
0,144836179729097
0,142163423099373
0,146431485272582
0,143592834849786
0,148165337322068
0,144763849974735
0,142219307529707
0,147175953766239
0,148423083319381
0,141415532975102
0,141667417432641
0,139308690093085
0,139007428146655
0,139974703445712
0,137338712468557
0,135854453167461
0,142915490542417
0,135490342745394
0,135938921450666
0,137864556369297
0,139233052606618
0,136267575396208
0,138556178156467
0,13967628913761
0,136328298690631
0,138180187631704
0,133564613953265
0,138608817584419
0,13117774393936
0,13139884420238
0,138224060540962
0,130733079822483
0,131777692459732
0,132646960626271
0,133130568934475
0,133484677745318
0,129481938805725
0,130352203042574
0,127335685190247
0,128098175848257
0,128595139978074
0,129111845369771
0,128371375716176
0,129727355443232
0,128767399032961
0,123805542157945
0,123397908120171
0,126840879307198
0,125156403147057
0,121988940687395
0,127547846096052
0,119504385593663
0,124842122927588
0,126258469804753
0,12054618071473
0,125591425028967
0,124470212432504
0,122463833158462
0,120747837582352
0,117330951479436
0,122559377502033
0,120589620787202
0,11835134991084
0,115283353095563
0,116372788177225
0,116929301186656
0,11703820763892
0,114487098994333
0,115336311416757
0,118537418267035
0,113857313362476
0,115517718104671
0,114282374899514
0,112935878111662
0,11168259218222
0,111670922586433
0,113792199990628
0,108834566023242
0,107819039573679
0,103785836254527
0,109873701142802
0,106737762011698
0,108008837943085
0,103254643156268
0,10356317808215
0,106689639581363
0,105928729075464
0,104833697643027
0,107880403636297
0,101473239322215
0,102609428913602
0,103529414922048
0,101243872342728
0,101638445569038
0,104151014480629
0,103120684696468
0,101377667823568
0,0997825927716926
0,103444192177785
0,0961656755712846
0,0992473684350655
0,0976506149110813
0,0989122681459521
0,100311398487243
0,0981935692217928
0,0962744107800235
0,0973401423002325
0,096440130799737
0,0942185393397528
0,0946750733554472
0,0940423902335815
0,0909250121931773
0,0926907813340786
0,0926587504355207
0,0925037094187132
0,0899027315229462
0,0931612299053356
0,0891585486938195
0,0907029676521655
0,0894901165885788
0,0927433639775741
0,0901304240605791
0,0892320252838665
0,090154398028203
0,0913012817883578
0,088927515473757
0,0883277403382086
0,0865280534175055
0,0849708564359503
0,0831377800520097
0,0890627430828199
0,0858421883870756
0,0849182576708194
0,0863997242581225
0,0848829505895554
0,0839751299878751
0,0863189566021079
0,0836117489441411
0,0803037679302615
0,0840400591675098
0,083012760897374
0,080608718279016
0,0827717787166222
0,0793129350474245
0,0819313102292526
0,0773506644484412
0,0809502137836584
0,0807846545287861
0,0803788739063575
0,0828206440352372
0,0807847248206338
0,0797550019275597
0,0806586220804389
0,0803280096741159
0,0802360098002927
0,0787991296770763
0,0805744638842489
0,0758868706198855
0,0805944197842168
0,079209411252894
0,0780186797903026
0,0795937422363033
0,0774559452074103
0,0751539235129553
0,0768844477833092
0,0737316052734445
0,0764811468722522
0,0756284944448059
0,0767510798472252
0,0778858737538559
0,075446546498878
0,0761609549517228
0,0755459851920322
0,0739436875585257
0,0722820802452981
0,0738357128142926
0,0750995201026905
0,0704665311663997
0,0757797563537724
0,0751037211192052
0,0756368816463937
0,0744682878801831
0,0752771064357802
0,0729050867908888
0,0752638707465093
0,0728073144780867
0,0723675408926016
0,0707630600567348
0,0733320408940771
0,0715704503280209
0,0706050356831601
0,0726740209320235
0,0731089877048295
0,0706962829656831
0,0706300057713276
0,0705517629157727
0,0723478744253773
0,0701831784443196
0,0681054006382112
0,0674159128659546
0,0680942903664334
0,0714193033683537
0,0694908505366949
0,0673026646473818
0,0673171927201465
0,0701380634149099
0,0695468625934635
0,0692982906935336
0,0653343758198505
0,0677112891121353
0,0700763762546461
0,0669573267325194
0,072790451607806
0,0696081274811634
0,0694016682546891
0,0656965589869287
0,066434721655592
0,0695215152144802
0,0682131974743093
0,0669809461070802
0,066165933547493
0,0664118600234439
0,0636143825188386
0,0660635652698982
0,0656165218774961
0,0649652710142181
0,0678625888922211
0,0649815533697255
0,063650998459689
0,0645118247870699
0,0644952922128579
0,0621935619828332
0,064395348332423
0,0662567533774018
0,0645443365474777
0,0629823644039534
0,0645618200722268
0,0629785978333943
0,0643828767651312
0,0638111210390977
0,0638158146814233
0,0612813875679751
0,0617485175205085
0,0653465867679126
0,0615308071334313
0,0615974333361719
0,061438621652792
0,0619395670158257
0,0598847082607335
0,0616725090435202
0,0623449434846216
0,0610577237622325
0,0602011423298645
0,0607616512721137
0,05726131353282
0,0578053907300507
0,0571068793779741
0,0574784351529831
0,056011772277008
0,0595319505553523
0,0586370941430969
0,0579946139089824
0,0565413447796113
0,0575944769917173
0,0566011784197905
0,0559614072286531
0,0560038473784114
0,0555258130694724
0,0566227267667951
0,0561012832387688
0,0537042088182189
0,0558343044718008
0,0551924831334852
0,0537933414114426
0,0560765743179887
0,0560447318930607
0,0546332689890627
0,0539438329901589
0,0559881983614183
0,0553272471964031
0,0544559990027244
0,0558245682719109
0,0511854089861139
0,0505576121795601
0,0546485562827283
0,0524645605737767
0,0507894738068407
0,0502845665972879
0,0504082777270037
0,0499727349528083
0,0504425393105093
0,0502284309586638
0,0494288255349419
0,0514229085971227
0,048613693970753
0,050982836561568
0,0510212266017211
0,0495059037792419
0,0493948322345968
0,049908599808887
0,0488325314197585
0,0469348350065367
0,0478223687581388
0,0486783522149416
0,0470837186438867
0,0455093288169544
0,0473382679301809
0,045823120253546
0,0443147112551449
0,0469107157147919
0,0477024758641583
0,0474243349333571
0,047041489087059
0,0467425582734429
0,0462175902462996
0,0479155398474705
0,0455520610681855
0,04519326486262
0,046922709413812
0,0457794878395679
0,0441796317251094
0,0447040503153534
0,0418655945981423
0,0428353641900431
0,0449316819324638
0,0426540822599708
0,0442555460653105
0,0420555112714123
0,0437230196453015
0,0420361776189818
0,0408275740305736
0,0431370545791763
0,0429376672952142
0,0406370283507076
0,0418574233496109
0,0440279619338824
0,0422749409256216
0,0411217754331663
0,0401137601515452
0,0410123408374719
0,0406697709570014
0,0383941865537136
0,0400243738685431
0,0395357403875835
0,0386446445121886
0,0382991095702185
0,0402399680004828
0,0399004474119138
0,0397756309215799
0,0380670204889582
0,0396783566892094
0,0414681061066039
0,0372755120038511
0,0378501612821661
0,0385641200083379
0,0376072827965905
0,0377774246687563
0,0393330029280488
0,0361212294847157
0,0379534696150877
0,0386073416526547
0,0388982513566736
0,03988643212585
0,0393312759569939
0,036314898552635
0,0385926869594997
0,035706042593792
0,0379652304691338
0,0396827025636668
0,0360134594044766
0,0365361859592614
0,0349386111201365
0,0336424990804918
0,038158791369346
0,0358068034550453
0,0325728552948207
0,0369091986197193
0,0348785574354206
0,0332587127402237
0,0366836631629929
0,03787738404031
0,0335008348728905
0,0346944446926145
0,0334640363470975
0,0344411938034615
0,0369311787787383
0,030456280511723
0,0332021404183281
0,0313446934465784
0,034145297471342
0,0336243817559858
0,0326345909906974
0,0305408281242
0,0377416200613103
0,0364378480121694
0,0361481272311044
0,0325375944349275
0,0353672340759335
0,0315315132450997
0,034172242580235
0,0310412228505597
0,0357764994887523
0,0313335754529645
0,035506968602235
0,0317100841791081
0,0306955046500708
0,031974469224982
0,036502533953433
0,0270197817011377
0,0377171283613392
0,0336481658485644
0,0368198428861035
0,0333262728095065
0,035653132176689
0,0293296380327515
0,0376988098986756
0,0254000767193905
0,0361220174205582
0,0296677983049727
0,0370612979316006
0,0284152079228523
0,0353350819003079
0,0311368327991702
0,0306948247890315
0,0296462652553805
0,0364954816644542
0,0282266136845572
0,0334951791597584
0,0309445305710155
0,0324948440420506
0,0315977868732024
0,0298758148630543
0,0322225845642847
0,0268111069771009
0,0352527409014704
0,0280752916878716
0,0357858832956137
0,0250156121035047
0,0347022610309252
0,0282667674353
0,0347325183970924
0,0287044939466355
0,034620755842275
0,0273783176085882
0,0333330878101801
0,0313260950655327
0,031945655919858
0,0312557780089556
0,0295473719433263
0,0330696666340349
0,0338890606197123
0,0290064084923402
0,0319148068524283
0,0326403847870036
0,0321241768894241
0,0282924723412462
0,0322899642424594
0,0302867117002764
0,0291652040923297
0,0283177400666739
0,0300929806797314
0,0293883699058273
0,0324170287318818
0,0295463392320201
0,0300270465982309
0,0288527202841077
0,0321387004608077
0,0307856739328721
0,0291334354701683
0,0312656651419367
0,0319980845537373
0,0294530812411099
0,029101888020141
0,0304536407248675
0,0330667325188463
0,0307879652317403
0,030359302906272
0,027609387522422
0,0290116259426308
0,0298849498103313
0,0284726155969309
0,0288568606295754
0,0301993472032332
0,0286118387133636
0,0311054740921296
0,0287123938601597
0,028883693362092
0,030767160548211
0,0312506274554289
0,0288320125805456
0,0299521200028481
0,0288561335233354
0,0303740042513884
0,0291131225729399
0,0296308775727042
0,0301399248408885
0,0302650335212678
0,0286726123382651
0,0314229637179727
0,0310833279157533
0,0298667375055913
0,0293205014825871
0,0310085646728564
0,0308678118682873
0,0305440664465408
0,0290763595851193
0,029161111129762
0,0286028091483665
0,0310341144132582
0,0291224346171262
0,0301101865169796
0,0297499139383117
0,0283370363260099
0,0298046629964572
0,0311800589641618
0,0275699695563087
0,031544087633285
0,0314906343756649
0,0296874798678203
0,0274616840759036
0,0299580028103853
0,0304114977305211
0,0301255674433692
0,0292323928599643
0,0323516193825267
0,030474324515808
0,0300526476803549
0,0304969985284068
0,0294951925970889
0,0294332724161491
0,0302404125780986
0,028998989335835
0,0297173150870814
0,0303332510145228
0,0302868182625333
0,027821908078502
0,0327124582824716
0,0312324665511782
0,0306029170212237
0,0316174730659518
0,0304716165105452
0,0297790941997028
0,0308795110566557
0,0285883987963385
0,0298426711670899
0,0308360249375276
0,0323471852601017
0,0319630000955479
0,031333649627482
0,0310039124349861
0,0311666754588954
0,0299692502936556
0,0303007537528314
0,0303864488264142
0,0318796976890965
0,0311450390074489
0,0309492702219437
0,030010205033268
0,0307616273737352
0,0293102037920359
0,0319257835689687
0,0308910709001141
0,0311279649376809
0,0313374209814541
0,0310624538608278
0,0316378062975227
0,0330257141119712
0,0309933389578956
0,0324243578327397
0,0318685766506899
0,0315737809978623
0,0332412410230008
0,0326264415080958
0,0314384864151122
0,0330969933886001
0,0296268817978563
0,0320629664843384
0,0322614113767672
0,0312111721448287
0,0338095174706347
0,032940876538292
0,0308281984372565
0,0344880887811273
0,0340127739931892
0,0332241506143274
0,0315803871706991
0,0315122825974912
0,0316865911327268
0,0314103578647039
0,0330696712784167
0,0317303210754326
0,0311133422303216
0,0343490654905475
0,0329099265016371
0,0340949150269466
0,031864406088286
0,0317445749171363
0,0343532837229603
0,0336839694187584
0,0311622073552911
0,0312683208268782
0,0325940258693542
0,0340992710281853
0,0343675693828054
0,0330999221682079
0,0323783123480429
0,0339212599780677
0,0327954058801689
0,0346110239898342
0,0336156945913008
0,0333213637534649
0,0340296199644051
0,0363350730502692
0,0330877468422985
0,0327488677016632
0,0338641110825087
0,0341587573186883
0,0345523114839565
0,034568156343115
0,0340314392558804
0,0328952124818365
0,0320194151922323
0,0346540948465014
0,0336903138686429
0,0318929081981515
0,0314604339359005
0,0320110628223726
0,0311482408802806
0,0299159996736781
0,0311552321311876
0,0327251891763663
0,0309824580865973
0,0333950461880853
0,0321514721217891
0,0321788108353711
0,0302356041618033
0,0309199577983348
0,0328709852306304
0,0304161936546579
0,0316942986017837
0,0318099501403485
0,0307265936496215
0,0327793473792396
0,031231276960881
0,0312191925031375
0,0306900308532418
0,0313704300924909
0,0290103738724627
0,0295281763718509
0,0317000925358607
0,0324629898448262
0,0314531691670659
0,0318435625696957
0,0309204260018362
0,0297546186959196
0,031605090117364
0,0313332192193334
0,0322047027478308
0,0317406698322624
0,0299818921713567
0,031596487515832
0,0301492136898129
0,0291740804672501
0,0290267903747221
0,0289963063158222
0,0284176178060925
0,0299981195007459
0,0314185390577063
0,0321427421972798
0,0305978186797401
0,0298165439730018
0,0299273102692199
0,0318591198651667
0,0301478705498375
0,030096869452982
0,0316629742196068
0,0305138554611838
0,0287101359451426
0,0297541498217249
0,0280852261706643
0,0298469298819068
0,0297570768689687
0,0300445607011288
0,0291008532638479
0,029848809678745
0,029462667154932
0,0310080450607573
0,0299784181632361
0,0296829336082794
0,0312446844297606
0,0319797554062967
0,0302061048921937
0,0305574041552815
0,0308952457273255
0,0300696588766962
0,0314872029901852
0,0298333720490172
0,0274098246059899
0,0310308017497996
0,0296188052974176
0,0278243637799869
0,0275703405897224
0,0279766676617742
0,029607499412181
0,0300751163618617
0,0301464466732274
0,0318046829660013
0,0309281209272604
0,0279916657807994
0,0281940691590458
0,0284925697075924
0,029988775232472
0,0311035477919942
0,027907766640429
0,0295753729887699
0,0315951257522382
0,0308075579757204
0,0284698439726516
0,0276070380844203
0,0276169693090202
0,029840157978636
0,0302684598172733
0,0299161803491741
0,027405771300095
0,0277868367184475
0,0273100010801349
0,02867052632257
0,0300008213478536
0,0297557784308217
0,0281168348922134
0,0300652476547805
0,0281719329449353
0,0267711051188718
0,0276954452427187
0,0271224795778673
0,027604631183232
0,0292328294080675
0,0278600232126519
0,0286787416032174
0,0291953591628411
0,0271813063649593
0,0272173270420579
0,0287343471628687
0,0279755710167182
0,0290305170727914
0,0290679243105068
0,0295421082396895
0,0258009521220808
0,0277280995806535
0,0289931289382984
0,027542996051731
0,0265317747492986
0,0263595444159077
0,0274818549691005
0,028116636614676
0,0260433572582189
0,0271802610188961
0,0273272370690236
0,0264763366782423
0,0259278810503053
0,0259246883935972
0,027838929467083
0,0278275515231204
0,0259320010386469
0,0240771611983906
0,0233343419492054
0,0253189173653683
0,0270155163949187
0,0258323175563167
0,026694994997126
0,0265311719886692
0,0243762442229428
0,0234814903636391
0,02432799883776
0,0244148411854343
0,0240973321511558
0,0248301067381698
0,025211760683628
0,0262406552383451
0,0243634407643523
0,0225537531300052
0,024953509189926
0,0244643606306214
0,0252449058484522
0,0220245175282367
0,02459382658048
0,0263264033253616
0,0238752885992489
0,0247303648528924
0,023305727026374
0,0229145600429994
0,0227903414693126
0,0233009412420671
0,0240225282477167
0,0229503066638542
0,0236223038143776
0,0229949187684433
0,0224587090990887
0,0235499471674954
0,0245869878328737
0,0241829595739606
0,0242727052809512
0,024178510020985
0,0226372774577441
0,0215995416595359
0,0228814069696116
0,0256119131094089
0,0247149535106399
0,0231821032661935
0,0217672156784181
0,0243122114133321
0,0228017242338035
0,0233396061048315
0,0207625913712259
0,0238539611386803
0,0217257442610988
0,0223728498722238
0,0230710239244656
0,0220854814680963
0,0230144120181649
0,0241074511550861
0,02314696491286
0,023302073166146
0,0239807186487291
0,0215409944296834
0,0225353826854158
0,0248007550386151
0,0230753891727291
0,022097267878083
0,0220688403457234
0,0221473822034829
0,02169346506691
0,0243580198714261
0,0210749446503741
0,0232290016463058
0,021239339436137
0,0213575308673817
0,0224115094982219
0,0226607164457329
0,0234241766020683
0,0241185647010078
0,0218223529490912
0,021743527814169
0,022572832068983
0,0212767282248547
0,0211373005509256
0,0239487032126278
0,0248160572758639
0,0215185873813636
0,0210331754629482
0,0210222787446777
0,0228845834080298
0,022929403204236
0,022074384102641
0,0225797122155486
0,0218938150404361
0,0234441863811166
0,0238890613168108
0,0234187970498653
0,0224712437722778
0,0201235602062946
0,0207239699044158
0,0205415291037511
0,0233581959094422
0,0202731235794498
0,0231160714516382
0,0211143239699747
0,0201613137128125
0,0213107089779265
0,0256030808647166
0,0226169037457702
0,0217103136653146
0,0204202635362728
0,0224066564658721
0,0225623484329537
0,0207714370432048
0,0220173164032262
0,021940339680162
0,0231347696906079
0,0238213914318695
0,0227339380019473
0,0221684717996107
0,0231468170061533
0,0224931661881133
0,022424710445181
0,0225653205357263
0,0221774501503108
0,022232364251674
0,0190026714163372
0,0223433691078739
0,022573512125367
0,0207855165944167
0,0207716797867006
0,0235329421714885
0,0216477513905367
0,0208922239939439
0,0238595689078578
0,020123217460377
0,0214536278648927
0,0201690224168461
0,0235181284500912
0,0217669690891993
0,0214803954183964
0,0209467814104572
0,0228687544573067
0,0215878458568137
0,0220049688098897
0,0204206963640072
0,0209629121123184
0,0226340929639956
0,021190041810045
0,0236206051863885
0,0223958463717995
0,0207884604222375
0,0231430793485282
0,0217552849605963
0,0247506290042435
0,0222893823168652
0,0226867792565753
0,0228587657663973
0,0229772575470071
0,0228061997620199
0,0215261150283332
0,0215258543530908
0,0225482283137267
0,0215930557866769
0,022753301438528
0,0217426442577785
0,0204641679345461
0,0221206421630067
0,0208956551490259
0,0213312735877492
0,0238335289013023
0,0241080129070278
0,0219588980708032
0,0203128435399422
0,0236732422113409
0,0208667815638166
0,0243657828156734
0,0227320290104869
0,0265262532229719
0,0175644829331819
0,0230471708714425
0,0211895451695081
0,0209050893703952
0,0214674523122004
0,0243092902265271
0,0225924521056141
0,0247335884645211
0,0246218071364525
0,0225777787567336
0,02306980470022
0,0233528718995117
0,0248626712998452
0,0211228964400421
0,0220579080969657
0,0267713213571975
0,0193915897705274
0,0267949347736446
0,0230185309575559
0,0223755849752697
0,0219535287398592
0,023882212322868
0,0257323743478354
0,0226113269867364
0,0253541341843368
0,024520269091094
0,0237931531768494
0,0244982916180118
0,0256942945632186
0,0226746510197845
0,0253936192314278
0,0255002654464349
0,0224377380484059
0,0250877951685296
0,0236573465717887
0,0247024183455233
0,0225143217995353
0,0232800659616212
0,0258523311410911
0,0243413174055984
0,0256790305084396
0,0252667809132127
0,0260521221622593
0,0243687413518832
0,0254231505122843
0,0261981288812147
0,026461653661249
0,0266778905208888
0,0249392900239012
0,0278001856203377
0,0281430180904205
0,0254928693070498
0,026386885456923
0,0218814934671968
0,0271412398339044
0,0259566120429933
0,0292628482077381
0,0295449505686228
0,0259117923269368
0,0285117862879681
0,0233135297704777
0,0273558725514611
0,0265925384760721
0,0309596293843869
0,0235880290796356
0,0316418993166058
0,0262487270724728
0,0292529213051833
0,0252452306346725
0,0260960531584863
0,0253216630785402
0,0310109193307653
0,0286247817087286
0,0284997527999568
0,0276517225543907
0,030585479971257
0,0279216194490304
0,0287299745794484
0,0290326644282172
0,0299125332229595
0,0300036331501445
0,032453870382469
0,025967755186538
0,0319263300201714
0,0285104390489126
0,0299490226318916
0,0285787733778108
0,0314399199124087
0,0316836295221136
0,0298310970181091
0,0299444028975655
0,0317137186512393
0,0313040825098838
0,0323305194011288
0,028573160464291
0,0319797682851561
0,0293625936905437
0,0343597751682231
0,0327121723033989
0,0378193879491471
0,0278050358216675
0,0353849870264227
0,0372311388036006
0,038681656678675
0,036397418708592
0,034200042119943
0,037278651262957
0,0375512178840403
0,0385523808394254
0,0370367419193492
0,0372998659782556
0,0378584619085673
0,040166452896538
0,0379112676628432
0,0402912962045705
0,0386544666477317
0,0448910776631145
0,0419783770688147
0,0434584907247975
0,0450687183086186
0,0416411502755861
0,0437226370097987
0,0473064480538875
0,0432337194021318
0,0466974972605672
0,0436768000155951
0,0458516224512325
0,0489985015488894
0,0460144017464134
0,0496704460705958
0,0496887680860279
0,0541746264684593
0,0496994767338467
0,0499004372414869
0,0545953728197384
0,0548601850197065
0,0548769197664681
0,054425799020689
0,0603907973646382
0,0512329584311284
0,0614398337273486
0,0554539868017191
0,0597844101466557
0,057256513472719
0,0626709011677522
0,0600368421787441
0,0615434580520972
0,0672395700197062
0,0620639623591397
0,0676956126431946
0,0654655834794486
0,0656871136768495
0,0725173094467822
0,0675926417961942
0,0841389198526736
0,048212332799937
0,0832841586740082
0,0759159660161358
0,0829270677853544
0,079398814751366
0,0834219998646327
0,0899915034740264
0,0966026055625536
0,0970914953335136
0,0971289346369648
0,0972275548808764
0,101953526496571
0,108957910672266
0,111485811936857
0,109985100096874
0,120115073700527
0,119042297770655
0,134832225377683
0,132411481739854
0,133442965312448
0,137454795398823
0,143754992202299
0,14673404711073
0,153488854212605
0,151430084218051
0,161101678337367
0,161473275002649
0,167806045489788
0,171458921015711
0,170849870695892
0,179563950001682
0,177363009021003
0,190907478850109
0,185632822244939
0,194857834205515
0,198435437313469
0,201817771053278
0,207669747889346
0,210219263191839
0,215547454830663
0,215802810301413
0,227904009920541
0,222876200930116
0,232274887611876
0,231201121713233
0,235803572253637
0,239660284616042
0,241038196102359
0,243967345951125
0,241627520815115
0,262327171701867
0,318903550301515
0,249296960800891
0,246096976296517
0,246575927077275
0,251353537703359
0,248872958785701
0,253326759460105
0,241997608817226
0,259731696664997
0,254263833759778
0,246147855998066
0,25214286544886
0,247728607257164
0,249418885438183
0,252258732227037
0,251249093399169
0,250196735386562
0,252523624414328
0,246573623232416
0,251063018922998
0,253377652967633
0,251436169425556
0,257727499672811
0,248773881769496
0,254040028900059
0,24504313722269
0,249990223374696
0,244679541857697
0,246308579030386
0,241422442776828
0,252737911332576
0,231181231248552
0,237632176159013
0,236987035414114
0,236358245254488
0,238087124295221
0,232430187891681
0,229381068539347
0,243430941112047
0,226283866810881
0,23791331280503
0,228506008390055
0,23033981321075
0,227155795265188
0,222441995361601
0,21811907820694
0,222937212571116
0,224311225117482
0,226905734868991
0,219825865577337
0,216184693410207
0,217702180163825
0,219903383129719
0,213752047626666
0,217812048825076
0,211581373164774
0,214582481671068
0,211080761533482
0,210720136361362
0,217644545501944
0,218087452589515
0,215921096032133
0,213761374992918
0,21063589220392
0,206593130371124
0,212807135716613
0,214088385220946
0,214483640937401
0,213579571302138
0,208658654434171
0,211900250469399
0,208683713721161
0,208418177567415
0,205448950435637
0,20520754190166
0,205419899218669
0,206033655436613
0,205660470490176
0,204760838406923
0,203248368199264
0,199237354194374
0,203280294115718
0,210469557390471
0,197836339195288
0,201292432040397
0,19886879042912
0,195118198767168
0,191212872616528
0,198340854961709
0,199976158508382
0,193412894556206
0,183550461240304
0,18397630199726
0,182804406600808
0,1883344536986
0,182130141767676
0,181764590018198
0,176486132228396
0,178645577778287
0,177762680659263
0,178257071033612
0,179545340026445
0,173946477188278
0,17087134726468
0,173300818954391
0,171665471800139
0,171229264411391
0,167872717794094
0,163746313793254
0,167683498765993
0,168269644497153
0,165647443942134
0,166005995528812
0,161057903766536
0,159158361037868
0,16197767644156
0,162022426642207
0,158230387724988
0,162004657074049
0,147021713927909
0,160614057454016
0,146941478886053
0,162482906002255
0,149858883724401
0,155013101330841
0,150124839162943
0,147692511172924
0,156447896980025
0,147231058394909
0,144669155197162
0,13898759930773
0,138897480883196
0,141327158098754
0,135122747834802
0,146822949089629
0,134780060754954
0,142802567069418
0,125421548363319
0,134565957434171
0,133555058794657
0,139672755631607
0,122760825400482
0,134394376259656
0,127867459386092
0,13249643026157
0,139270858704789
0,132617126838808
0,132527338954684
0,128495497831764
0,120374986832539
0,126999453887156
0,120536806590692
0,124680345262118
0,126516780424371
0,122027535088921
0,122188624320189
0,127120452569901
0,120942865605651
0,135285808256157
0,121831224299888
0,118669810841135
0,115007722430383
0,120203339002339
0,118308950668205
0,12174251524852
0,119503646817124
0,118789251114987
0,123283177940554
0,121384897079277
0,126945733672753
0,128421514222796
0,124502216573527
0,129657068198263
0,127393807651472
0,13026701079303
0,131502750948103
0,134916218612115
0,139333599803626
0,141072487257302
0,14165240797684
0,142480460423599
0,145682733199703
0,148497120795575
0,149934253581914
0,152670920233197
0,156894005811402
0,164477783048686
0,161756952013998
0,16832334709705
0,168932436037064
0,174246483739564
0,180305183037867
0,185848509539681
0,192318448488824
0,1984387505244
0,200364472715156
0,20415542809614
0,204130290177604
0,208855844102837
0,210235967638699
0,211205858822172
0,204748751865139
0,22327840156921
0,221322162619756
0,227128345052144
0,225867767989656
0,229694548159809
0,230003281425802
0,242213846435395
0,235932207805952
0,23793622688828
0,235774713856072
0,251001524860639
0,246161388478555
0,25179160728505
0,249735092683727
0,251025691376948
0,253088523940175
0,2545180928403
0,253023110290135
0,255274903611463
0,260433678521287
0,262820510139467
0,261908205339081
0,259659645788007
0,265136224800147
0,270112990376647
0,26620706330599
0,27335227366566
0,271628804147437
0,279456855379743
0,279176952625624
0,30081743746293
0,282555203350931
0,286828973784985
0,288575287311111
0,292526829579046
0,290795087510093
0,298220540782881
0,298775411275749
0,301736339413248
0,301896578560437
0,299593041292367
0,305228269783201
0,30612479171252
0,314356935885621
0,311230453230899
0,314477138399073
0,318548690463929
0,314096841853539
0,316281896591728
0,324133113259633
0,331064426760341
0,32379325448705
0,329989168214306
0,324132954960407
0,329376528339148
0,331767751090538
0,33062060390692
0,329930690908785
0,329054428620459
0,327233469875382
0,332279819688185
0,331752488839257
0,334885451493626
0,329124207290049
0,331903223338431
0,333195055962745
0,331949317595124
0,325975766738789
0,329145758168395
0,328548311948754
0,329658733865921
0,331062377966765
0,334501137482814
0,331635103054211
0,331916811106539
0,337396123148458
0,327438222971789
0,328919395821204
0,332712233027188
0,330369225305392
0,336787195118432
0,328245965338155
0,333168387866651
0,329108025925032
0,339219284398085
0,339042274186914
0,339183832633718
0,335538983482615
0,339657395415643
0,340853677666724
0,344352878294507
0,342008692007942
0,349463878110778
0,34802138931104
0,347785295499876
0,343399803182992
0,348968407877945
0,351403928508138
0,347651393241802
0,345679474861049
0,345944431918243
0,341981652904959
0,345752511361959
0,340721554648246
0,34314392287972
0,330015105234316
0,33413377403214
0,327556381952249
0,324903658762501
0,321582505146846
0,319697778721714
0,318381044442767
0,312518376191927
0,310804432455963
0,308001667585911
0,305589714085032
0,306102830626666
0,30580470728211
0,300671206664368
0,29815150129717
0,29645806189585
0,29421893666811
0,293700954122991
0,295301639223664
0,289997461443796
0,294671380992966
0,290708586361896
0,291183911690755
0,293477340370137
0,293190185819486
0,293081399384481
0,289814367847174
0,289819064670317
0,286572651817698
0,290139045332936
0,29273947184386
0,290047779619859
0,290192752718282
0,28928348812093
0,288948850950608
0,290080830834237
0,288311628163517
0,287511627563506
0,286556436316511
0,285154411392925
0,288278633590286
0,289446555966705
0,281796973906865
0,285580991272335
0,283522299492031
0,287673557451154
0,284180675301414
0,280540827166972
0,28383797212533
0,285794960280916
0,28089519655337
0,286098583610935
0,284458458427778
0,288642515907891
0,279922384178634
0,286253145337402
0,287073710863384
0,28544691883573
0,281338978921594
0,285547909653028
0,285249271582173
0,285762828463317
0,283895674012639
0,284984777861176
0,282515253893345
0,283687546620367
0,283321976154268
0,281808297429747
0,280068521946318
0,27982315656489
0,274960424861834
0,274766242662752
0,267147904911899
0,267878663342645
0,26543512360633
0,267090139333035
0,261509614896239
0,261593481660153
0,260035131116876
0,253420535667666
0,251867567762845
0,252408595253719
0,247091490847252
0,248508137402948
0,245717314069759
0,243576395122136
0,246617381680631
0,241620140131679
0,243069744577161
0,245186339624108
0,242267234387537
0,2402881249476
0,23788340594106
0,238794255760601
0,239958821420454
0,24151635654302
0,24317083592717
0,240166171781754
0,242736998493209
0,242550560317662
0,242280754295448
0,245874229805334
0,243289982907386
0,249802727945808
0,248133602368124
0,250214838063314
0,249015794709551
0,250253671446757
0,252990101481923
0,25433199494614
0,255783377465393
0,25650531153041
0,258682109815939
0,256646501235488
0,256443793923284
0,259973522986444
0,258808785366442
0,259799403307889
0,259285587786901
0,258389806026842
0,257009567822377
0,259234816099056
0,258976419062335
0,255315459585582
0,256417781909516
0,255170121869463
0,253271329879441
0,257216712100709
0,254167282268895
0,251660182656407
0,25217295241378
0,252392870610677
0,251357418562048
0,249487389895054
0,250282313068991
0,24757690487004
0,248446841138213
0,247229113843804
0,245865170778684
0,243442272439308
0,239250307223479
0,24205280967866
0,243767951403901
0,241583813283041
0,240552211640218
0,239214460280574
0,237831476056142
0,23830623917225
0,237604201294198
0,236564633017502
0,237576494662805
0,234862141974341
0,233170954120422
0,23332424156622
0,233989098783075
0,234018222419916
0,231545375625275
0,230489775004984
0,228428439535773
0,22771847619772
0,226553025815808
0,225046441443717
0,224477183225394
0,221831460053059
0,220106008078655
0,219384556072889
0,217663887236961
0,214557007608468
0,213851007844646
0,2120290922229
0,210620445938099
0,20974864509892
0,209695054854747
0,209269336294881
0,208202378604266
0,207930079489646
0,206730447367212
0,20663189234697
0,20646202522569
0,205331655199427
0,206781802235271
0,205946153288024
0,202253724403527
0,202502091077848
0,202225056189212
0,19785548536232
0,19567053831031
0,193797188290974
0,192296974319653
0,188808725426239
0,184972080398346
0,186664908959053
0,185114288653752
0,184429857951051
0,181986147228955
0,184921989801083
0,185899717975099
0,189637909012546
0,192499520189307
0,197979304782552
0,203086444580268
0,208097745382209
0,215697717360353
0,223921742110058
0,235589537478088
0,244505570986399
0,251522472012345
0,261621616452151
0,277176188219367
0,283494216573859
0,295197480811506
0,305188650793587
0,315817721830731
0,325937606432773
0,335037414278887
0,344852635971137
0,354186573780081
0,365874281790158
0,373916755912067
0,381357336679214
0,391649302863835
0,399716879116472
0,406285576442171
0,414289551533028
0,421463598549175
0,426837032993782
0,427867774783878
0,438817374520727
0,444398382165098
0,447322343284173
0,449697707970114
0,452048312020156
0,454416066286838
0,455951297329401
0,460424822399509
0,457263608384339
0,457831017273686
0,459324036014296
0,461355575139947
0,465076558149073
0,462750765993669
0,461474039564872
0,461987718607739
0,466691261093816
0,466350642386925
0,470189361758396
0,473759889399926
0,480863376320307
0,478982097942856
0,482978183807823
0,488736732198541
0,491579644282211
0,498029667336442
0,499220932479733
0,502695596861444
0,512228364042144
0,51541911102283
0,523636138849296
0,532811167777392
0,542085147372976
0,543881907802126
0,554294645645241
0,557234188599901
0,567195162449025
0,576346897575227
0,584705249853297
0,58948521209786
0,594042857036295
0,59659470359089
0,598818836023476
0,602737960751526
0,605440079416054
0,604155154909847
0,603809416107125
0,59568006800985
0,604035673212595
0,601752341212326
0,593530708038232
0,594203738295054
0,588789485386146
0,592899689657434
0,60322078558579
0,604811928695186
0,615864994523425
0,618430013809816
0,631873351680337
0,634857986259686
0,647651254620892
0,657160017386214
0,669841292704389
0,683173193001538
0,691795319952222
0,70370492367158
0,708149750523216
0,726478075311466
0,738497509879472
0,742328910408701
0,760815267454149
0,780076785639676
0,785710145500519
0,79319490297786
0,805514725891483
0,82796443519372
0,840741105982479
0,854885981324963
0,876759240065967
0,886827962439651
0,896355174077089
0,906154035587977
0,933857809662561
0,948310114171956
0,948477269637397
0,963072391920159
0,985516934726664
0,996787876021554
1,00479019416634
1,02412457850616
1,02873124967506
1,03355498109471
1,05511969515543
1,05932463395133
1,04589900152418
1,05135949718821
1,04902995027897
1,04850256374877
1,0349676965949
1,04733165105835
1,03571469576793
1,0471044884297
1,03974272538833
1,02868643892292
1,0373857766388
1,02527401014821
1,02834766159683
1,03796855804714
1,04616614806578
1,04772998672113
1,05527482629027
1,05044812269669
1,06670710701046
1,09088274396952
1,10376209911154
1,09596695136226
1,12191752780261
1,10909552575111
1,13818513390333
1,15626149072242
1,15308536364485
1,18068819164363
1,16207059529944
1,18713809285979
1,18137566718951
1,1883727672756
1,19970924510984
1,19987948710608
1,18240648204693
1,20285576272505
1,21316227861331
1,22032656007539
1,21406761193894
1,21824115372643
1,23813079184284
1,23894702286099
1,21575773476288
1,22443032240933
1,21755232635289
1,22048643495384
1,20923461982494
1,18989206994575
1,20531423262719
1,19850212781502
1,17473413445277
1,17156462823842
1,16576567925792
1,14328046751053
1,13091654109008
1,11176113024681
1,09429995693874
1,07823213867471
1,02649552821106
1,0069361314621
0,972239768939384
0,922468323797287
0,888762763971514
0,855260959298331
0,803131832215661
0,785038235881446
0,742624397761321
0,710867702039152
0,692060442257376
0,674501172845048
0,656800196781243
0,652398940816214
0,63423756346173
0,624928253969074
0,627335516739905
0,618174404896932
0,607414159051878
0,60629680203993
0,599519039060786
0,595369338794962
0,587368730955097
0,579307187438727
0,572756897068441
0,561776463131716
0,550320878961519
0,543564345617929
0,527985898887864
0,51208618253083
0,503944711298986
0,489897184089574
0,475644841416239
0,459952930606721
0,436613989095922
0,421256831658097
0,404487968045642
0,390423958185254
0,371991410582055
0,353707492352896
0,335989061761091
0,318982445343295
0,301365565182671
0,287062591472724
0,273909413759696
0,258899330621703
0,251757827530023
0,239986616272263
0,229224500652119
0,21557595450443
0,212116592049526
0,202178064888993
0,19684398767906
0,191573740143105
0,185819523130444
0,182049034225703
0,177012072384658
0,173292349887459
0,174134054306713
0,174078618440216
0,169464578414134
0,167496109602656
0,168242367026712
0,172301547365491
0,169198341033816
0,167952537862621
0,174492273446144
0,177603471058551
0,175787604359256
0,173840821516131
0,174998318684616
0,181505961771697
0,180925815970611
0,176737430389472
0,1773105781837
0,174538854350878
0,176095819655487
0,173659245010872
0,170663885377489
0,172427993686577
0,169653594104895
0,169110508203634
0,166994918509547
0,167287554279898
0,169140883619747
0,165931380436925
0,16264285925501
0,161740320686329
0,164233707725161
0,164177100281972
0,165204201780239
0,167140527941519
0,1703979560437
0,167590643779159
0,1728800428353
0,175381567187226
0,176554177457574
0,176584187184775
0,177440511908183
0,180445512800682
0,180981866582964
0,186066737052226
0,188991325252722
0,186481877983757
0,189020949470991
0,191080790683423
0,193787804986159
0,189504526341022
0,191932629750808
0,191854591742449
0,189078547430573
0,190886246015494
0,194891140935318
0,197733104075734
0,200049768875482
0,203495606153766
0,207231816052717
0,204751194576103
0,209175557967672
0,214901159619616
0,219381647784505
0,22924143974548
0,234018405115318
0,239387615348948
0,250271222277034
0,252931547027805
0,264457133825047
0,269323223007133
0,273386601612851
0,273601827884291
0,269035666705918
0,267957691845513
0,27255528396051
0,270159633290023
0,262128873266488
0,256808214602971
0,245982860203495
0,245189467459226
0,241416588661279
0,239261744676541
0,232231210973343
0,230836776697855
0,234990669154865
0,233271073754038
0,230864948983976
0,235027254330056
0,229157654261997
0,231115953627866
0,231438853992584
0,231862515315884
0,231101103624349
0,230150996003992
0,22914159046727
0,224141264824712
0,22111043695465
0,215355856343811
0,211817295153978
0,215999248193436
0,206624617401005
0,202796257105218
0,207374100415358
0,206462384399089
0,207885633324394
0,19444856758308
0,19613064986175
0,201568425685718
0,192003041575552
0,192602882458306
0,197549527552334
0,186836751638809
0,184511679562863
0,190227720850745
0,191949520823563
0,185183530028344
0,192336805002076
0,18353823315903
0,176062042543228
0,180657037402096
0,181019928573375
0,181375300308703
0,174323096586598
0,177840704737954
0,179818563796988
0,179791079382003
0,169276689036281
0,168825941802747
0,171739991459579
0,171578699601367
0,165355200080212
0,166516944579291
0,168425091474426
0,163799288671469
0,164908236513356
0,160817187124257
0,167904923596118
0,170720800379085
0,160318702267643
0,158404845119784
0,156915758658634
0,165899623810571
0,163904545034872
0,163769324575245
0,170004161770566
0,161243493368674
0,161110120621321
0,160159692851122
0,163318579718721
0,166726402468006
0,165086229896381
0,164314704957034
0,169119550785153
0,163778061729344
0,167001337377546
0,173732625076097
0,178726381801449
0,174953828868426
0,172165364588487
0,176848441905732
0,178659620607745
0,181539948053291
0,190691049743113
0,184596101922878
0,186350532756005
0,194623039751941
0,194328295177578
0,191507014222878
0,194625943603524
0,204142308144384
0,213288766462076
0,220712541648867
0,215883913262942
0,215443033903694
0,220844240579782
0,230869303963902
0,245617995432236
0,253134600911771
0,249715343397646
0,275660092739994
0,277859989382782
0,292190262797384
0,303344186954735
0,301679093750096
0,313781892111914
0,321599159504023
0,328441545933362
0,328547745321551
0,331303029005273
0,328969470305253
0,332851686105422
0,335618203103383
0,321364538282685
0,317730157859016
0,314501437537772
0,313829818607288
0,311577217127563
0,299837565009369
0,314453799502184
0,319892597599396
0,324919612955997
0,318600866782959
0,291585465171779
0,289798557930386
0,292747614474677
0,307644088271196
0,3024159626741
0,302058026681294
0,305834579975292
0,298089008040656
0,29068500100623
0,275826450415576
0,274053718890441
0,286227732545996
0,284777767552904
0,278404535961968
0,26365517926731
0,264509893260969
0,267696752987962
0,260516718102242
0,260599241209789
0,266929137454139
0,246066113896668
0,244725851401502
0,260796095873588
0,274760048054865
0,259041643942184
0,245644558382759
0,269936392700215
0,255513409016052
0,249134148556435
0,278444788446605
0,275660833847862
0,266723807867203
0,274771340272828
0,267335023544558
0,275645343653925
0,29584203238073
0,287212086590426
0,281321962890489
0,272657391205048
0,276539154983811
0,305709815825747
0,277208308603931
0,268178649251727
0,290086559678511
0,282119882597297
0,265477159734552
0,27336041666212
0,285856206891531
0,296072679978261
0,302302970806788
0,284536147020869
0,281997141242025
0,305523779067162
0,309581913956978
0,300611149452438
0,326553661776711
0,299876668528416
0,306868100347576
0,333687881324963
0,321168505966127
0,338289395731898
0,35601934395505
0,370098688511178
0,358054300716408
0,392731758280636
0,38344790497507
0,367991607147106
0,427217725110605
0,394963022650694
0,376871111421514
0,410502451468104
0,407132134358221
0,403819859953976
0,376958073631734
0,358299041104198
0,366720541478897
0,392633067937464
0,439812601876961
0,368160647225783
0,362327800386344
0,359191033721295
0,363939351867181
0,367877441867242
0,363803598035833
0,367144340988294
0,35427492327744
0,357291519353137
0,336170422397998
0,341938679955905
0,340276610039423
0,324926087528001
0,319112316998215
0,403006822330703
0,328093966308883
0,281851441240919
0,415813629484931
0,271777410017586
0,282735898644015
0,381195440536029
0,314615160876288
0,346399537042617
0,339419864619223
0,336255678973463
0,351949565488335
0,417470534238419
0,404102572022384
0,371344247476861
0,397018463083754
0,296350154392769
0,347488693300762
0,379227660337582
0,268164472900019
0,330849308304228
0,329802699929058
0,379846460107549
0,433402875163398
0,426366058300347
0,446462865228256
0,420523090560635
0,378504027544309
0,442652851068694
0,494583588979973
0,35894728757653
0,30311489470622
0,566210231171791
0,353816759131887
0,218045658794572
0,441008899039034
0,531695481363971
0,473974448293398
0,395969878380707
