3596
4000,36533379555
650,420452594757
1
2
2
0,0401203592146042
0,0340391732510254
0,0463216945017131
0,0377153580354133
0,0419174045912227
0,0316460944862297
0,0405244553539676
0,039071335868118
0,0359740832419147
0,0293501953709947
0,041069708035759
0,0392133348396136
0,0341845526780594
0,0303144914398424
0,0273973689139354
0,0340050064876722
0,0246425865112415
0,0431417644812086
0,041147882900691
0,031662407193182
0,0368760750306932
0,0358219686475769
0,0375802180186723
0,0308245985040682
0,042214156559562
0,0273993555024476
0,0297410288071553
0,0366369763278629
0,03730421440302
0,036350624387
0,0387609170162377
0,0329229533222209
0,0372283864776696
0,0307617171408474
0,0353130576306519
0,0355045165903444
0,0345530773345358
0,0360843487194532
0,0396547323865323
0,0247188049939554
0,0282277464232012
0,0356940109173336
0,0408264986690823
0,0304479882052208
0,0404193096555898
0,0290100231928762
0,032664363557682
0,0359645217328176
0,023031443265862
0,0258432162798849
0,0389335106470866
0,0269045110712351
0,0407078053319732
0,0249291516994708
0,0416653185696655
0,0346150426828764
0,0344636295841433
0,0311832645696863
0,0313382683929821
0,0279852987352051
0,0434514709025324
0,0214978446373713
0,0367217268975075
0,0271987755874508
0,0325415058856463
0,027926238643
0,0338817282617835
0,0268890131511895
0,0362389060870733
0,0340399637141835
0,0316567415267352
0,0390484598813477
0,0291156003970222
0,031539625201057
0,0336762211233168
0,0240907834627451
0,0341110820579654
0,0344164458578074
0,031555889751765
0,0372072098907779
0,0226287079031933
0,0209304613045942
0,0300903539226546
0,029188904150091
0,0307565931424228
0,0211848422860744
0,0231807808674968
0,0401803692826334
0,0322601196362625
0,0223496132795825
0,0328695728195013
0,0327772497703051
0,0276500140195094
0,0319338480688184
0,0330395879424974
0,0331486008197831
0,0255308247492778
0,0415231203180738
0,0267613632262935
0,0381526503112376
0,0258936261569999
0,0339001056791637
0,0202839746193277
0,0253382383881217
0,0567877833126709
0,0160055903089229
0,0524875656045074
0,0223333228813304
0,0375841334176039
0,0184457077235771
0,0266294293891742
0,0239230370378007
0,0286376854080031
0,0287167381431443
0,0182080129675955
0,0267287955122521
0,0302608745897556
0,031210343052539
0,0216558404588864
0,0281770345860212
0,0204194355820999
0,0448954946063506
0,0176671478585026
0,0282197218566193
0,0323924829235748
0,0152534712210777
0,0266700455030393
0,0295502535373028
0,023729531856676
0,025849192940532
0,0275120177777587
0,0237405288953051
0,0255977712701264
0,0313278320341059
0,0502810838063935
0,0270984995277872
0,0355121285325414
0,0154392245612716
0,0518400251588924
0,0337358940718627
0,0199248657911412
0,0263583767667154
0,0234244054825963
0,0190725027017029
0,0242749852371607
0,0249710427142543
0,0184423572134753
0,0277563165255526
0,0179588395773924
0,0266508833979935
0,0199169683640431
0,0242203350152697
0,0375468221587844
0,0298172945947484
0,0308307858694519
0,066939557878405
0,014868789754845
0,0327513541486724
0,0404841997244629
0,0218149703077871
0,0442941661851597
0,0131883898230775
0,0422447479145727
0,025269754090074
0,0357499987310349
0,0154664098906315
0,0458556706876583
0,0222431159707878
0,0191365148861756
0,0179694222276325
0,0349161395968233
0,0237889428113062
0,0090633827413973
0,033784043985272
0,0102313164158728
0,0261776486689007
0,0179803583296575
0,0260151314031514
0,0181531557611997
0,0126070694204941
0,0272776014087766
0,0222246197227235
0,0294064490070962
0,0167526419104194
0,0348439618448902
0,02729089431466
0,0131766131411786
0,0284028414308893
0,0308009804674779
0,0222176577385318
0,0379466296812421
0,0401874275367712
0,0373189718515215
0,0309548780977282
0,034744995141022
0,0145085426914284
0,046442169498202
0,0184784649602315
0,0220220888662325
0,0247201832667962
0,0362478236917366
0,0164694693557303
0,0215108630014305
0,0272133754809465
0,0288669143234629
0,0230026788560709
0,0344008114851286
0,0120716373422128
0,027126440346046
0,0176046341569235
0,0439350390022478
0,0231162364513198
0,0602873141560694
0,0149982927678152
0,0215485817900761
0,026715492679383
0,0266359364467903
0,0314581095268543
0,0238064925563253
0,0124105033352721
0,0300340016401325
0,0228489764701039
0,0253353310968717
0,0208745762237814
0,0276788242711935
0,0230974085026776
0,031528919422598
0,0283296574707417
0,0321123520207521
0,0221093134895503
0,0283098999799639
0,0267966461425927
0,029156877079423
0,0204802524336697
0,0203617376815517
0,0355951705352378
0,0284297757633081
0,0241538669788758
0,0324145553442362
0,0182001379700181
0,0262319616734706
0,0242449988192397
0,0294479519325912
0,0188305968345048
0,0326900716952149
0,021204007745504
0,0393317371518462
0,00868456601036693
0,038410258020733
0,0168348036314355
0,0421378283262074
0,0134646197028501
0,0356023681907947
0,0197089512559519
0,0397271809908448
0,0220322860653409
0,0391227196433823
0,0161732497519612
0,0265657437837294
0,0154540607102417
0,042428218448656
0,0173412885553495
0,0358475375523586
0,022530249006623
0,0297564445606733
0,024942797640865
0,0157248691813269
0,0350827666660601
0,0639466960063939
0,0154465557529591
0,0348300269428205
0,0284853679169017
0,0332328966166108
0,0156186964263079
0,0236099003755103
0,016258464829769
0,0299573955056844
0,0207083887201904
0,0203353988849815
0,033597656733628
0,0357890560838431
0,0367418039076503
0,0269958665614264
0,0135544314928882
0,0573141101087829
0,00485165166731963
0,0429245846339239
0,0139200448054927
0,0326887653706389
0,013607198002957
0,0340496714577276
0,0264119034550804
0,042241545462634
0,0203438021034292
0,0408352878497334
0,0358717246773724
0,0353873679970501
0,0310166010623501
0,0251421954716854
0,0303393584567037
0,031751733840428
0,0275374015676054
0,0310846913826574
0,033417748937311
0,0293389705383303
0,0300610205283794
0,0288993707913228
0,0417042592386215
0,0455256985819956
0,0335351058559242
0,0428244901144864
0,0356878435751734
0,0268977945569146
0,0326773130512113
0,0362295135975323
0,0323045719564934
0,0285922569835253
0,0338940733504729
0,0338021690048685
0,04250684023776
0,026091155633601
0,0329937297553099
0,0404871828793143
0,0295571440671931
0,0350965758640402
0,0308717266621092
0,0366080624649076
0,028653898342076
0,0315312401356646
0,0281293539402334
0,0431304035373859
0,0435954127415266
0,0381103471921001
0,0530277327490121
0,0340348387722795
0,0266323192152302
0,0373199724141673
0,0298922682933444
0,0394630412205179
0,0354440171535208
0,0435016252137269
0,0374831211899697
0,0444267246895736
0,0487582976463829
0,0452815358407318
0,0293721845426292
0,0528414321807076
0,0389737451727795
0,0583121304789512
0,0235397361644316
0,0485112510379859
0,0370432793740999
0,071551720780393
0,0364582712174359
0,047930331187667
0,0508924359074965
0,0457349919491222
0,0566150551119841
0,0457764051844856
0,0494945724651351
0,0496765475937266
0,0549074042758662
0,0545378133973382
0,0509032224414342
0,0555866792825804
0,0559949532536317
0,0608279752383372
0,0611182568036559
0,0658566015193379
0,0544210033595406
0,0579031841023373
0,0691929548417659
0,063653761155548
0,0784325154199991
0,0782278696511342
0,0624683006721541
0,0749967421757706
0,0596355469190476
0,0817128245162001
0,050695886300643
0,0745101481686201
0,0645212230234163
0,0860781539596095
0,0753870722751846
0,0877796945942219
0,0780721191644511
0,0833445876322303
0,0802105174417967
0,094792314720768
0,0767600128639135
0,0977340371944177
0,0822139531530836
0,0947471738902044
0,0819055946832955
0,103790255346859
0,0901707905148958
0,130447424126765
0,0977657672023403
0,109323218310443
0,0913629383374202
0,106088014913761
0,0955375529217791
0,101795578793636
0,110374174308524
0,113878594059541
0,114634306260668
0,122788201666634
0,106949123122677
0,119086136407423
0,112236145016573
0,133671819581581
0,112422724290006
0,131389995704881
0,117530566756959
0,133442720731645
0,127068198171947
0,146141598646766
0,135809112982895
0,14654997920924
0,148480896815846
0,144905959832372
0,1409030310393
0,143727971776305
0,165155607455157
0,154444489617056
0,156538628620389
0,165075580928868
0,153027563477535
0,160927029604941
0,16623220672846
0,167852487835526
0,16660411769643
0,184459441591338
0,172461329109129
0,185230863896251
0,16423654314022
0,181732415090934
0,169022891653334
0,204013649727514
0,201621073562649
0,216045019465156
0,197878869768682
0,197641226183941
0,199518811393682
0,199643553789993
0,196001038043409
0,220105993148398
0,219961509874769
0,217463884765763
0,213239320068932
0,234066910845302
0,229252695836636
0,235598459749507
0,230897305295445
0,243189916000094
0,231882081486302
0,251209178442019
0,250870411266851
0,251297293587285
0,243169128908098
0,267707471676996
0,25949203572784
0,284111496978968
0,284071677725825
0,285014838136978
0,260841062659378
0,281625208064307
0,277359034567147
0,282461990958359
0,284925597976818
0,304103099132709
0,31128592098747
0,287509303305287
0,309157175724566
0,327730070957007
0,297866055748137
0,312588608898881
0,329516237919198
0,33920223852852
0,330339369481854
0,348105809445508
0,320606652725593
0,337408254097669
0,336748484080831
0,38000620201944
0,349466460431517
0,357469427308672
0,373844037862604
0,366846346336938
0,363302880756502
0,388065960948606
0,364526551293624
0,38873730875696
0,389772175628334
0,404019199638626
0,395813864973165
0,403311014885057
0,401260893668006
0,422145883700469
0,414223498480356
0,421661247150993
0,406545717971622
0,427341072449671
0,439105791116991
0,441405231091602
0,433544034111813
0,463278245365903
0,443398110512979
0,449430239004623
0,456088398175983
0,47115900564127
0,45996116450664
0,467622489202876
0,480860854621222
0,502785642481679
0,489158014674132
0,500170785518187
0,473612990752277
0,504213902571154
0,510388677858794
0,536306710404255
0,512395675117358
0,518683039470728
0,552173703717059
0,564585197135518
0,563413771094225
0,562758298306822
0,514869797227571
0,540778545276949
0,553867334688343
0,545355388325597
0,560662798062148
0,577615278113457
0,566021858838594
0,587697463166104
0,570522460960347
0,6022799297015
0,589248899836595
0,591494357229609
0,61844990984291
0,636541536914297
0,608716206139811
0,606191865877776
0,600322953026317
0,647926962520056
0,645836451058299
0,66711963594345
0,677800651897487
0,67029831079414
0,64644257312295
0,651082370302173
0,671566267481154
0,661970160544153
0,690791986150533
0,710661383187656
0,672372445262475
0,685828046795823
0,709939309838073
0,714933436545033
0,708275926105439
0,713025943303294
0,715105601812589
0,716060079665149
0,737966812776658
0,751137776651758
0,687830271653369
0,697834245719562
0,706279114679125
0,72809478659881
0,788679335675462
0,759077960030774
0,742632183409859
0,786802029552028
0,756058451399688
0,779957146455189
0,783285639146982
0,805328766100579
0,798533685412993
0,782039362672913
0,837164423292521
0,880170470029834
0,856868433289408
0,814316015354989
0,853458732707565
0,847163826910022
0,808057618995112
0,870148693857008
0,843913622151332
0,818973637676094
0,87043689577372
0,88673414227327
0,940288582390201
0,85749825392344
0,833719913997689
0,894516830347864
0,880344527162856
0,83619120871603
0,866849972664779
0,913530530041628
0,949872450276922
0,913906046131883
0,893236500176588
0,880102790933945
0,892646532075526
0,925583350512268
0,916335969397927
0,909773128533302
0,978117542089733
0,961277662512805
0,907627967487292
0,926917003413742
0,960703404987478
0,976769983562051
0,999647457067083
0,967152898092523
1,01525549317961
1,00129285149238
1,01591684309065
1,01813552747316
0,990623203869764
0,972693393466767
1,04066752156596
1,030000946324
1,01432821726771
0,99230316517723
1,02729791563255
0,967029906476117
0,93184855914863
0,984932273693835
1,00421552599873
1,10552947907253
1,11494026867468
0,977527094241032
1,05104769930578
1,09982933515375
1,03782925675998
1,04598697647264
1,14275079034455
1,105768386657
1,06451714474918
1,02751573497431
1,0726740459092
1,11132105416895
1,14100868042852
1,06455738113747
1,12122037952894
1,14133013612889
1,14544575208713
1,05049775000641
1,0490611028724
1,08917260904438
1,10990558069478
1,07361367428468
1,14472170108685
1,09112328162931
1,11449905250681
1,13595423303053
1,18572315978329
1,1005199041262
1,10110106050995
1,08959697000657
1,20772307528128
1,24656433148749
1,14705453508416
1,08397658088923
1,13320874167884
1,11484705361467
1,2118933510774
1,13457486223989
1,14422523288566
1,21902608089348
1,2317825197602
1,16146483582272
1,21811896295917
1,12977226427781
1,18366235406649
1,105349936433
1,20884847970369
1,14759403433822
1,24649973249734
1,19223969784098
1,23351168046267
1,18937721564126
1,23894352821161
1,15142410954929
1,15703326481732
1,26660899130207
1,29561956251801
1,14967720512602
1,29912805364007
1,24082971645691
1,19308009577254
1,14523880963946
1,2054142482717
1,19983686525812
1,15270910683856
1,18812230966743
1,28902321591704
1,21578606835559
1,27290516919931
1,18090934458631
1,22832263065341
1,1851254442258
1,24928374341446
1,19640451765084
1,25645846939778
1,29420319937219
1,23500158113296
1,14729356159199
1,20344310970392
1,27462466956575
1,37776108967148
1,19974340747051
1,2428775647461
1,27333713809864
1,33709453047949
1,30968006959073
1,25531563092994
1,20704573480964
1,24947268315731
1,22226645006889
1,2431528710574
1,15590807746895
1,32096882694071
1,1974996320218
1,23089414268578
1,3069962941273
1,2388803466543
1,17715366773341
1,3380450862872
1,2047662655973
1,23295314638755
1,17002157073404
1,29114268363032
1,22569447417914
1,28527915204046
1,2280640452006
1,306650242003
1,2046154962058
1,27749904755668
1,23598992877395
1,21721801831739
1,1777515504931
1,29974524735281
1,28197685004373
1,29748843807643
1,19208961925057
1,26908667261645
1,2516998172319
1,30854438719769
1,2869499595584
1,31068384468375
1,1933931159722
1,31125067689305
1,21058306383634
1,22573058442521
1,19429014743494
1,27074225470187
1,21690664143858
1,35314011282799
1,16799019660769
1,32209867542584
1,17344119020497
1,23292542560937
1,23767105032257
1,20911758328751
1,22778197040351
1,2452766328899
1,17920636103529
1,3364443066953
1,14539426075145
1,26176367972253
1,21412730318848
1,26841370688956
1,25542726847951
1,2646345626744
1,23489319032781
1,22645429652032
1,17713445772395
1,25257488191913
1,21570530099679
1,31059067828639
1,24933644593718
1,23951537899941
1,16889212575313
1,20726786375411
1,16728954949392
1,24562939513197
1,14530369128582
1,20306699555359
1,20942272718201
1,2668334410275
1,19755671551683
1,26671454998322
1,24270426577308
1,25376668765915
1,12802183754205
1,13474664408861
1,1632002799057
1,20180779813553
1,20033095347933
1,17886898741831
1,11408985041079
1,16155376794892
1,11420923939864
1,18002060846265
1,14702114252576
1,19496670520996
1,20273208072789
1,21572497336339
1,14732993824607
1,20867572438382
1,11599669671453
1,17406262751466
1,09773529092501
1,15012991928648
1,17670551062051
1,16842357433299
1,11421632421604
1,13123342466067
1,06529593791058
1,07555845158316
1,06619660198148
1,14186172742725
1,12678119897958
1,12069045300103
1,11508304442913
1,17645282188708
1,0932689607743
1,15378615736206
1,07854437199022
1,14831402347948
1,06819467433134
1,08383521570643
1,09323247895098
1,17692169184976
1,04345391241427
1,09761533574503
1,06385649020428
1,04793621125607
1,06423069168892
1,08906582744906
1,06460903778235
1,08527402515342
1,01968490919419
1,05290495954567
1,05247949535194
1,08778638930789
1,01048199952196
1,03278712961408
1,03879810978413
1,04089365985631
1,09242643218424
1,05258459930611
0,987662525212034
1,02525394065063
1,00571282008896
1,02437828133492
0,981569694943671
1,03109195833788
1,00535059350308
1,00549463942896
0,977889126256602
1,02908534775331
0,970563749133003
0,977444948382445
0,976412600941919
1,00136749725971
0,936952550313413
0,994324558221757
0,974364944587343
0,979321819505028
0,945228361866086
0,972109308658719
0,945885251126083
0,967620934204984
0,945063473080177
0,955463992409348
0,900639029158362
0,924410133198461
0,904613333625895
0,959456330708183
0,91992374091099
0,917494953319668
0,884427443916188
0,943962637437435
0,887662342793017
0,918109859449692
0,871899137804054
0,914299250636765
0,865119667170266
0,888058266122706
0,866072330107035
0,921312836595126
0,853436411817834
0,861272272902711
0,852059305162279
0,895292331881647
0,85526633732004
0,857225173732931
0,831681283770522
0,863368374865569
0,820726749028406
0,840045321136528
0,80281737650495
0,826978997334839
0,832680557963187
0,814510548653785
0,799807363197316
0,838934371596498
0,786701577499466
0,841285860579823
0,816954643826573
0,819155734388916
0,803111987749507
0,812179661097881
0,769821478944485
0,792341837932363
0,773347614860156
0,769312152943603
0,798542438694759
0,770929235111957
0,73783716359952
0,766137524669115
0,758341279327404
0,76348323238015
0,734622048834427
0,755370586953131
0,7431003347146
0,765900363256513
0,729289970947858
0,731590845271646
0,720470502887417
0,722589997402744
0,71566872714655
0,740922235516664
0,693275078420277
0,707632703514388
0,706988764155848
0,717325990485941
0,681313781186862
0,719700878861652
0,670427678876545
0,681495659762639
0,680619407188106
0,698306863104441
0,683327211428961
0,676473613486252
0,671778077956939
0,69169252832388
0,668330095783599
0,685959343196173
0,653007595444771
0,669505899556328
0,635375306615651
0,655332120019752
0,630640009454606
0,666554327536126
0,636451958015637
0,644774939018761
0,625510476892975
0,644474377060811
0,620559350896595
0,632303178458024
0,627168591502354
0,625430505725981
0,623712547147786
0,628340051527774
0,608590214085297
0,609162735659479
0,597013018044157
0,60408290293419
0,590058567867436
0,602703110219415
0,589308554253156
0,598976726058489
0,585293434294931
0,601647817639064
0,579971475628139
0,584928528943759
0,557109951305443
0,577901895239186
0,561159573557765
0,556928573669242
0,550373371614797
0,571205253041187
0,563149246803746
0,566033619725424
0,553437711705792
0,557677763040158
0,540661651280812
0,557389616630723
0,538161119766788
0,555765848894977
0,53789996027844
0,542249332861634
0,534384459555537
0,534723149249483
0,522773859061134
0,527868817533647
0,52418787280074
0,542516193894768
0,50709693923782
0,519295536382336
0,510177329029699
0,519680615158489
0,512891955705135
0,523434201270117
0,508664020274269
0,501752521528826
0,50473129739472
0,499764740428888
0,495510491086434
0,502829741763178
0,480103582648723
0,483021922629074
0,475597109293897
0,48260164789059
0,470513630401054
0,484818618868082
0,470646256211327
0,486043131719014
0,467731745136344
0,468718226547454
0,455977861647405
0,468046991337055
0,458165820581639
0,471540380262325
0,457176032616885
0,46107953197072
0,452261373721594
0,460159129923812
0,448727093468158
0,449364638716141
0,448001482818027
0,449952783334794
0,432513702612481
0,450674975793721
0,443248662151886
0,439073663372049
0,437987747863056
0,435306852350639
0,426780800474266
0,430202294639762
0,410765256712991
0,426340341993724
0,427520109076072
0,423257112808856
0,418486177712742
0,429728910501271
0,413288189183005
0,409727172177639
0,398250390439863
0,415714006485515
0,405147755839591
0,407210203046964
0,402901741075022
0,404305311719056
0,402742303637617
0,412837368890464
0,39488182202376
0,402913270230582
0,389939811861892
0,408370346216662
0,398194550863012
0,384034447317315
0,384942664352437
0,386708737426612
0,387262635429576
0,38850499957053
0,379821623502531
0,39436733501138
0,382797861097646
0,394395263662513
0,383421978546452
0,386324696188901
0,377529803671263
0,388995222162732
0,379945006550922
0,388140828371933
0,376714431083514
0,389122894464732
0,38117103834145
0,386535181585401
0,378047737062839
0,396590443234305
0,377452142784658
0,382125329339044
0,381455834933593
0,387416126283255
0,39075289870599
0,393281878819667
0,393001311248154
0,394117819354398
0,389378828060237
0,402619472744504
0,392718631037116
0,406587471274375
0,396261121911602
0,403239508522353
0,401682475542086
0,418272366468816
0,401499949084563
0,420373546896708
0,410332874489288
0,420417427074489
0,407138077134027
0,425290082188362
0,416180549099032
0,425297724075022
0,421181479262762
0,432778629039986
0,430610196715024
0,446635546972285
0,431281671643336
0,440519305315335
0,438580750252978
0,444091529513701
0,447310025826138
0,455408897900351
0,446926500521545
0,468744072359957
0,457069586626155
0,463173864121463
0,46389297570589
0,470864369577636
0,46355355616941
0,476070675824572
0,468262280738423
0,493974015913126
0,483888781746342
0,490597322953911
0,481972346255774
0,502828482957206
0,499015659600079
0,520905969223189
0,510896000694853
0,525799824207318
0,515923967916085
0,530714780779129
0,517577992759477
0,53612262156132
0,517664979556815
0,532465413986127
0,531885089835166
0,543273312379314
0,539268107845286
0,553797118867445
0,532337634605799
0,557251180234205
0,54739257121563
0,554207522754894
0,54708059634897
0,54439334183778
0,55006168090356
0,560301869430194
0,53518287648259
0,558597111974959
0,55074331614788
0,561601758802853
0,540397752303774
0,570093758874373
0,547879229584442
0,562963634631407
0,553375573135705
0,570157446030843
0,541838402436364
0,55502470193881
0,552454249007512
0,565495068159541
0,542084848760725
0,565568472952445
0,549152542048195
0,565302189233077
0,543364478073116
0,563055497137176
0,551282821849096
0,568804216653095
0,548737584989542
0,561748929199877
0,556984571151784
0,565197251157577
0,56819422632746
0,569859670544957
0,557988698602971
0,562688390651494
0,556084103382068
0,579497960559837
0,555442933880426
0,572471577980285
0,549292004064959
0,568712721105338
0,557571967116844
0,576800372116983
0,551031369866559
0,578643820823122
0,569474456428326
0,563595336113709
0,55936395350555
0,569758426265189
0,559473295322171
0,569303699250003
0,551574064714237
0,571603653688501
0,547477724794297
0,561482768978774
0,55312542670286
0,563712911878513
0,545040170198492
0,548174156542906
0,530345459625523
0,550765027275097
0,53955898977919
0,535325003213542
0,530043755663081
0,534019689319672
0,527163128502812
0,532986426756015
0,509131375031722
0,52560991376202
0,504689076836998
0,512615299982704
0,508632848079763
0,50775639825533
0,500350618984575
0,501910603094134
0,494000238644247
0,481537381175722
0,48227507222424
0,485139895468983
0,465636708067104
0,474517518854177
0,45657573266414
0,469558828231364
0,456866700078634
0,453797756903619
0,448730826904107
0,458246001455056
0,444971579829183
0,446630014775775
0,443784715216463
0,445251794541183
0,435432096321637
0,441022700938854
0,43077304879978
0,437707973336193
0,421943837321896
0,423772841302357
0,4177423408286
0,426347978993541
0,41560554247865
0,413243999124233
0,406720958543286
0,412296862735071
0,403372848456635
0,413127181916234
0,400898304250324
0,401098425933701
0,393200242049484
0,39843530610196
0,388086007505329
0,397213015409303
0,380159916391239
0,384680813793859
0,375863199753515
0,381662049384494
0,383887417853717
0,383028247478758
0,371440255055392
0,378994685571012
0,371411656026848
0,3704461775526
0,366067780830558
0,375111393042525
0,364169579762641
0,368143832752123
0,371257641472641
0,367118427425006
0,361225945303792
0,359471734897501
0,362066799698436
0,363903775605873
0,354585111513149
0,361093196452284
0,347829549226546
0,352623668811028
0,345343399740682
0,353817316773103
0,349019268121089
0,349019255887923
0,341600527711549
0,349888206477789
0,343143193385261
0,350852983934824
0,338127645983431
0,344779653019172
0,336710366808903
0,337419553186839
0,337632557400979
0,338080774920367
0,33182277283868
0,336566967245894
0,330839107308615
0,329091063605411
0,329802870493297
0,328047331518658
0,322036572198312
0,328752387135712
0,319805010962552
0,325092246635397
0,323393414236685
0,322686243246494
0,324437217963739
0,321536423611778
0,317675164204741
0,318459158460387
0,312763796189718
0,315459657471633
0,311369219762488
0,317915140421604
0,312670630942125
0,313961112727698
0,306883761496013
0,312684197529763
0,312098174543998
0,312168488783784
0,306838028095738
0,315462672791425
0,30532047537441
0,309738712790189
0,307583326195764
0,304237138942362
0,300213836117543
0,309824974465721
0,303005596957126
0,305695523870813
0,301929823491325
0,300606033942494
0,292992020271695
0,300986405652325
0,296313755080988
0,303417216132427
0,299957673136864
0,300000758776842
0,285961975063074
0,298302107682661
0,290196185130619
0,297657804406417
0,289706335477552
0,295549918457701
0,296751362808535
0,293862636948968
0,287690261170969
0,292478189551527
0,2924511612977
0,294516493807099
0,293297033466515
0,300085534512057
0,290255942132446
0,291806937353243
0,282599312453339
0,289177391209444
0,284163244378857
0,294277468238212
0,28825018312809
0,292036252376832
0,291147743023298
0,288881378754445
0,281176269107018
0,288091094057024
0,282132132007492
0,284901285636254
0,286811908987205
0,286555027424247
0,282638052200324
0,282527475846537
0,278949494834869
0,27761480285253
0,276873462173156
0,282309423281632
0,278822014771731
0,281625449946049
0,279419211276543
0,282540109014657
0,274363822184127
0,27774042655308
0,2740598835348
0,275311570105284
0,269773737169408
0,280452826009423
0,272203220946944
0,26957555555668
0,269681628536907
0,272042768204832
0,270153874185091
0,271568102093485
0,264259111495839
0,271037736866384
0,267907481601131
0,268321548864162
0,268407067928669
0,268694609091631
0,26246342821012
0,269741709691618
0,266749766235759
0,263479915177067
0,260341478397244
0,265627670961275
0,25775362458977
0,263116966163731
0,260739580255236
0,2592904736232
0,257604918367198
0,259634650139426
0,25983544917964
0,260011076824099
0,253271932789952
0,258129850127642
0,255559807575349
0,253546991337907
0,254181572357609
0,251124962118727
0,249147190579731
0,252148939721826
0,250032088919958
0,249352287063522
0,24925864044566
0,250462420426696
0,24637187668102
0,247039484766903
0,243923815210446
0,245899145929261
0,243754534207755
0,242083413931333
0,23785755191038
0,245165330788483
0,241072429758134
0,240371683084915
0,238318874211745
0,239948861239369
0,235287473050261
0,233781579254979
0,237911625159023
0,238438495704233
0,229795585230921
0,23810134916533
0,231942353781207
0,229778915306147
0,228017271381281
0,227593645049352
0,223522461775158
0,226418921279376
0,226610517790962
0,226492581830193
0,223515013126064
0,224305777797011
0,220981279791774
0,222740482973199
0,221778001388103
0,22384366600137
0,220713707785206
0,215428827908136
0,214747394001651
0,217389314022654
0,214411636563916
0,213389794729252
0,210958521746124
0,215020355902404
0,211529072839859
0,217065782601847
0,2154496378255
0,209461522512255
0,205907149387867
0,209513054209492
0,20598676361126
0,209012191773289
0,202580756567239
0,203950588250823
0,204737552053114
0,200950702135429
0,201015921749178
0,203131165217762
0,198686267785815
0,203701116958246
0,201578280806724
0,20043129332485
0,196266215218569
0,200616966318544
0,196508997435887
0,19314152794576
0,197104775663953
0,193844301911443
0,189216981357744
0,193096101100235
0,190252329848254
0,190309434265786
0,189507693750464
0,190399701781096
0,186888572389533
0,190460836270408
0,185453819956386
0,185121786466999
0,18364364971812
0,184144817102265
0,182221514810045
0,187112325029837
0,184162069963623
0,186764013504176
0,177244152292033
0,178205731571543
0,181590068845378
0,182388385166577
0,181315004317078
0,181226729495274
0,176460828823549
0,180809860549474
0,179806307667959
0,176663468304862
0,17541248495812
0,175555167301117
0,172030308009918
0,174782984242207
0,175024836379342
0,174208674303559
0,169885279684958
0,172640073848495
0,170304245007398
0,172468949632048
0,169803748121907
0,172829952056457
0,167629557086044
0,169689633287011
0,170355971247041
0,170874240606618
0,167781265334344
0,168023480185201
0,166767396518834
0,167110244974933
0,166196084790547
0,168682101657117
0,164563789682881
0,167790785821604
0,162162844777932
0,165224239895633
0,165033232806589
0,164778680381328
0,165987952766872
0,165264820005394
0,16281257948641
0,164133912207244
0,163300730511698
0,163578324657081
0,159325700186187
0,163666260572246
0,162370859188226
0,162782659939538
0,163472633588073
0,161187972912372
0,159345202208264
0,164561790810289
0,159004846670524
0,159012116645267
0,161838372049784
0,159516285582105
0,155321125202542
0,158392631874879
0,157369753511228
0,156078958554094
0,153006508776285
0,157253169081954
0,153312336539579
0,155214881891833
0,154101362505081
0,153076901075584
0,150718844631691
0,154236585010541
0,155366844600097
0,154167508140324
0,148837799683753
0,149431913822942
0,151769963198564
0,15611704020846
0,149743543091627
0,147861786811105
0,149925034818885
0,149751635198179
0,150022444214594
0,151586774955976
0,148081282965015
0,149290331704646
0,146766255104043
0,148085242846015
0,147228475870317
0,147394731094209
0,144745692975117
0,149027116249666
0,146477048955094
0,146681340173704
0,147072519855991
0,146849336654104
0,144074036072553
0,145799431886886
0,147170495468285
0,14545632424742
0,143369536079111
0,14487567156459
0,145094697518419
0,144422986636008
0,140903779837752
0,143035609120758
0,139765301291494
0,140549162208459
0,137360915476039
0,139598574262474
0,138977252115579
0,13776045923678
0,141254391172734
0,138084351057412
0,138812430121459
0,139412624688432
0,136489676713013
0,137853126076281
0,134468301613843
0,135468964483911
0,137545139091419
0,138571746447913
0,131853985121395
0,13060022987045
0,133932272741733
0,137474041328353
0,131519201419744
0,133849119037133
0,133754049207301
0,132793775607243
0,128602024529733
0,12939838321846
0,130544231205716
0,131196728254954
0,126830481366413
0,129846000549002
0,128310990406582
0,12836837113357
0,125623279706459
0,124669749297301
0,123958080142063
0,126453593543522
0,125517626336991
0,125015840009172
0,124237933635075
0,125583484991636
0,121298885944254
0,121788717236054
0,122562389425909
0,121266560542089
0,122875386834526
0,12144620682237
0,117887966709925
0,121405870801465
0,120052182468884
0,12154815212948
0,117701593754379
0,113841424725384
0,115570383634484
0,11657620878682
0,11386146982639
0,117770264001581
0,115173566697889
0,115549210764905
0,114352962217963
0,11413187709019
0,112882904923428
0,114221983323285
0,112870124615081
0,110963405695242
0,111747351306536
0,110295171836487
0,107760981698596
0,109313987310644
0,110055488511275
0,112579879273101
0,110309651574986
0,110019490166677
0,109632066897606
0,109373042401244
0,10671865565171
0,104441477255202
0,106816982272603
0,105726796777256
0,103368884817484
0,10453207797347
0,101301458340829
0,104125840984984
0,102056171818777
0,100505796173586
0,103333620231142
0,101309915962278
0,0994842719585539
0,102663695579112
0,0997671230073459
0,101082632788156
0,0984638541727931
0,0992805744322728
0,0979971448514266
0,0972282086387309
0,0946941956788146
0,0964835040508432
0,0990627077030466
0,0966275967847629
0,0970573524651
0,0959854884184409
0,0943082021335437
0,096288149668306
0,093949830082644
0,0956731517713488
0,0930448562083489
0,0926950165558388
0,0922328443999026
0,0944631438876638
0,0956970087396928
0,0955899575213346
0,0907073895323997
0,0940716886456605
0,091411789980674
0,0923776354793601
0,0930398170419431
0,0882861793876305
0,088889635292817
0,0907675534519953
0,0900061202086649
0,0887834917239966
0,0912324966704438
0,0924241487477088
0,0905432293375378
0,0883564514674219
0,0870178747637273
0,0891236295994553
0,0891270872172346
0,088689021703048
0,0881275044735888
0,0855493423754704
0,0854759671610076
0,0850791574879327
0,0859300287622345
0,0871617706343381
0,0868660824254178
0,0840096929308539
0,0832226201292084
0,0849179572580118
0,0861578055957304
0,0835250192678615
0,0839474456422936
0,0841744077537871
0,0814255565158164
0,0806560547260961
0,0857420465481765
0,081992886391747
0,0810405720422999
0,0847732839122782
0,0807410295618936
0,0808616643043086
0,0830284683777886
0,0831796287142623
0,0799768166591434
0,0851692012244807
0,0787105366074651
0,0804665180439065
0,0817375135742092
0,0738054149761429
0,0817018664967045
0,0808887030742912
0,0799701235340016
0,0804848651265357
0,0855311791565636
0,0768606138801961
0,0800468126141086
0,0782799237018747
0,0790940198857229
0,0767069812510835
0,0768143839440667
0,0791959855948227
0,0845996442035459
0,0797988032198456
0,0835715268565635
0,0714859772362612
0,0844619348378748
0,0695694156608248
0,0820869713273107
0,0712130572892074
0,0836420530622787
0,0703014973690611
0,0845012009753466
0,065669192960083
0,0879534305534657
0,0615927693416407
0,0875852359245115
0,0679744967642426
0,0840167505332924
0,056309422834057
0,0914781770014699
0,0662670138589933
0,0880991339811715
0,0640565695586735
0,0875525329558668
0,0680346088363697
0,0835143027970441
0,069976287665276
0,0782913153393629
0,0745100844804541
0,0765414750852991
0,0800516530074495
0,0696027291229716
0,0758378919681012
0,0666782239481017
0,0803013210282374
0,0679471987302294
0,0770022672362851
0,0711312199087104
0,0785028563730876
0,0743873380018562
0,0738190603844613
0,0719045010554063
0,071455183852416
0,0710923116025068
0,073530825912948
0,0700958094193199
0,0748964205940622
0,0706800048533726
0,0713705664573368
0,072874756199078
0,073471486837066
0,0697413793714224
0,0730640106729773
0,0700625810112443
0,0712011565982131
0,074299422886485
0,0746611891029253
0,074132528003619
0,071714375406485
0,0709933040306831
0,0741064667656006
0,0737058133965367
0,0713497746466666
0,069832564299275
0,0730060295900574
0,0713028272003025
0,0722169494391112
0,0704373111453836
0,0708866929738569
0,0711609461945206
0,0755853265003737
0,0707978461852213
0,0712434249509026
0,0709946135368953
0,0719449026516528
0,0703697606601544
0,0728238989844265
0,0703886215090593
0,0731852158716509
0,068446885028569
0,0706881303200347
0,0704741603395963
0,0733523303179234
0,0697742937275418
0,0698883646049468
0,0689517500871291
0,0699708355058819
0,0720231070204466
0,0715143799083165
0,0693781080417856
0,0700607482838936
0,0703694764628348
0,0706432385368612
0,0699361371625193
0,0732216327383123
0,0710176890183698
0,0719456495193184
0,0692292569399187
0,0677643230259021
0,06888957348182
0,0719060451444767
0,0683219494874103
0,0696590257777021
0,068013265401383
0,068511478271771
0,0684889013733755
0,0694601023884408
0,0713792647738876
0,0731971949852861
0,0694739399490239
0,0713606427086434
0,0702178378094468
0,0727197289338683
0,071875270629776
0,0682889810091174
0,0669490989199395
0,0732007805327176
0,0712793822553332
0,070977733086216
0,0707135358154525
0,0719600706874428
0,0687626762539574
0,0720116938827417
0,0686890150222594
0,0720503991036598
0,0695945724674504
0,0718694547691764
0,0715178365614786
0,0687903605609989
0,0739324293818842
0,0700737261061355
0,0698905581438084
0,0705883771394471
0,0675486564771444
0,0705396270133086
0,0709385390311491
0,0699758777841852
0,0734258590043691
0,0713955591516992
0,0707820291680469
0,0747401088524124
0,0708218105924273
0,0707512317564584
0,0728013628180206
0,0689896783167533
0,0682844170616466
0,0734513258756387
0,0715233911327516
0,0708959644732331
0,0720283367003319
0,071006372001404
0,0701900456814766
0,0701085871095063
0,0710135061196099
0,072440824991045
0,072191959346829
0,0732153118601453
0,0717583027632581
0,070053338807431
0,07172005332792
0,072179458880841
0,0739873552903359
0,0730565357984149
0,0689622649585778
0,0735729003859277
0,0727621543711454
0,071564505607265
0,0723833533605427
0,0718528870093055
0,0709334315953774
0,0713850274183193
0,0719767842002572
0,0735685763187965
0,0722526855634452
0,0733740798757953
0,0705931567458761
0,072670226437814
0,0769210272483463
0,0740338575879134
0,0761018893538432
0,073276122801814
0,0722219327053733
0,0738996294059711
0,0745158943036596
0,0739826925209308
0,0747663018480235
0,0725348693964672
0,0757013342100868
0,0737516796324863
0,075087126925843
0,0756142020550407
0,0718438943167661
0,0752361249258515
0,072505676899131
0,0756346053568175
0,0737004774246819
0,0741187934447809
0,0744659036675888
0,0756237706188592
0,0758501863123444
0,0759881205802469
0,0763435240578705
0,0788416433679609
0,0758719998889752
0,0751246719482626
0,0759282114880371
0,0747891364921288
0,0745593131427298
0,0768172471973654
0,0721177667685747
0,0769558665155814
0,0734835457459737
0,0752680852747003
0,0734640989266206
0,0738933200703411
0,0748540917879176
0,0765639690077605
0,0728243922378433
0,0735352193046085
0,0742021042363906
0,0740048735737823
0,0747417749695534
0,0734989513058696
0,0719064720663943
0,0730373306665888
0,0726154417286097
0,0736771758642665
0,0734296216464543
0,0743106263551338
0,0730682054149504
0,0713771827650708
0,0700024769665351
0,0700787144792324
0,0728590678381701
0,0726430117072303
0,0733238620270033
0,0740277898512038
0,071933767836989
0,0701384575025376
0,0705337399449505
0,0709811980897607
0,0733390313843517
0,0701651631822662
0,0712287561899534
0,0718579166856725
0,0710451586331702
0,0709408987805581
0,0721205908196424
0,0691200332019518
0,0686625492126945
0,0709438059207239
0,0675219974841084
0,0695441923220643
0,0690009054024658
0,0714621763529348
0,0672492076998445
0,0705878785065577
0,0713518803447354
0,0671948737337446
0,0690328002454361
0,0696596701463895
0,0674596887083496
0,0695579345874717
0,0672573682724558
0,0663113810926871
0,0686090906166234
0,0686803211838345
0,0692425502212788
0,0702315383162699
0,0686491507684998
0,067889718580686
0,0694905088242494
0,0674463409222362
0,0676949029947917
0,0714153405663855
0,0682987688481727
0,0684944511808528
0,0689214567870031
0,0694206164155852
0,066842285697383
0,0671954200120707
0,0691078379607453
0,0683533212386431
0,0656649349989017
0,0666399189836974
0,0669515012892815
0,070750932848123
0,0672865520661279
0,0677412770223777
0,0679698954702626
0,0703569381449095
0,0674515598896952
0,0680627701436808
0,0660068981981942
0,0709135936644999
0,068017029114874
0,0685448298694455
0,070031400102855
0,0686722672787816
0,0690128107478142
0,0686891174257596
0,0684427614936228
0,0694992019413354
0,0683640167701879
0,0665000721956128
0,0694097543632992
0,0646281520822316
0,0679431353717209
0,0663823288074731
0,0681445378312093
0,0681320912747112
0,0683720817585009
0,0683380891889255
0,0680280059851879
0,0679458164881111
0,0691363728492621
0,0687031120297392
0,0682037523724881
0,0661485052354855
0,0657594625762809
0,0692217545322799
0,0668397970133631
0,0663597500689026
0,066157819371531
0,068303239546266
0,0687021308178508
0,0661756653869717
0,0670565065380444
0,0660830647492979
0,0643121312591863
0,0646582042472154
0,0646907613338317
0,0655290627614447
0,0649215432847854
0,0654413952882138
0,0669376849782761
0,0662631647168029
0,0627798648781531
0,0645860785170673
0,0632550741127761
0,0654995227812356
0,0651884745059214
0,0634441751148712
0,0632904064409035
0,0655684206817627
0,0625296823198244
0,065553211088565
0,0619433825554987
0,0634899590729863
0,0630616527459152
0,0609461719038641
0,0629417425377865
0,0601897043644331
0,0625945646527233
0,0626008440763474
0,0627886477530394
0,0598086729030016
0,060797222903653
0,0606257046841951
0,0627444888912133
0,0593171145845196
0,0617548165386113
0,0625703678543049
0,0588691897531503
0,0597436880097825
0,0606656736327562
0,0568652695196872
0,0604825536647733
0,0601266212988257
0,0607618319709116
0,0568628858388549
0,0595745457119876
0,0590453637226857
0,0569567345163085
0,0571554042627941
0,0595367938385718
0,0597021976336701
0,0580412503045868
0,0550692688336385
0,0605492073797096
0,0583184150200175
0,0606027145508343
0,056058985325238
0,0573715137294309
0,0565528314883871
0,0578765680831975
0,056398249556028
0,0594394321499789
0,0560191031177347
0,0567750060535688
0,0565139919375675
0,0564336685774271
0,0568985887923528
0,0568577653974572
0,0551320515110599
0,0596823611826862
0,0570984949010968
0,0587074010576675
0,0575526761223516
0,0592928966047204
0,0560264517064205
0,056408746822675
0,0577294587828179
0,0567900156894777
0,0565876668003653
0,0535509856264652
0,0562919758711537
0,05635035325953
0,0565022807785029
0,0534027497940671
0,0568066964874278
0,0560848358793041
0,056203736249267
0,0547511946217468
0,0580382909724779
0,055280357135492
0,0586250697013932
0,0550548594008222
0,0559089251321881
0,0531909265278389
0,0561761328253505
0,0547825737776609
0,0540598083453735
0,0518824491196616
0,0545182495017541
0,0539021287695632
0,0566564637061786
0,0511255797741184
0,0600559764119645
0,0553144168882265
0,0543105496653665
0,0538526042828518
0,0533366982079788
0,0548441817130686
0,0504192503618011
0,0522820728319427
0,0550133216216676
0,052726956132299
0,05469579476859
0,057094515165757
0,054181852932131
0,0533120524463536
0,051902299803903
0,0536642025432161
0,0533803223477283
0,0526897178142588
0,0519939528286059
0,0557119000219422
0,0542199240060411
0,0558154238562896
0,0559059686178607
0,0530409345337095
0,0564856884202818
0,0548156896367805
0,0535037616238697
0,0579974358140484
0,0471058145052227
0,0550595484722216
0,0501207448356233
0,0559259774438227
0,0488819781366062
0,056001244295587
0,0522827673526124
0,0583214859126622
0,0525819304229175
0,0554810580905505
0,0540176681352627
0,0555723949266678
0,053770168221707
0,0535520856540521
0,0532971091614424
0,0526943451569015
0,0523349568469241
0,055484170941196
0,0536499063220878
0,0538289480194368
0,0536248990776464
0,0568872211593121
0,0516990968470653
0,0548503345522051
0,048998424180844
0,055976759817765
0,0515928689412807
0,0543577762397466
0,0500027661912313
0,0570015040142949
0,055303395431472
0,0534038378650164
0,0536738890464746
0,0493823096095715
0,0549991923337418
0,0533591561426697
0,0532360905506914
0,0525723098530825
0,0550182778044637
0,0543449986121961
0,0555967518980229
0,0528291930793989
0,053400331850844
0,05409870567406
0,0506479695859659
0,0521595926230801
0,051685212653985
0,0521993884491987
0,0531277080162022
0,0540771064550314
0,0527707891407659
0,0562757664354571
0,0515637074852474
0,0549302618372308
0,0553498315149731
0,0542455960573517
0,050697998216265
0,0565280209794304
0,0538550973187156
0,0551715235635093
0,0524412618100241
0,0528465242581633
0,0551064159980224
0,0539136028073186
0,050431393119617
0,05311683178369
0,053688999097308
0,0537945422692698
0,054123114278265
0,0531678453262737
0,0548463360943366
0,0521390563686176
0,0544711841940195
0,0513336703729371
0,0565167196188363
0,0514440295560278
0,058666222027132
0,0503171925761254
0,0707095798311792
0,0516734828588558
0,0571013780740724
0,0555438009634885
0,054675189083076
0,0535651094485895
0,0538399940541091
0,0562712229659427
0,0575288807756973
0,0532446000077537
0,0549895283093018
0,0540101009007665
0,0565064308453985
0,0544565025775412
0,055508960716534
0,0581602053623395
0,0607513018604004
0,0557847048336598
0,058302477158685
0,0530407220909356
0,0591247291293833
0,0589178894539067
0,0521039391435809
0,059511073873565
0,0543585293628692
0,0578180253988711
0,0554993927204105
0,0565408940964396
0,0552165957908646
0,0563326961886704
0,0554191580242626
0,0580883235113476
0,0551634123808897
0,0564171099383016
0,0586740403732218
0,0547712743099783
0,0600018490801546
0,0574963597493289
0,0559656555131013
0,0594207078488691
0,0546299450480544
0,0599363649188484
0,0564172578938744
0,0587815437172535
0,0584590025584004
0,0604826513662144
0,0568232731499661
0,0596432038080629
0,0651841560658875
0,0584100337990946
0,0559051155721645
0,0643029988249663
0,0585959939597594
0,0619241171874009
0,0550117161652639
0,0709375661924818
0,0606995511489567
0,0599609763419656
0,0653758559829903
0,0589284845267213
0,0663221588399286
0,0590145691955219
0,0664286485533035
0,0571571383583285
0,0719699842172943
0,0543496710909601
0,0679266242886015
0,0566595133078498
0,0719263157204848
0,0620240956229045
0,0668183988236382
0,0648387461476481
0,0613767413063077
0,0601532185292393
0,0679879692451379
0,0608020157988464
0,0657140667576057
0,077421828722296
0,066949901426046
0,0697035751596937
0,0659114273692028
0,0642584189338909
0,0788334351083988
0,063529580933644
0,0731848448587267
0,0635838728822077
0,0697614500627124
0,0664713717296162
0,0699796968626116
0,0721613305713928
0,0658407178545212
0,0689425684844154
0,0720340969224051
0,0680088235939133
0,0838945080265684
0,069912031346168
0,0725071030938122
0,065545310762171
0,0745073773423166
0,0640850852925521
0,0962037077516504
0,0693360360339425
0,0798717643225883
0,078473341900227
0,0775675942870014
0,0812130100200799
0,0802060158376717
0,076734518316796
0,0809014759150832
0,0859670994798014
0,0776399316647421
0,0797950257945255
0,0878732915570465
0,0896170075747345
0,0772460811431253
0,09359849325208
0,0837241368737969
0,0943925429092034
0,101659902580775
0,106181759777882
0,095016713443584
0,0978447588284246
0,092161034373076
0,106199313779816
0,0958433285241617
0,100744924073549
0,0988170552039839
0,103807404849544
0,101437145666473
0,103064755080778
0,109228573055787
0,10464435568336
0,108648462827009
0,107383731282169
0,107948058417122
0,121234080062345
0,11733626303946
0,118875766116377
0,113288694375565
0,136927120347735
0,114155186083774
0,119651735182335
0,11838150344322
0,121082239338874
0,123505551484416
0,121500700174821
0,124596685957303
0,125163447590778
0,132551323636814
0,125631318397453
0,132939592452623
0,142408698768826
0,13090867413629
0,143904169645151
0,123384631499004
0,199325616378414
0,135428388863357
0,156484751596091
0,154615736831548
0,172318683139718
0,178822182578034
0,171145766853242
0,172990481114734
0,186700171734063
0,183761911108031
0,192788094559029
0,200555716667306
0,20137859485831
0,210985424177247
0,213713756993136
0,216193444264078
0,237857805224138
0,241862392169006
0,248779383403987
0,243967270114587
0,248208955148774
0,259175452959207
0,272040399417987
0,267361475387339
0,280058473955106
0,278759708978989
0,298842395206337
0,312288754906675
0,301037034178895
0,313760769615032
0,314144001418274
0,336463201041295
0,322856280400444
0,352896619216532
0,350288379855786
0,351342597551654
0,357241631641345
0,366572948806649
0,378397331731867
0,368927609282906
0,401020184391302
0,389061912990303
0,394599229974805
0,402603499702565
0,403849776290377
0,400054340835919
0,407495854725631
0,420378241773939
0,419309104156238
0,445015653128449
0,454081845617297
0,471430614855594
0,431960129779843
0,411660165727078
0,422116091316648
0,420257371349609
0,462356054049008
0,4217475664519
0,445562459193376
0,447198874920594
0,431027742584586
0,43124685502237
0,433425851020956
0,43307747736883
0,430775264326094
0,443403217111528
0,435794125775482
0,444669510091296
0,436211310106418
0,423239440966212
0,461868777293207
0,428687865639364
0,441856124531939
0,433072742823801
0,434902740442451
0,429054207386552
0,435260624609695
0,435618264703599
0,454674530380336
0,418741536612957
0,429796274093709
0,424647586301842
0,439223179351327
0,426761441773313
0,420889372955407
0,42488561799642
0,420741039353673
0,424981501623297
0,412132556953352
0,419261330111095
0,464329486842994
0,40984005831453
0,417150994828275
0,408994495316294
0,415054054950353
0,420882537920598
0,413246737577334
0,402346564626026
0,412214847021002
0,398135800200789
0,40917038045204
0,401243531179028
0,405728335539007
0,404548585323736
0,413362207337155
0,40164772339807
0,404486253839527
0,401750181598354
0,402512083641078
0,399422945934657
0,401353128576122
0,399159025267487
0,402718422765041
0,399298625119549
0,404446731360761
0,398523146468282
0,403589243551666
0,400868793886959
0,402755080168977
0,394941969254477
0,399449709843084
0,40233052254649
0,397505513460088
0,396863666674718
0,398926930405797
0,39357858380597
0,392005825478082
0,391750119546864
0,389910140088631
0,386908855585446
0,383821924386858
0,388479570500254
0,382312270487716
0,401588772999148
0,384736919950973
0,367369862329273
0,376266822154901
0,366269967900516
0,37458626566817
0,366762630809647
0,375923746075315
0,374074034535926
0,355103384483306
0,353344239784427
0,353098080246997
0,349829850660513
0,351185632215241
0,334526901902781
0,34136990320158
0,331795717947904
0,354328935267214
0,37863391953533
0,33235451924875
0,357880947900215
0,331645645413059
0,327695368005792
0,323938174393596
0,33435078257658
0,312376674856761
0,318195569361074
0,321851109527641
0,322373560347565
0,3173573737003
0,312793639083387
0,320350638497125
0,309426605943347
0,317180636790882
0,312861984970901
0,310752789330523
0,311928195567457
0,312876547216756
0,317818442361667
0,324843067810205
0,296087404109605
0,306284280851587
0,295102675794483
0,296063554050895
0,296300272828714
0,288689382765098
0,311319971410981
0,290038249602079
0,285746084493694
0,285674643365207
0,276148408519655
0,285285882906729
0,273582299851141
0,281810471651841
0,266771604808803
0,285392838108619
0,264665092589621
0,27305555219979
0,273083672423589
0,271222575910145
0,279340324024381
0,264388450545984
0,262980079729791
0,265358180334487
0,268046620376677
0,257357646923715
0,25437015642501
0,254667329248194
0,249737870515629
0,254561544769118
0,247721744635662
0,24676426607279
0,245761997609992
0,247482806128438
0,263121483108343
0,273697214559643
0,257042995581247
0,240131233516626
0,24007321616212
0,243039414308603
0,239255605449656
0,242691612602283
0,245134709325211
0,239170460954869
0,249742636136794
0,237636009006645
0,260561762884615
0,249578071447735
0,249198478410581
0,248699097510482
0,250168160292974
0,254015419267046
0,270716886589609
0,263665138973344
0,273802612566402
0,263246516948952
0,27918162350454
0,277733168517849
0,283395763934588
0,281629011165772
0,292962968984572
0,29122718918519
0,299622079015023
0,303752796713921
0,312851728050427
0,313733937541669
0,327245812050208
0,325688563165868
0,344321757227435
0,335462352466866
0,360633606707867
0,357940148468601
0,365883651118081
0,372620099094786
0,37136192242926
0,381795345849235
0,386454061656178
0,393860288316425
0,40261915796563
0,403000747682063
0,422712013246215
0,413641857082518
0,42211048559306
0,418669464015118
0,430179272915242
0,440426882226672
0,445375986025883
0,449554685076313
0,451229678230242
0,464585986537529
0,449981796360602
0,464673578631487
0,464524670423913
0,465969709213753
0,471921902230855
0,472081024062692
0,474567387133741
0,474180251252059
0,487909494735086
0,487350692846582
0,488268895965869
0,496381994376862
0,494658835500667
0,492706926214413
0,502750059355625
0,507633013038949
0,508810781859277
0,507107234885067
0,514295781314115
0,50984609658645
0,528447256967199
0,533361227352586
0,524551581000533
0,533910962602781
0,541295844682713
0,547929196997083
0,549085360658865
0,553393794284971
0,559744719426997
0,560712286032164
0,56265017780494
0,560330306616084
0,57419224164826
0,573323286819542
0,592898195836502
0,588307192838995
0,58806968902403
0,592502839039639
0,591785686732844
0,629198589457746
0,598614562571429
0,610499026613105
0,608270583706791
0,615268756760845
0,609008396815226
0,615677313422262
0,615368421564125
0,61664383573467
0,626208738193577
0,626230749524247
0,633258544141103
0,630025169959308
0,62931266202649
0,622666220132669
0,633774663263639
0,621530207680362
0,627030572005654
0,63666372412589
0,624747780639496
0,621237043417336
0,634779198175843
0,634232897519467
0,618389209604401
0,621713215364561
0,623392439384461
0,645279374604798
0,632451962971772
0,624175984461665
0,627244617660324
0,627901282738155
0,620761268863314
0,631020967280097
0,629609414627918
0,645076102424327
0,643321291415238
0,639559296256584
0,635219724311435
0,63216877703193
0,646886712575785
0,650580299598949
0,651581369296613
0,659800535926949
0,662815434435306
0,662403700857843
0,654250711907854
0,649634395003182
0,662191101103824
0,659962672961563
0,663296549918496
0,654726154596471
0,653053819734111
0,659674543990989
0,659322712550389
0,655533342244413
0,64650704680311
0,636990973343129
0,637027798312993
0,633041381315789
0,627452842094431
0,638395448097487
0,62638891123273
0,611906982298869
0,614975802733983
0,597896979990606
0,602114821689707
0,602144546822802
0,595585390270802
0,590489281644351
0,588699443858955
0,586090438883866
0,58243614753536
0,580751842412706
0,576831790480047
0,571340283450525
0,575963287211212
0,57668294745891
0,576162599257522
0,56847767201187
0,565785033267748
0,567442684871597
0,568884187504331
0,567178399836452
0,568421596861716
0,574565030042487
0,581469627514058
0,567309452389372
0,569904543889998
0,560627508509534
0,567396306622791
0,560045418453123
0,568293016701733
0,563223121712898
0,562844282874899
0,562516144879031
0,566000156551698
0,564771798430385
0,565915217305194
0,561629904434651
0,560545697935241
0,560675671452485
0,56013908891685
0,564009692290502
0,562172730914802
0,557831325518904
0,554539737423578
0,560025090985454
0,559970416026009
0,562237822476198
0,558623469523153
0,559647116179868
0,558838766291439
0,56075199243249
0,557061578031461
0,560444285245227
0,56243560744363
0,559772243829452
0,558049714805557
0,557568620338566
0,55928584993944
0,562360908788409
0,561535563740478
0,559352734102843
0,556832564968821
0,550928893153427
0,553355133731533
0,547233527542763
0,543059289867431
0,537612547536358
0,537844900583176
0,539872261792933
0,531470137006936
0,528429330740989
0,521518635960302
0,515355817076581
0,511876527926084
0,506275246536217
0,502948862112199
0,502360933033769
0,498758016500869
0,49552049342745
0,491415201329348
0,492206254418979
0,492482509494756
0,490427369591112
0,485185467058911
0,48475222157089
0,485258268002859
0,484852618078934
0,483759131175141
0,483376964149791
0,47773426659551
0,480068570856849
0,486735256992576
0,48445407941605
0,484088964348604
0,485980982280491
0,48898027964769
0,493833668626368
0,491079095654088
0,493261640584322
0,495665197815588
0,497076100131941
0,499505964788562
0,500888577429807
0,508758369860789
0,508929500502101
0,509243265236837
0,510652148507999
0,51352755681636
0,510625425693893
0,511673592189964
0,512140153074968
0,510595014625148
0,510486898574882
0,511243958954795
0,510362649404242
0,512773442376058
0,512176296319203
0,516132631265647
0,509241999290069
0,510685716117314
0,508323244074149
0,507171209583888
0,505790827948063
0,507491690504737
0,503059759695379
0,501693851531214
0,502945831062129
0,501123139335892
0,498678299523471
0,497362931350212
0,499226079889754
0,495243751491976
0,497933632855867
0,49428152721717
0,491958784674574
0,489474186658174
0,488075502339868
0,489627401517074
0,486508195533471
0,484261964739101
0,483861853685161
0,483721268458633
0,479250038462934
0,47970024462079
0,474022115268844
0,479415192783515
0,477070524800325
0,475281538902203
0,474320510770723
0,47537199167373
0,469213395635054
0,46598150727335
0,462974290934262
0,464264789752272
0,4588328709143
0,456882840437262
0,456349794724082
0,455011585124295
0,447745081434632
0,447359909356068
0,445545918836348
0,443180977165252
0,435553497916403
0,435353372432834
0,432360496701346
0,429214931776386
0,424627882686855
0,426250061219629
0,421608760944921
0,423283927299334
0,422355354648045
0,420833730385898
0,416712182249857
0,418110117003488
0,415878369474622
0,414091275889386
0,4115432675971
0,409703131726487
0,406493329142087
0,405326082356784
0,400792367397509
0,394069469764984
0,391322859702898
0,384181527152066
0,37959550970463
0,379380501960801
0,375811513791878
0,370796384798668
0,368861589381519
0,372510192375617
0,374538195595186
0,375692191329943
0,381479195871426
0,388103561323246
0,400170697594054
0,41009477360779
0,420172413252936
0,433935466162504
0,4487108086391
0,463961231661664
0,482293065436639
0,498621096289817
0,511866760892703
0,53422488413536
0,552823416734149
0,569142661941805
0,585840253987902
0,606850507998931
0,616986998229391
0,634456728845381
0,653703003239484
0,663583449695913
0,686040348207041
0,696816055125632
0,713123155838503
0,727503878428828
0,73039894099666
0,74633780973595
0,758270356908437
0,771640690912568
0,779462129938483
0,790134585080854
0,797058645068801
0,810325427838924
0,809472164196513
0,810711734608423
0,817095158246872
0,823969621502379
0,83556433640037
0,832297194434548
0,836345745223979
0,841440727501163
0,84134348999662
0,851186683824796
0,843713421049432
0,840788212673113
0,850236542232557
0,85186154423037
0,846611069934746
0,854574899967923
0,85258354972007
0,856896040914501
0,872537367195963
0,876048280854591
0,885535791843433
0,883820521840278
0,886294103917804
0,90067609219745
0,899431835811955
0,904424807379863
0,918227332771344
0,919057774906788
0,933883071260992
0,950696450518357
0,965722146006713
0,974785517956241
0,989756943284669
0,989346070377326
1,01372367384242
1,01752443827704
1,03288520319737
1,03103162428169
1,05225567737467
1,06248764752923
1,05749764259863
1,06140403539185
1,06894463914625
1,0758207386837
1,07288315083588
1,06173292915202
1,06263987490929
1,05973342877109
1,04451516697773
1,05749979973199
1,05180446745598
1,06267342611805
1,06874085794345
1,06328701739999
1,09348637041945
1,10305481218611
1,10238130379382
1,11657841559977
1,14277206152638
1,15731820463345
1,16803416835253
1,17231902199427
1,22433741106857
1,21680621904379
1,24555151063864
1,26343360831912
1,31438738740413
1,30907842392549
1,31560600662452
1,33621162686682
1,34124050481042
1,4119264872778
1,37454724538434
1,40543634896222
1,46280934579291
1,46743060080235
1,4656181446204
1,51489304751612
1,53580289161854
1,60819025627563
1,56577820907445
1,63588180860469
1,59142364905648
1,62432990325116
1,69816884915232
1,67451160381848
1,7514018579348
1,7900834600057
1,74088467589665
1,68434310533509
1,72555689944641
1,82716720701576
1,84482113584433
1,78358273303872
1,78480448995059
1,79656688966849
1,81253460328277
1,84869842172794
1,87962235116617
1,90064558611312
1,8428923998076
1,82459791697798
1,86236136153584
1,75878846373272
1,87465800099675
1,85280669647023
1,94009986342878
1,87841291181667
1,92412786876903
1,85747347334943
1,87554329414137
1,95565522058298
2,0289762301702
1,95207854973334
1,95559893151488
2,02571409143014
1,95358965764617
2,09386870710037
2,06925384716636
2,25263970105465
2,05377753809194
2,18452835875625
2,08518108241699
2,45830522186132
2,23566526635159
2,18565215609614
2,24637567442977
2,24110863040252
2,12645763567535
2,31077998539266
2,2898036814882
2,40757610450483
2,49361313077273
2,03551060540756
2,34796666619086
2,22939186959626
2,35895196128407
2,2015017041247
1,98014093017506
2,38142304561559
2,41242328554159
2,17502515428603
2,21182690625114
2,07265359671792
2,47545627482986
2,15850262286939
2,44137634649195
2,26858226326266
2,50078774819848
2,11245250279433
2,27794465023687
2,18586311165075
2,15562254596365
2,15762231087838
2,14446885174714
1,91229545104676
1,91140780795345
1,77621338804975
1,7980092395636
1,66273060426183
1,68367645812285
1,55870495287349
1,5677777390162
1,60236384841771
1,56412907010767
1,5802107294525
1,52449539678988
1,51449151325826
1,46409752932799
1,50950768065876
1,45489709534718
1,44341038762894
1,44719780934541
1,43315175695878
1,42875539382356
1,38904608785026
1,38929134055115
1,31044773624062
1,35208342553834
1,31916205124953
1,29826822488917
1,22540728061389
1,20705702828091
1,17604523544389
1,13393958373648
1,07663659840426
1,07780054519582
1,01855181584766
0,977291977887519
0,929984504023205
0,878939993848724
0,845458548076199
0,8141976326836
0,762135809549736
0,726842441689832
0,696929057956755
0,662836770777635
0,630899803159228
0,623614009053939
0,584879214620756
0,563125802158345
0,53616795622473
0,522325086009747
0,507673100080594
0,49974435364655
0,483582557628809
0,476142512137802
0,467700004372868
0,461986962640478
0,457103323560293
0,44651297931396
0,448113204030347
0,444974390230457
0,438251284056077
0,443213334867201
0,442442832603041
0,444880823032235
0,443812725130656
0,453291631412677
0,448207244751973
0,447921617237067
0,451456233506079
0,447907977703165
0,446918898259032
0,446164390953961
0,443811600023059
0,447144046382951
0,439008758801672
0,43447755966425
0,432368964567631
0,421202897545271
0,421093887271663
0,421263009489404
0,411454439630364
0,406419395500717
0,406488125624808
0,408897606462249
0,412521437049326
0,410966291714963
0,418779396337157
0,418668397975962
0,416658479481194
0,427736935579309
0,422815574910493
0,427055691451091
0,425176763484374
0,438201222744551
0,435768497248204
0,447519535586311
0,449219021635483
0,452616380169164
0,452085552536352
0,457616768202377
0,458011950239913
0,458882187367215
0,468610062270121
0,469192776066247
0,457471767048091
0,464436205535133
0,467961214070065
0,477253483926034
0,469100047447193
0,478895993686701
0,483694598589813
0,486227299889235
0,486557299916359
0,500176807867606
0,504821557537739
0,513504055210146
0,517817966644096
0,527240670948722
0,542837720100722
0,555164983627
0,573248627159532
0,594618244090572
0,596840755717165
0,629385919310801
0,633876775156255
0,643220217253434
0,641364149550843
0,62950676733497
0,627923310359313
0,620819189012244
0,615254349188694
0,604480408857039
0,596868605171873
0,593080945845164
0,564558230325866
0,557749727238012
0,543140126409283
0,537150840411573
0,538895641535604
0,543722264923634
0,553300961059157
0,551670316715027
0,54569927642056
0,553970275847483
0,550077937061029
0,542771213803657
0,531301002658563
0,533242432347336
0,530272191333409
0,521888979329189
0,531848826355059
0,513071737313491
0,501834787079335
0,52505696728859
0,496181276597855
0,488386413223454
0,486261490749172
0,48309853601568
0,479696675064137
0,45467241308789
0,463939880917964
0,463962104283548
0,455171318593145
0,466295824570735
0,445044679423175
0,449263135837183
0,447364420630103
0,445256939959501
0,435646110677141
0,440683722588818
0,437693802962554
0,433341779301447
0,415820695610248
0,415210626995361
0,40792863847387
0,415596878692965
0,422154172015625
0,404720620290334
0,39267443426389
0,405577909981944
0,401188425155103
0,389333211739709
0,385289388707453
0,381429330428686
0,373644591923904
0,377448214845321
0,377714902438819
0,374208352087739
0,363686731854897
0,359377655830833
0,363118638984515
0,374706339714168
0,360042438894334
0,351928614341164
0,358003779044839
0,354822719297699
0,352009909496672
0,359015166364992
0,338696512575946
0,367293439164482
0,351788992214959
0,354374850692454
0,358022960762685
0,355427107442802
0,35662340516061
0,366815965338929
0,351297388095828
0,375750504033017
0,375571879966659
0,35818437525902
0,368981569203047
0,382551388468909
0,375390492302334
0,374409045838455
0,384462757211025
0,386804436241596
0,385886573752328
0,399246911204833
0,385706654734874
0,418853796721013
0,416616060137236
0,414337173140032
0,411858868737444
0,439195476921433
0,434658792355081
0,441173299420976
0,454815746118152
0,47390586221713
0,477864488823511
0,494317993950526
0,507005628745888
0,517337431646965
0,553988113352047
0,584511494063761
0,570823926135834
0,594362894004154
0,574108141122092
0,656796189296957
0,644569713685278
0,688492919726132
0,677050544581643
0,728425244588136
0,708640478843388
0,705408947287953
0,723793154641321
0,721678328157567
0,72001557718828
0,740894278315495
0,702857044208667
0,681527065489908
0,676686063292994
0,700107494722138
0,665361908969428
0,67691594609381
0,656867128784607
0,669371546835954
0,666883956413514
0,692481061032385
0,702150879701252
0,68210115591007
0,641918860374768
0,650255948759799
0,632311812504928
0,657044843812275
0,640457247138376
0,607419228717706
0,581320778333879
0,61690455086632
0,570307750283021
0,564591753706746
0,546901480975071
0,591873491020239
0,537511917583839
0,557179766915135
0,558490954215656
0,565761450896078
0,524116068500439
0,55443584091526
0,551532786358514
0,586743059068452
0,568702661544166
0,606360437315844
0,528169052908239
0,572293890588895
0,56414117879986
0,541914820667041
0,559289143713458
0,579616218646793
0,563356016424736
0,532339082005634
0,570425957704749
0,577044920913181
0,550676204602035
0,572690105951578
0,55340250692155
0,609832451984895
0,554119314434263
0,632431500726833
0,594317607840297
0,629077633818859
0,582395763228841
0,639233600459911
0,568929295149387
0,624790289862727
0,612719542433183
0,585817412874115
0,588553349713892
0,704542935065275
0,614175683283316
0,657843321875754
0,657569503850686
0,666723471964598
0,594627951850464
0,689802792676472
0,638483277011942
0,700611299364639
0,730477010110716
0,804213869337293
0,803162196498572
0,824961517765486
0,731709750122017
0,85154828659398
0,804741542327624
0,858421396275432
0,81799745514767
0,89862756611195
0,900571151102415
0,956826793019612
0,83137341027289
0,891075568091442
0,727082460468315
0,789186114272064
0,775658927717856
0,814968486180286
0,695837456869817
0,777888494695454
0,74188527483815
0,819535831906198
0,877262845491901
0,752373605729651
0,804502376536763
0,851736322517405
0,767420416891209
0,908488557667819
0,734910430746943
0,733159354497547
0,713446061284627
0,758751940705013
0,765730778300304
0,687706726208886
0,694968869031006
0,766914756787963
0,643407198550529
0,758311077425866
0,77203695459029
0,72598397782631
0,639165948077419
1,05183154343208
0,850095292327846
0,771796245862624
0,872666026036091
0,923622302793216
0,717077532318624
0,935415434553738
0,751004428629331
2,00316566904666
0,719470385757836
0,831589015272395
0,827126961739011
1,09375542730404
1,02637437383734
0,743819082917608
0,735435111849672
1,00837338410716
0,600398179354356
0,874889461901645
0,712964051402248
1,39277657813415
0,515665949112518
0,746166007308144
1,1885881364415
1,02798587365426
0,578127004660506
0,624811192015584
0,79265963796313
5
0,868045459331959
