3596
4000,36533379555
650,420452594757
1
2
2
0,0162687705867088
0,0126931335685705
0,0202879181801171
0,0137360594535061
0,0171553703075028
0,0123658486314965
0,019895005006116
0,0114412933565284
0,00986400351965659
0,0134574638906304
0,0191763782546385
0,0190430660133392
0,0174866853021112
0,0136430105231914
0,00879341391120394
0,01738669351627
0,0164111724573538
0,0172329511710445
0,0137415352388089
0,015395886771519
0,0122464198459382
0,0214473439327084
0,0195672821119354
0,0112372691590984
0,0194538879553277
0,0213348487620619
0,00843870181585975
0,019479590105744
0,0190331148937244
0,016517963849922
0,0218761130681936
0,0184177007778193
0,0200052133719489
0,0154157653282747
0,0121000263281071
0,014249114056415
0,0189435900477852
0,0148063526302352
0,0215738610915783
0,00574158019644728
0,00859114356074721
0,0208545572391475
0,0208615542729601
0,0162530464255943
0,0285095197253263
0,00571442624001986
0,0169465999444607
0,0131540133584252
0,0146977030993221
0,00941678294848512
0,01747578234185
0,00668520480077951
0,0194072643949753
0,00583260312592495
0,0289215989919967
0,00986668884294593
0,0183876095261827
0,0102399489009593
0,0168559487501328
0,00741920569374375
0,0379949950486902
0,0102356019967089
0,0210975890126498
0,00699484885199882
0,0207112669026293
0,0054941258805265
0,0143911489716409
0,00858538139998634
0,0166519353186435
0,0122340791166581
0,016797420980059
0,0258263093923832
0,013511286941962
0,014008762907808
0,0115818568671519
0,0103964899425779
0,0132833808270212
0,0152996623559604
0,0208688561342908
0,0274697386944291
0,00495877255302639
0,00924212458578057
0,0186756184493262
0,0145436957273349
0,0206704884117496
0,00470676947684185
0,00500237835966437
0,0243955563830228
0,015563983721241
0,0089153876824371
0,0156441165794276
0,0146336288733907
0,0142805203244361
0,0183046142887592
0,0105116879306427
0,0198194518642162
0,0102072863698882
0,0222780990134234
0,00812542282850857
0,0266639204770519
0,00355933908030727
0,0391984093747785
0,0120196103183886
0,0223409294985796
0,057059135880246
-0,0068800068827013
0,0448302856714671
0,00429195666644408
0,0173329658241208
0,0108882990888866
0,0102658765956447
0,0113571619788149
0,0201455995286358
0,02049074005809
0,00362185896841682
0,0192454566065599
0,0138609166431217
0,0213617173955183
0,0127240832364871
0,0136402839481534
0,007243269003748
0,0443329470243352
0,00329389858225392
0,0160982959756648
0,0211630840665363
0,0114066364989523
0,0257438330920886
0,0305125969671013
0,00752249155389707
0,00877921133717949
0,0104383219250365
0,0178179422059012
0,0112597582024108
0,0232417202861545
0,0273445912648511
0,0123098131514457
0,0266934957074973
0,00681169555551379
0,0380447316162627
0,0173727790791508
0,0048629839651766
0,0165529249006131
0,0117133824566798
0,00803867520380936
0,0137125207330249
0,0087730933401446
0,00843885399554308
0,0192635796324117
0,00378597967803152
0,0164447081994354
0,0118195623529479
0,00562845795015008
0,0287033084618536
0,00806834178636594
0,022914662088383
0,0491996928494818
0,00342434237497349
0,0315132353699952
0,00411788302920263
0,00550959728150542
0,0379723621663494
0,00857443144536239
0,0242750067073582
0,0115506306206032
0,0208166243888063
-2,35774987700509E-05
0,0234223067754596
0,0158422066658616
0,00907110665872841
0,00275612928275384
0,0242202175357537
0,00992847152444456
0,00744078309615309
0,0281615974820414
-0,00324098835639904
0,015085993061087
0,0201226000646223
0,0119854977831362
0,00700993235449101
0,00864851948688431
0,00804172985197531
0,0136836694706545
0,0191433805837982
0,00396593444928869
0,0270004389904786
0,0104953888289686
0,00537640518730695
0,0218784219722357
0,0200548425599827
0,0112145889419102
0,0433773882144894
0,0418393315628649
0,0130039487182361
0,0108458425902
0,0202588464491158
0,00500732990330046
0,0442574759146783
0,002611355867155
0,0129252033558071
0,00873868901247014
0,010942900540116
0,0103423563780668
0,0111916611358958
0,0180343108036296
0,0180730062424548
0,017040246464606
0,0281551368324984
-0,00224366821511119
0,0222353755771184
0,0042937634705116
0,0365993792494329
0,0185633677553605
0,0456857941359009
-0,00314794509962331
0,0102516357605387
0,0133366070672495
0,0195800887736544
0,0153023062595986
0,0089125484189473
0,00702969144688922
0,0219642914759415
0,00779332342766094
0,0134787180133831
0,00803638383748416
0,0168348774978512
0,0145761046395596
0,0171836348520521
0,00993917851834111
0,0141619995812318
0,00380741743571821
0,0222575744727064
0,0125476024743708
0,0139318191109609
0,0113542548855335
0,00729454614231141
0,0261577308570014
0,0133230372268632
0,0144528624168555
0,0175118133300176
0,00686026826682267
0,0123192398556523
0,00787999110755052
0,0217091607210923
0,0124042253015674
0,0180618038664145
0,00125129928414687
0,0271892654547706
-0,00641254845865841
0,0229500133174595
0,00196978918031005
0,0393666590073332
-0,00271195261273221
0,0229635187609087
0,00495855874362669
0,0291033816152524
0,0120247490022716
0,0321111310697178
0,00980761107433168
0,0078312555729724
0,00795248745438481
0,0358509782340527
-0,00091274499618707
0,0190546570778978
0,0173752664319568
0,0247998061134716
0,0162415402440338
0,00552526718616367
0,0276670106737815
0,0542825169378206
-0,0136988453832467
0,0237481647579947
0,00565406198258964
0,0312158256988867
0,00691649147288952
0,0202547427918063
0,00368039716570905
0,0192924992923598
0,0186521688198426
0,0104284140481703
0,0213447774243857
0,0179436871523874
0,0233413464330384
0,0155858156027695
-0,00268686334720037
0,0403171675173514
-0,00906466423169531
0,0447391606689136
-0,00649525670982146
0,0215650576836784
-0,00447222316222332
0,0176385603843899
0,00319000493463279
0,0401342476713003
0,00957902253516813
0,0334171019522824
0,0134728254022968
0,0256556482380872
0,0111333451228608
0,00887110161877604
0,0142565208841404
0,0189724713716998
0,0117723534040026
0,0178246112256034
0,0193775727905188
0,0134000428899015
0,0165314725839558
0,0155796415007442
0,0232266815005972
0,0314348123810204
0,0110803187172524
0,0142053583708832
0,0167032298868637
0,0115959251575216
0,012210390726291
0,015344910034834
0,0121580656444288
0,0124660655072195
0,0157613660900936
0,0182280292836763
0,0192220973254951
0,0143676380163817
0,0179561574209842
0,0178803283443087
0,0161804055320755
0,0146844354545311
0,0110330188010277
0,021274087470708
0,0176323796560509
0,0178137318925782
0,00997530765190658
0,0349628494636256
0,023411541131914
0,0151001555487841
0,0275974552186424
0,0145085709689685
0,0097419919295527
0,0239119558123467
0,0209801171248319
0,0163345546404823
0,0137617529551345
0,0203667045454799
0,0136200634089334
0,0279566967656025
0,0261966175454493
0,0223801716770748
0,0146705782317998
0,0394519883652112
0,0164503180922571
0,0339661595164881
0,00827584714976695
0,0270060045429244
0,0098073564814021
0,048221483581859
0,0198339337340436
0,0163545342602829
0,019840618377702
0,0135923949266836
0,0287448938210903
0,0182432085414948
0,024120667780166
0,0197575219472407
0,0219496709442785
0,0269019668371617
0,0174937834281892
0,0191843791374011
0,0307342926751928
0,0330929453460966
0,0258504591536791
0,0367877171007371
0,0202602593677213
0,0267066273332059
0,0321974705850404
0,0289551670674069
0,0434431800956295
0,0384037460207583
0,0285838070146032
0,0330229292922038
0,0124957519511773
0,0395039801726872
0,0121671077455783
0,0400629937511532
0,0259822333439871
0,0391713374472827
0,0307422778422776
0,0407850055843804
0,035719494628038
0,0426083751611725
0,0294021923946171
0,0484886895529651
0,0257323253378301
0,0456458938680345
0,0289532005942872
0,0592606268256021
0,0296747402757394
0,0507069191478502
0,0424616416756507
0,0743592878959067
0,0254362468126549
0,0712810497372426
0,0372779661318393
0,0470878940923723
0,0385858523058032
0,0401986411642156
0,0486810726919357
0,0529244533277396
0,0478138128955861
0,0540429850282268
0,0502909241917536
0,0565958766994394
0,0462893643514616
0,0701013035541557
0,0490494357191773
0,0769752771141632
0,0531657369444671
0,0755358002114032
0,052317497394528
0,0699907406763257
0,0569721067596477
0,063178075752817
0,0637826332167268
0,0639041713272939
0,0723003342072235
0,0649658805001118
0,0728521558458131
0,0682702434716872
0,0769517891531298
0,0795057225089906
0,0722903781418607
0,0765274886441114
0,07678143768501
0,0894810757519993
0,0769335209455019
0,0939778152566565
0,0918261112715524
0,0941667779533897
0,0780216636725798
0,0909350485519198
0,0779468142201315
0,104880759133551
0,0909503137902994
0,113500483432709
0,0905219036870433
0,101873612972297
0,102170964495988
0,0917669153912314
0,0976238967499825
0,0988152145838448
0,106218959814429
0,110839043595659
0,104012357038482
0,119783678507437
0,114306315221357
0,123316347343574
0,118161867234471
0,129321480931322
0,115011498383812
0,133027489199002
0,124329493127296
0,138967371963004
0,127269855136156
0,137750785348114
0,126774839140925
0,158092688354743
0,139965513247385
0,141960839287786
0,14136841785992
0,147335755542885
0,149366984302982
0,149707342483119
0,150210589890738
0,164122761856013
0,168601530940233
0,15316824839354
0,14967482234486
0,171425220713041
0,168167984245707
0,162525417342011
0,156071194182346
0,17621689928829
0,170357297700186
0,185612460242232
0,167075718490881
0,18702743734299
0,17952567962563
0,200321671377239
0,189074911495697
0,187443419767537
0,208270447194845
0,222450127277396
0,193830630680977
0,214335575468657
0,199268304934794
0,226285747991142
0,198810703274414
0,222323086542791
0,21483588437676
0,217887769607415
0,218381582515729
0,225682365805616
0,217816136035086
0,240416076241391
0,228987217663273
0,235618299855036
0,234847966922796
0,253678868401957
0,242800719332579
0,267765065016333
0,244708669581689
0,250712832285249
0,265231090478701
0,262845765032265
0,259967417774951
0,272172028595542
0,264714836246578
0,279039446514523
0,286801946844905
0,280148136092591
0,269124011035601
0,284584849306023
0,277906919551133
0,293361128966086
0,291636694264356
0,305913418347648
0,293464708575065
0,318765364811481
0,312566246005809
0,333429242773429
0,307160583599016
0,309991273253522
0,321445606907953
0,327387264211477
0,32996220199806
0,343052543838634
0,317145716787011
0,344434703956872
0,319028558631011
0,331865307610048
0,341167547259268
0,345426846402458
0,34283877515826
0,363720614844472
0,344210898401062
0,359688027026393
0,354663896997437
0,3549174529325
0,353452371857165
0,380842702489894
0,370525960706784
0,395044951711707
0,377781243687828
0,396468826629675
0,390202423971266
0,391196750255192
0,380331330915482
0,40389336544184
0,406646980337159
0,403618345154653
0,409243946842747
0,404493599728124
0,405849710906801
0,420574727696509
0,424237612319541
0,436880547937432
0,425536361493655
0,420500057133005
0,400055597429682
0,433037391579862
0,423133372918059
0,430417198914491
0,4521407284467
0,456777961309595
0,446663799773192
0,455865394439694
0,452011618659631
0,478060052474866
0,46477018586553
0,473998084118902
0,480317185797061
0,470898780814859
0,471345752757274
0,502317171773146
0,484279674494882
0,472986080662956
0,487691447997343
0,493802006471277
0,493095850196569
0,504354423551787
0,493447474582139
0,506037580289118
0,499236537155272
0,496588708131847
0,519033396149021
0,534550584119571
0,519167785509355
0,526624877540293
0,504068490894112
0,531868162168841
0,543276869855605
0,545090580776065
0,515430807533165
0,524117617960395
0,515018286673943
0,534965389621262
0,539143423037449
0,521809584519792
0,52142015706734
0,544014053941594
0,550408722572377
0,558670856288957
0,540541606166795
0,547085391801438
0,561075679877132
0,565679902185424
0,557687697900586
0,583031309657949
0,586922443673929
0,577849996586591
0,583805382479439
0,567265407063607
0,57894269868228
0,610682611851565
0,580974663844708
0,596098359407447
0,596639896269206
0,60805052510437
0,596298901419705
0,583968096933775
0,594606996423504
0,593520394448649
0,603937138465208
0,605238417319789
0,587484351978777
0,609340590401062
0,597080740823413
0,598534795915688
0,60982035999395
0,627397057358841
0,626341755949223
0,603883773013607
0,607991603883089
0,617762851002629
0,628124214308514
0,623473845226679
0,602000040328274
0,621301929194441
0,64958900006019
0,65080099149737
0,640418435742032
0,63380612064242
0,639174219423744
0,641438665236479
0,627363895240451
0,63205818396048
0,639574270429127
0,653602913534167
0,661245053017888
0,651489471597313
0,650968396709046
0,679869923959621
0,648418334739165
0,637833509470549
0,687087237163509
0,666107422393167
0,639316430242076
0,644668430739343
0,669445067177171
0,678495349752159
0,643532064498512
0,642882047515099
0,658570694537024
0,668997793296443
0,686876478730251
0,683887352321114
0,674369431496334
0,653556494479089
0,670012249099805
0,687127564727732
0,665741399818989
0,691360031787594
0,688846804442968
0,665077065539198
0,688894239703828
0,693283503932267
0,691074325919354
0,656671756070303
0,672297544661727
0,69755790558896
0,703159140860039
0,689707563712625
0,698538189679922
0,66758707453906
0,681162722101055
0,712354722723378
0,700735299140137
0,704296163845737
0,709704014050265
0,701399891785414
0,71524760525952
0,714850717759626
0,685855467229746
0,684096984555586
0,692626218507793
0,69192051675642
0,71316467372373
0,684987196578667
0,703528535195078
0,698812105243871
0,679211493986679
0,682021183136013
0,692246869372032
0,682884817576205
0,691621247340523
0,69529861058774
0,688237323761383
0,691589124373473
0,700082170307797
0,695704164623
0,694353375807006
0,711088433196339
0,717302494286874
0,716035093678716
0,694643135746749
0,674389996446163
0,707317281302174
0,689945107526185
0,689247172196716
0,69158811764835
0,709974416339031
0,693070547971461
0,694119994351974
0,716625874724965
0,70507608023218
0,683170242612604
0,694902807317579
0,704905837043569
0,689103562011788
0,69121770018779
0,687993472129091
0,689001676376754
0,685625588706
0,667137221428956
0,698364034989178
0,67442577294069
0,671754934299406
0,663818652113292
0,680262785459378
0,705517883536164
0,692865191983584
0,685445853307313
0,71134226880969
0,689180477110632
0,695679756044103
0,670470144617104
0,68749496758013
0,680658436330926
0,686994489112385
0,669280158893591
0,689661041357293
0,671372160019812
0,680152178206091
0,668589573034872
0,684748627009934
0,669953689629484
0,65593740098547
0,674065980766025
0,676289484005533
0,677719601648273
0,68620321926504
0,659617422787437
0,657689625861555
0,65822284599194
0,676751229478426
0,636415960770952
0,653859839930247
0,645793938505409
0,642951610255135
0,652914167030012
0,66408823216322
0,660465961963561
0,665156498516701
0,650520868290215
0,659275072398306
0,642172794362401
0,64691133051817
0,652870517060797
0,648461995551246
0,639037350890327
0,638010208878108
0,649136273419387
0,643224749389574
0,639603351416268
0,633314541756117
0,622375497902356
0,641603493019119
0,617605135733785
0,641581888806692
0,621913136309778
0,617679327604069
0,621318615079148
0,64472706621572
0,616502777132834
0,617751657558798
0,60678235927871
0,603452339378502
0,604734202839115
0,628255431487464
0,589812916697867
0,615647912959255
0,61009014624131
0,612952146362687
0,596839269674397
0,603531433727964
0,588422627748186
0,585737913837002
0,577418177108125
0,57127594578486
0,582239191823961
0,596288407225347
0,57166454469592
0,585466987853738
0,571788958256804
0,571996993066447
0,556515572776215
0,569800713233168
0,562683979671529
0,581408201559815
0,571987172475286
0,564584675797967
0,559908385158756
0,567349076155004
0,557609575585209
0,56813280473603
0,552484870818179
0,545358844333227
0,547697868611036
0,555044834762279
0,53737680204635
0,551797639280568
0,550220046877669
0,542426611931605
0,520812772052414
0,530049931821965
0,536326116742318
0,535712597925959
0,527454072851241
0,535132651501187
0,52531462340539
0,521340634360148
0,526856237973887
0,535047381656719
0,511088665080117
0,511379736034144
0,512326912628853
0,513451396988771
0,501951886335773
0,498150454434557
0,484276414219515
0,509625340434346
0,49967792910364
0,492526053193361
0,482235435525562
0,48909243289363
0,481992369914784
0,490454709622612
0,479259243927943
0,47572587701242
0,462626798167911
0,475044286666412
0,462276536510739
0,481904714860887
0,459844469612588
0,462055413385468
0,465310139708008
0,470575063491002
0,445294724800462
0,470592287308808
0,454424879306417
0,463920557867594
0,447346111075385
0,445425472284586
0,446345220930587
0,439376213067324
0,435016660304187
0,438262968513041
0,425705079269709
0,434569196439024
0,430124627814435
0,435153939151385
0,419254427636439
0,414242797902849
0,426742860578708
0,41573487573486
0,417178020569614
0,416226051676369
0,414918070172859
0,410605347302173
0,405439138102454
0,405432733927192
0,39966295527174
0,401865356382349
0,390506954283579
0,404740719895084
0,392532556893982
0,393421991583685
0,386754463529843
0,384392011347559
0,382786741247512
0,374804784224888
0,368159974524917
0,378513589333498
0,369950258835966
0,378778222629902
0,364538882611103
0,365742581623838
0,362169419268357
0,363044443140821
0,351228435450888
0,35762881166951
0,360516024874594
0,348242784703253
0,341249931539433
0,351539800729782
0,339644846331583
0,338981568194863
0,34680620145954
0,348763417996711
0,341512982593682
0,337482047732529
0,328017167918261
0,335945415058699
0,32434907797234
0,324990703305079
0,322501791050104
0,322212392186966
0,320062289465798
0,324678905250197
0,319760066614937
0,316912287487939
0,308584911262621
0,314161069330622
0,315212881187902
0,311060816619502
0,309661215219719
0,308054948844106
0,300360173317124
0,297775842935173
0,301400827184718
0,297784964821941
0,293121856403305
0,304258328829315
0,29531192469701
0,293931586363899
0,286578801031063
0,283102317002038
0,281907298899092
0,283317161050326
0,287418364632255
0,283838988641467
0,274779281968448
0,282190541283852
0,27500280860342
0,275378104734295
0,268930770486324
0,273096582322605
0,267816429759137
0,269969482830937
0,261866687596756
0,268556160033913
0,261177356778022
0,259913663714586
0,262036557188829
0,25884187900995
0,264195801224078
0,253752994431916
0,248834107657103
0,255592026212284
0,250120698507357
0,251328318068751
0,24400807714638
0,246903027469342
0,242496026784891
0,243692021917738
0,240594772232169
0,247242203691638
0,242102480647951
0,245115068324219
0,233339167744706
0,239679545131327
0,232436830438255
0,233139420595166
0,228531044280886
0,22956251722059
0,228312656327017
0,230907815009185
0,221654356059444
0,224894347796633
0,220785584796326
0,220054530061787
0,22012250417911
0,218557248195289
0,2140447254539
0,223541760730155
0,220457416935607
0,217850159872744
0,206185431262345
0,208937187079007
0,210764614606764
0,209941026930096
0,206605140829045
0,207803148886045
0,202132796601614
0,208348146740436
0,198619415330752
0,201193553397637
0,198653422924216
0,19984325698126
0,194345016625724
0,203637020249828
0,191918261636535
0,198239794757008
0,193739842069185
0,188976996663725
0,185408176125463
0,186274119673978
0,184526378184444
0,187399233396571
0,183255067954354
0,186499195121096
0,183407161268623
0,181550382331147
0,183828989866458
0,182556670731814
0,174406203488208
0,176089002636856
0,1788749634447
0,174530553303521
0,167660864755575
0,172739376284018
0,171205447297535
0,17149045652078
0,172684661586079
0,170311332206503
0,168768581823993
0,172508895450347
0,162489791244211
0,169648795915449
0,166976495610357
0,16663625452557
0,161388267504268
0,16531741879272
0,16407681861349
0,161656265064537
0,154147477635409
0,16198762212185
0,161931818893926
0,154643146957208
0,155796254859258
0,160121157208286
0,157952287505182
0,155259578346618
0,156922621885944
0,15384687280898
0,153773392127513
0,149291381170847
0,149879349102383
0,152303047178451
0,152055143450665
0,15123999866385
0,150539685142796
0,145564894594703
0,148250421792426
0,152694356110485
0,144104459032107
0,149229799935131
0,151923397093991
0,149942360982494
0,149491069677579
0,151218788121426
0,142983466780307
0,148550296544521
0,152330926529057
0,150553221030739
0,144434940741875
0,148916487707589
0,148727442358723
0,153201980456776
0,143546878487003
0,154333125956976
0,150784402987362
0,156344538579483
0,153655652998877
0,158843441244956
0,156449087928209
0,159358147434411
0,158203719899604
0,162205267631568
0,156703963165552
0,165270804462118
0,161222878316555
0,157743836754445
0,165653647693214
0,173348946305215
0,167377985623212
0,172744831880044
0,165647894481633
0,173128290653567
0,168670678718408
0,171242567585176
0,171627420533683
0,174453854182028
0,179685159007696
0,17500068901497
0,17764518653837
0,182398263595835
0,178284325609409
0,18260850548945
0,176446326918754
0,18029161220049
0,186630164375544
0,190589839319992
0,188840278039179
0,196638050578202
0,197832331452384
0,191779581681374
0,195460034248595
0,198838518686718
0,19768640805521
0,202074515274838
0,204983254407797
0,208875565641704
0,201856920354171
0,205604112228558
0,20363435199194
0,221152177985094
0,217376275344415
0,222490233221666
0,212677146460424
0,221330995292124
0,217999260318406
0,227632213218631
0,222521686288398
0,228960064629701
0,233931514846409
0,236667662182903
0,225488335064253
0,23652732229891
0,232746141471193
0,239792559316327
0,22813149150607
0,229206893426701
0,232023269097303
0,238546435855237
0,231796228232835
0,236845855854029
0,233714108293485
0,236018214880799
0,233855076864492
0,234564495085781
0,236616523014758
0,235548598336681
0,23426321295334
0,242053616184159
0,228823033140101
0,23460841265429
0,22885586312846
0,242532941047164
0,23546733459171
0,240037929647491
0,230057328469751
0,238373784126272
0,235828586916966
0,238697057629034
0,228212954052463
0,236887962986348
0,2337409201496
0,239248354550069
0,236601145150061
0,239404482443296
0,233060905711554
0,243207558086162
0,242249907113064
0,242187321683109
0,236678411410501
0,241088116264947
0,237369072370253
0,240069919103828
0,235657798350047
0,241471837473945
0,236174515857731
0,240981043734946
0,238157153685681
0,238317449445712
0,233508606436616
0,246858378084057
0,240109713109592
0,241651358823971
0,238812415329615
0,237934781125996
0,238435350244818
0,242481046790897
0,231956184699567
0,236932714980133
0,230716062676223
0,232049564347648
0,23148852701394
0,231367005765619
0,225538719953371
0,226550133732115
0,225387046935577
0,227474859433883
0,218403496334129
0,224878067142123
0,225568458068696
0,222630820093517
0,21432306816698
0,216955040820568
0,214249791457074
0,22142778605972
0,208134737482706
0,215607645228396
0,201988877204772
0,202641994942148
0,206283515985704
0,199450358881912
0,197429658915526
0,198030331590261
0,185337530409425
0,189931698671891
0,190173271050927
0,191181064325703
0,183143424998708
0,182945979002425
0,173122010327186
0,184586493321621
0,175967421589615
0,178711735372749
0,172923622088654
0,172618385979038
0,16478760399055
0,168533387407087
0,168574836668952
0,168218425799171
0,163477526720308
0,164068502864724
0,15798204525437
0,16532914741756
0,155640644604781
0,162432626507728
0,152439622835514
0,157597980311614
0,152976468597799
0,156229208519873
0,149894352978846
0,155531282785961
0,14732117286686
0,153974167912161
0,144190461321901
0,148099201034243
0,141752586990453
0,145289764555481
0,142120279201613
0,147901835396001
0,140962328811406
0,136492771965476
0,133725971306473
0,141336546356213
0,138632423892451
0,135367501351136
0,13382002247642
0,13607887294769
0,132750590849743
0,13706845786901
0,135012452564932
0,138706098826912
0,132919842302249
0,132227930873827
0,127276174869673
0,133598920419566
0,131114923343163
0,132031972813371
0,128913516157811
0,130030002537398
0,122815593297794
0,126672762231003
0,126671697057899
0,128213267435281
0,123895070250816
0,126354340048832
0,124777716878169
0,122542135345198
0,119895350685962
0,120841764006881
0,120174634615007
0,119822072148603
0,120943751321644
0,12002418724263
0,116510960003305
0,118104768759268
0,114195922521956
0,119662977348547
0,115695067485581
0,117211640276881
0,111736407755709
0,121094026708395
0,114497239895154
0,115816276248516
0,111599374090602
0,115732440404184
0,108020290850459
0,113157686122252
0,112637359037403
0,107736043883632
0,1140957414425
0,111969958102216
0,106030993875126
0,113392153774068
0,10478262939749
0,110327904363623
0,104966862782659
0,110438821477206
0,110223869234731
0,111676589786701
0,106716701870657
0,109058265667445
0,105247499526314
0,108531252242901
0,105397020185872
0,109998706120826
0,101567790152855
0,106909117718801
0,102691470686694
0,10736468301488
0,102468277743863
0,106244371115178
0,104569205080473
0,107984769442046
0,102878943974611
0,104163889373202
0,103923961863522
0,100506683706151
0,101448823494306
0,103545448982688
0,100376709286453
0,103094933743362
0,102727533950375
0,103108858677414
0,0980180567632934
0,100042041088973
0,0973654847969691
0,0994631052231255
0,102443782140818
0,104345949601884
0,0967433270874525
0,0998073232607847
0,101363073973808
0,103204227254258
0,0999039470569542
0,104923561437123
0,100736354739628
0,0986953811653326
0,0965021739995931
0,0984125010981357
0,0971229004492058
0,103225961641387
0,100208263463395
0,101423794220025
0,0995249599724319
0,097602121333887
0,0966701822355761
0,100896421808811
0,0931517313201529
0,100381876161385
0,0948701445370809
0,0973749705023614
0,0949730195817337
0,0969079631218039
0,0946420875439334
0,0945818142206178
0,0941861427811927
0,0948568164939347
0,0935333151471175
0,0951855735364868
0,0930071587263774
0,0954827266110849
0,0911969757853971
0,0951306101894525
0,0933917305054773
0,0958106050387472
0,0922756754108731
0,0927914314169646
0,0914621578741476
0,0914733391606379
0,0909586420489167
0,0952136398104377
0,0907429987658413
0,0893290008836447
0,0874293975911481
0,0913879123446883
0,0886848366171907
0,0925423425236497
0,0884455993137038
0,0881659123295772
0,0872319110210906
0,0912313935628756
0,0928556350345238
0,0925413166951055
0,0869247166998041
0,086809883357483
0,084776960178939
0,0870186708486732
0,0858344578781391
0,0885570304126542
0,0828253588973488
0,0821445092274081
0,0848562717764051
0,0875750107184204
0,0856168446271378
0,0861079015082911
0,0831610177807105
0,0857672650538849
0,0822973265628717
0,0830944020584973
0,0805876592643514
0,0842478250088741
0,081545124409913
0,0807066273055036
0,0792199952218398
0,0845306006720327
0,0808797545558852
0,0805139962191983
0,0800215323161581
0,0835081981544546
0,0778406029161281
0,0797635482262781
0,0750186822390398
0,0814331813285212
0,0790202944789898
0,0778397150089507
0,076852126118267
0,0777096451952544
0,0759171940288665
0,0793884612993479
0,0790958465545796
0,0753229139326529
0,0726162623518723
0,0734807573251198
0,0719306712605725
0,0749653924741208
0,0701829835347159
0,0758150036094996
0,0745954769471158
0,0722173120485395
0,0707105999642866
0,0725381639757783
0,0711002235878966
0,0753214549402204
0,0729558507712755
0,0711489327475443
0,0719177345864968
0,0742483568262931
0,066025971384632
0,0721360830160359
0,0662398870268654
0,0665213508113904
0,0679876710551565
0,0668873568592144
0,0672848866026511
0,0713787739015528
0,0653317062129158
0,069099064161012
0,0704206282799858
0,0690345261114986
0,0656838044160936
0,0663911879876078
0,062158117219142
0,065322417465246
0,0664582113149728
0,0646993370211471
0,0602140968819197
0,06554954704384
0,0648915565653041
0,0664196859122544
0,0639775261926079
0,064564296330388
0,0602901227532779
0,0631683709013004
0,0590945508348836
0,0607749121387917
0,0593207523153854
0,0594666205032771
0,0609097089057
0,0624205384630864
0,0572817423394635
0,0611854710768273
0,0607701580948107
0,0584564191909137
0,0591957495070326
0,0617727487868604
0,0585047111504663
0,0596374028545708
0,0565896068871876
0,0565191463288594
0,0550407883387445
0,0565503652362408
0,056838309634981
0,0612706266192159
0,0588617182508664
0,0599971845629547
0,0556338687806509
0,0548980550570327
0,0545808615279037
0,0571192955563196
0,0560289237051083
0,0555012615648256
0,0560293090438044
0,0599933695071457
0,0528488577934472
0,0538372047941681
0,0531477278235054
0,0537191348164371
0,0541124792084516
0,0559429292346674
0,0531241809657922
0,0543446363245725
0,0545462177546853
0,0541948228263119
0,0536763398593339
0,0542332123173782
0,0494155293115468
0,0515526005419974
0,0505695257923949
0,0538282791768532
0,0531387748135147
0,0543107239193499
0,047351913011269
0,0524239944304854
0,0516312091189075
0,051049656173613
0,0513792919438886
0,0523834814367452
0,0508606009177955
0,0515762762027556
0,0475976907060011
0,0488989272287907
0,0512914255705419
0,0515795532505921
0,0495683503830407
0,0506560085526905
0,0495324296570446
0,0502694068825792
0,0501755478127117
0,052731664046733
0,0450041895344528
0,0489926716385319
0,0499071075437055
0,0509149580448386
0,051083236033301
0,0473323531005491
0,0473689892022547
0,0511479987287377
0,0472720986238511
0,0487343479830469
0,0479315733359545
0,0517026124549502
0,0498808678287334
0,0505577656844181
0,0471293599309647
0,0470367070524363
0,046136569287565
0,0482829509281563
0,0454834495291645
0,0466707728973028
0,0463712725211978
0,0485598155345124
0,0472513030583069
0,0490500675641554
0,0478603404456361
0,0484746820019228
0,0466272151899613
0,0458060881688809
0,0448751020333006
0,0484708413669074
0,0455017540725054
0,0455943816606543
0,0451124776561157
0,0461045704737796
0,0464021826273026
0,0473770986064249
0,0439136163605543
0,0457099368451873
0,0440135190660724
0,048420714222589
0,0447191991087823
0,043756223125048
0,0434139142740164
0,0454101158182276
0,0433105469948296
0,0453069922097261
0,0445118517177344
0,0449964204672834
0,0448682056234706
0,0456105041456093
0,0458329323233642
0,0453706216139743
0,0406571206264453
0,0415418144591548
0,0434040331879278
0,0424476008994143
0,0388914853601338
0,044461396395568
0,0441594238410004
0,0433098570206858
0,0414928808876865
0,0409441937893821
0,0396276495574291
0,0415344882139546
0,042554712652689
0,0423790681868419
0,0405724754892876
0,0418288693455081
0,0409958897493648
0,0447488760928318
0,042211518760435
0,0400133425106007
0,0399926063578337
0,0407589677790573
0,0374103524414923
0,0390550646582063
0,039770499838369
0,0408790080712099
0,0362549506877144
0,0407223355614365
0,0405410750689747
0,0404805085581769
0,0378690798175622
0,0381439626425885
0,0373995803786045
0,0431292782039933
0,0399794889475613
0,037875076730931
0,0382431439754387
0,0414588425055562
0,0382362061263829
0,0371390174808354
0,0371472087482046
0,039274091518089
0,036544759380075
0,0358750850999898
0,0371128557307434
0,0383637611759525
0,0340518337718686
0,0373148983408522
0,0379937127785652
0,0374806544951425
0,0351478351368913
0,0351543119503268
0,0340964829808912
0,0361844249004523
0,0349510310933998
0,0371431934932635
0,0338459725891485
0,0350078873097334
0,0331377207761319
0,03484649080471
0,0346131564288949
0,0351774147575941
0,0337593705353281
0,0365732553796675
0,035720276678621
0,0334269985826254
0,0323871467916192
0,0355816796988976
0,0335990433971756
0,0327296929663811
0,0316108159696223
0,0322872954698619
0,0320281640551783
0,0311465122296987
0,0319018257238726
0,034892782141743
0,0310100945614596
0,0360096214370647
0,0332221465651543
0,0319496332043167
0,0327383425873618
0,0306007169388537
0,0317524766820637
0,0341706350956256
0,0317884638072997
0,0310375943403492
0,0279371956270966
0,03083328541311
0,0306677596969901
0,0309164159782785
0,0303703643237124
0,027968628069429
0,0278871109695507
0,0324252181952544
0,0321062962102454
0,0305593074406782
0,027245218566473
0,0300079609007564
0,029295812334121
0,0296415078291499
0,0246036749280655
0,0255381862651112
0,0291921236796606
0,0299056486572481
0,0297558495030124
0,0275738330475328
0,0274776813277806
0,030045427618079
0,0275005800494702
0,0288314410667045
0,0285175204812621
0,0270600315601514
0,0246126273331302
0,0284891722781204
0,0278256757610397
0,0292873420047886
0,0264643566672586
0,0283922777300168
0,0268703101303133
0,0271801549865138
0,0291495269360967
0,0269032441762477
0,0262209647016625
0,0257454862938767
0,0245349284539491
0,0270908160864927
0,0269154185426481
0,0276290610384758
0,0266956071699804
0,0254808768738485
0,0254768476014965
0,0267564524536721
0,0248839082398181
0,0251639593408574
0,0267148161592598
0,0264563620615146
0,0248939641593318
0,0242497251893212
0,0245877494674995
0,0258591927018894
0,0248572055641444
0,0259093022613874
0,0253023478092087
0,024010723739838
0,0223552244666564
0,0233981542699223
0,0233954510167542
0,0243011765716577
0,0213474345528037
0,0216335116718307
0,023092602360872
0,027096849688409
0,0217195308095957
0,0217224565855731
0,0257806636393384
0,0254406553160938
0,0230819718281009
0,0217580581861685
0,0186771164650878
0,0252553599206787
0,0204636628297287
0,0232878930058533
0,0213610028946167
0,0178274694861783
0,0239813695486428
0,0218225667184783
0,0212806140509439
0,0223214779187102
0,0261092268121756
0,0195608249890979
0,0235983178670921
0,021383084660462
0,0226129253236342
0,0200675958995507
0,0270922352854866
0,0228484219874253
0,0239202729485719
0,0216574805075141
0,0244703046649573
0,013685571582286
0,0287574084698322
0,0169451232780063
0,0281179905988695
0,0146188064180977
0,0296203929222052
0,0161200160582455
0,0295253207344796
0,00717892230313584
0,0296927646817348
0,00385765160532258
0,0354235726096045
0,0152728820674964
0,0346216963274069
0,00236750246379913
0,0386681145778608
0,0102960555517651
0,033562683287703
0,00655711412444107
0,0351821964705154
0,0124525890967467
0,0306786675791814
0,0133005467654457
0,0265628511136545
0,019812258833761
0,0248487149471626
0,0283892287118552
0,017785244733982
0,0257987215600474
0,0162554726198505
0,0288819138156841
0,0125206454064064
0,0246989772211335
0,0176378921106182
0,0237263209431085
0,0175526027451283
0,0218824924222584
0,0226084366355319
0,0207518826162577
0,0205069664227493
0,022384021230267
0,0200698139371339
0,0208842769000273
0,0192476046925038
0,0225049732072741
0,0187912091763761
0,0226087192650169
0,0206663593385399
0,0231545270025139
0,0194115984714926
0,0221178167147069
0,0209695850238481
0,020481798856798
0,0202660318635377
0,0224168129168231
0,0206076229150834
0,023450511754455
0,021566368302945
0,0198078274582422
0,0194089610284088
0,0232057171830734
0,0183054986022375
0,0210150712993098
0,0201924189059834
0,0209371825707919
0,0209074511848784
0,0218885205006378
0,0200203749495707
0,0203474756163824
0,0192190196911367
0,0198041207400359
0,0221181979634612
0,0239034741464684
0,0200417534733447
0,0218271215243469
0,0187392328253287
0,0190607387280037
0,0179105956734711
0,0209607683150451
0,0201389110467417
0,0201087788678788
0,0200603121398715
0,0228311290873608
0,0212434515726672
0,0221716277518176
0,0187353996444098
0,0206861852215141
0,0187244142198811
0,0195043164068333
0,0199496405563542
0,0207199231186299
0,0197766947407893
0,0212624386314236
0,0183593093290231
0,019251466871261
0,0204578773897447
0,0207523025105234
0,0180241259487035
0,0213864679855348
0,0206208888903275
0,0194400096949871
0,0189030796004688
0,0205946047877679
0,0191827938330023
0,0220341077216793
0,0198180684241956
0,0224752738641339
0,020984786777224
0,021613767419103
0,0203656458762237
0,0209215406907421
0,0170600934106326
0,0214846086827124
0,0220672885648009
0,0195626809414178
0,0199726258336382
0,0219780484190665
0,0182315029049195
0,0234351207286706
0,0212451183390315
0,0194242030690055
0,0200962458369733
0,0202727294403506
0,0209896234028321
0,0203189283180178
0,0213049136313891
0,0217903514677169
0,0205014278855194
0,0196887613827749
0,0179923909367963
0,0213087190789827
0,0215497454323576
0,0214109086427285
0,0213205605789789
0,0223206942501248
0,0194528491712471
0,0222303507116255
0,0193853617020802
0,0205411598657589
0,0210646218663345
0,0202145988771494
0,0199146759345988
0,0218963420964579
0,0208975202379037
0,0207666866075255
0,019360651556119
0,0197495847751043
0,0181994679353542
0,0205144152482228
0,0199169796811983
0,0212134631353641
0,0208721455836919
0,02244710619387
0,0207653923854774
0,0203302402411401
0,0189079098892035
0,0217737872153957
0,0231404476795625
0,0235511793748296
0,0185058736223245
0,0220130274484631
0,0216127599412842
0,0216037194556381
0,0198816244664779
0,0199500966121663
0,0190062350325462
0,0212161284665311
0,0221317031077866
0,0207701621040659
0,0190748451881452
0,0236598508665025
0,0195824373018491
0,0214526314169386
0,021001266768772
0,0207820539660623
0,0220481276838727
0,0213845148483611
0,0204380923507118
0,0220026269586439
0,0200992207618905
0,0237276256365937
0,0217878483951733
0,0188110034168645
0,0237223459087483
0,022161574898788
0,0218177567977665
0,0221138893395555
0,0208797409811888
0,0228739589133924
0,0211789146346498
0,0210702744091539
0,0209579154328492
0,0220898024152381
0,0215631753708484
0,0210051812249747
0,0220605271281841
0,0232563404231874
0,020717483967323
0,0219935290764171
0,0207894945492811
0,0211334899178569
0,0211049096052958
0,024227167188085
0,0220615034605639
0,0209472545228528
0,0208296309018982
0,0229887412323461
0,0213850976532449
0,0217829803791077
0,0197130941162266
0,0212824457330566
0,0220022541781038
0,0240055939755347
0,0196733340229893
0,0223636771518972
0,0205195740280074
0,0229892922621348
0,0215945411218559
0,0197285381489275
0,0198012173190702
0,0219101047305238
0,0213976036592556
0,0203954412288698
0,0219670697347308
0,0203636914583295
0,0200187738208798
0,0222332350987443
0,02085649277706
0,0187540086532477
0,0220227554207961
0,0222105304927479
0,019668678647384
0,0209060290385041
0,0194281492424909
0,0198612069845784
0,0198618498636306
0,0195490180760461
0,0213824216305044
0,0192325836794035
0,0209857664580945
0,0199191284638275
0,0213727369114001
0,0198247638694753
0,021062236213742
0,0205839946529055
0,0191608267605138
0,0200790909061845
0,0207539611354862
0,0200440382777634
0,0212326180215503
0,0199507705106618
0,018060253471924
0,0187253585172935
0,0210152551325004
0,018563726225606
0,0188536673424321
0,0192869150580516
0,0185841978100086
0,0221348250006935
0,0170189388969529
0,0196899237354883
0,0162298933100932
0,0213948483580705
0,0215548752463418
0,0214938662240399
0,0195456721331785
0,0197088514953091
0,0196523080005768
0,0183584855105067
0,0179157450602391
0,0212192583834039
0,0193709127897834
0,019710795433874
0,0191832124491292
0,0188528254573015
0,019660205955616
0,0191128083975068
0,0199807852142686
0,0202683533889339
0,018896550226863
0,0201810621198234
0,0169484789046498
0,0210488752098829
0,0184857481536229
0,0204453341521261
0,0203035938683271
0,0190883065287678
0,0202686559310629
0,0187158731434654
0,0182401973032428
0,0204467583974572
0,0204499477636713
0,0173108034105443
0,0218160270294735
0,02132593909487
0,0188599218620699
0,0186874256533524
0,0166823647615504
0,0204949036991149
0,0180373158095217
0,021038893409474
0,0206452125830986
0,0185550973599909
0,0195826672082062
0,0182332279151822
0,0199843957183778
0,0197575711954018
0,0196612500005211
0,0174544769017754
0,0204526331185531
0,0202779714095187
0,0206339618978739
0,019057973844504
0,0199369307169805
0,0197712196974714
0,0168213218102685
0,0210144869714198
0,020800985186398
0,0181166050147295
0,0168714599015467
0,020499798501577
0,0188676224925752
0,0187331745403645
0,019587420456627
0,0159827504965636
0,0166227434605705
0,0173123832411348
0,0202371938386314
0,0167397557532322
0,0184898462351824
0,0200221837017471
0,0198060899246652
0,0193340730070421
0,0182281924646479
0,018073947425573
0,0189454281476948
0,0191437753058567
0,0199777504990074
0,0207258374689337
0,0158991498379924
0,0203876970920826
0,0165874055490041
0,0189627587114594
0,0178083052558184
0,0194571110423991
0,0186010181208543
0,0192784003641307
0,016725740730606
0,014667063492719
0,0178874467332298
0,0165998899500245
0,0191041550311019
0,0162087123503248
0,0184351772457166
0,018068369468516
0,0188976419204206
0,0167904724458842
0,0166934840000754
0,0175978200859436
0,0175018386512965
0,0165999066986855
0,0179476656868507
0,0173390358924442
0,0186246632434355
0,0158424000811541
0,0183530642535783
0,0152482520705194
0,0182798136962899
0,0157173433354718
0,0155209236807258
0,0129270596949097
0,0181634118644454
0,0147867077921668
0,0169643113483331
0,0136781819173915
0,0198528101966891
0,0166642312627458
0,017165080457476
0,014189273799864
0,0177530512939138
0,0154583067069065
0,0184724084665999
0,01346942732865
0,0163699863488243
0,0158545572470018
0,01628802053301
0,0149742142731078
0,0137896975390292
0,0152284304750503
0,0159055943998453
0,01486760241214
0,0172074843703389
0,016407145031027
0,0151295200736475
0,0154949660942727
0,017840437795959
0,0159399499291163
0,0178203867262117
0,0169609203697791
0,0168075780580254
0,017193991699985
0,0139435067807975
0,0165900668533621
0,0173912744748665
0,0181607014554751
0,0119214973500661
0,015626558931528
0,0164034332486605
0,01500593161069
0,0152914667201277
0,01942847993113
0,0151723980545539
0,0153655804423153
0,0154837606079584
0,0149475266636156
0,0161608823498916
0,0161571488387431
0,0149845756428291
0,0164149978652677
0,0135835255724095
0,0139985844595956
0,0143592193677399
0,0161454830143102
0,0133069146222171
0,0187641628857717
0,0131420919544194
0,0164608774897458
0,0166555659232843
0,0159715395595104
0,0142615496572181
0,0138024835717067
0,0154002578894222
0,0148150151779771
0,0157124156384323
0,0147859611706725
0,0170233547479653
0,0151357802890544
0,0149447436794963
0,0151949852284284
0,0149810902292085
0,0133041181478337
0,0145382414041511
0,012943437174747
0,016618634845962
0,0137333820473936
0,0182095807571299
0,0190212125659397
0,0151470845114469
0,0183270750617055
0,0162484840322192
0,0149970750817925
0,0210086685195525
0,00927482221157024
0,0194425100806091
0,0125703779609101
0,0194210933933905
0,0104899433520974
0,0161667434262367
0,013888947388686
0,0191763505092124
0,0122731247447166
0,0175271904735298
0,0151666955685876
0,016669234963138
0,0137877658976635
0,0157194293398613
0,0139763296446942
0,0156607670247133
0,0151858660563797
0,0157255314432231
0,0157267215677658
0,0155175026084087
0,0129064971941303
0,0170354745935157
0,0122055812697984
0,0173241590800069
0,0120594589244127
0,0198597877871821
0,012604610515082
0,0169788878219503
0,01221450664716
0,0190453485718011
0,0130794714491588
0,0146926521945706
0,0157003871472412
0,0129731488279904
0,017378213055214
0,0136522855937094
0,0174349019354237
0,0130943280509318
0,0150001523281599
0,0151738666373885
0,0172601241024374
0,0148820312601538
0,0166194787232055
0,0171614781465521
0,0144234137451692
0,0130226116219493
0,0152560920765431
0,0159876297335108
0,0161085088861309
0,0163902665747417
0,0156774382719897
0,0200867483346548
0,0153932126929792
0,0161686002621698
0,0148931303696287
0,0167845845776509
0,0157237389297724
0,019075502692403
0,0131550822054483
0,0164688442771911
0,016088954307586
0,0145486944701914
0,0165624175038
0,0151782815100996
0,0131904170861872
0,0141042789057181
0,0156363487573508
0,0162888125740352
0,0164475413804712
0,0141991333863057
0,0181552901533885
0,0138990502561377
0,0163128425445538
0,0121474889012372
0,0196039842040435
0,0104685963024405
0,020583790028036
0,0129004405889189
0,0330264825531234
0,00833620267824546
0,0168238201192485
0,0169203226512836
0,0155504143246075
0,0152620091466119
0,0129985775670557
0,0182576949244127
0,0197997475212199
0,0154079746150293
0,0177787111845315
0,0127073649028589
0,016465752503127
0,0148618463563268
0,0163376097714317
0,0188607557323893
0,0187201231385598
0,0135450736832687
0,0196206459374735
0,0143977770799184
0,0220945274785414
0,0191752790509728
0,0150232614152001
0,0218578039944965
0,0141071835390488
0,017829657410173
0,014732407434659
0,0170110856051864
0,0138871821694662
0,0161962189123325
0,0186364242809307
0,0179769379190276
0,0151514759025007
0,0154253496663355
0,0181761157621152
0,0166211963922022
0,0195237808536989
0,0181238476999515
0,0148202330823381
0,0212439149605643
0,0146674213092281
0,0200957458172294
0,0154887733758437
0,0206135217394159
0,0160447338058642
0,021331971551895
0,0171367592691589
0,016944115393777
0,0212385042532962
0,0172201045286098
0,015089175632799
0,0199867122383636
0,0177516939291784
0,0220702908961097
0,0128083478950378
0,0297185221924679
0,0130832900413606
0,0199329661858791
0,0224759308430778
0,0134855347778433
0,0199412790748284
0,015783095695593
0,0220447725511567
0,0146988940516095
0,0280667192889035
0,0114506169416726
0,0256670842870962
0,0123220864219456
0,0275168233248326
0,017068053287464
0,0225979404078723
0,0204584687639417
0,0187582057332453
0,0174973841019672
0,0234712282148224
0,0158738399593587
0,0213813075698358
0,0284314541920688
0,0171819308321439
0,0241234626213337
0,0218766756294608
0,0189484153845552
0,035931216517026
0,0160406546182436
0,0242671840808013
0,0167978118795138
0,0248545414246064
0,0197370925999408
0,0228864150107636
0,0218715790674886
0,0187645333575145
0,0231131163732468
0,0238344022880984
0,0200895455542618
0,0341065282729055
0,0184513770962789
0,0237407604217485
0,0172782998396581
0,0275905129420987
0,0156406450264866
0,0464185178241815
0,0156285777130098
0,0346286930744712
0,0268482679906527
0,0237750548942646
0,0277937277023359
0,0272346230670696
0,0237769932841715
0,0260928523872628
0,0287010060845181
0,0248845462963386
0,0265916922376082
0,0287637953745695
0,0313018008014703
0,0216165088738889
0,0343758187873917
0,0221454945540427
0,0335834680995014
0,0349584581282863
0,0349709434651891
0,0295994516358725
0,034280070188799
0,0289342149753184
0,0414526884543805
0,0272144474795982
0,0329726552754775
0,0304036875355836
0,0354647401558689
0,0325851460034629
0,0316532677132782
0,0380103044064697
0,0314113615565495
0,0365743468796206
0,0339512684434579
0,0336840200566018
0,0417732977931211
0,0350461661453677
0,0449558213870243
0,0355784304581637
0,0566090576544829
0,0386189445747597
0,0421335281015999
0,0414220803880009
0,042191295638709
0,044757108551974
0,039500015562309
0,0454770071190161
0,0412141538839458
0,0514201794155971
0,0449601208446982
0,0489761330384201
0,05607314409874
0,0420803533134543
0,0580399041050677
0,032531615852315
0,142364023751823
0,0421624688031932
0,0640109312008537
0,0562669910572054
0,0684115737823991
0,0689379653912491
0,0651067949866703
0,0702495747553836
0,0753802109143188
0,0720880839624223
0,079871117547485
0,0814120998896503
0,0815085129487179
0,0864548794325928
0,0884502176240267
0,0913844585321899
0,107224900143175
0,0960310692365597
0,10260186901804
0,107335702119096
0,10903919896873
0,116044749147078
0,1206765109156
0,116119970194509
0,12559628207334
0,121957304936505
0,127317516641484
0,140228258336705
0,131456054286782
0,145617100303418
0,137071169648317
0,159107509183138
0,138951112545219
0,171250972920485
0,15188212096019
0,160382821706453
0,159905544801091
0,166330955082132
0,176086559336883
0,166297320803032
0,18717084151925
0,17085925281367
0,184739134599651
0,1836305978011
0,185151672787248
0,187757685529591
0,187238243877208
0,191297195657905
0,191158275899781
0,21467283005557
0,183156589989616
0,210037494472602
0,196418885179905
0,189996471986883
0,19801948379288
0,191767775460243
0,213649880546135
0,183659795017691
0,210834640411645
0,196055225053212
0,19037655320657
0,195744843969786
0,191988822212488
0,193862238082647
0,187695844698549
0,198016415475429
0,188949313300318
0,204771846861692
0,190813748988767
0,18776397998485
0,20715402004199
0,183609429130669
0,188913907671999
0,188869976378679
0,189624334826379
0,184196036504869
0,187653933371682
0,178477867034606
0,192731395839805
0,174601160245833
0,18837538528467
0,173460039699116
0,183187993766752
0,181984187117838
0,175572771436102
0,176273077019131
0,174067769226523
0,178880350324265
0,17378602487939
0,161884492933428
0,184425804995519
0,167260564269563
0,170945501312257
0,165483658766425
0,168434782269662
0,164757581699271
0,164383444082459
0,163055057591834
0,167186567097228
0,153448028689695
0,163061558220939
0,153669622630714
0,160112067515528
0,158673028970226
0,163173845422515
0,1580051416288
0,160036079731815
0,155620581307511
0,15234956273291
0,158017573938576
0,159366213070441
0,157732514196886
0,159510782362038
0,151426568939934
0,158234957354647
0,152876023776343
0,158830981472534
0,157455194644938
0,155305459023899
0,151046405083883
0,153131840830549
0,153270454738529
0,154225690531172
0,151502640034098
0,15362966611758
0,152892712173636
0,150789807910248
0,151339663168721
0,14950024035256
0,149571968378613
0,148443130407631
0,154531047277374
0,148544661405648
0,14856772678489
0,147594404365787
0,141420348836399
0,146089999200809
0,139026991980959
0,148293348122815
0,137193547436852
0,144521655051499
0,142183026162283
0,140587350973332
0,139451155774601
0,138659316629117
0,136296240542771
0,139520186659676
0,127980861986045
0,140620385588179
0,127176014889947
0,1511539913142
0,161806798961372
0,129779082878536
0,140728144193986
0,130984319669526
0,139270289389698
0,127242796055199
0,135790506645631
0,124283616955472
0,133455078446955
0,127351931378329
0,130485484204486
0,131133225520667
0,123290174609616
0,131630255253788
0,125571348973843
0,129326531418051
0,125480194269393
0,126845701674523
0,121178079591904
0,130048847604729
0,128980221773493
0,142309511395254
0,118237387178963
0,127252352456554
0,117839137040759
0,119094498645725
0,122310557081562
0,110560053640963
0,124334985601765
0,113924159244715
0,114664973284121
0,116647400822369
0,110840981217801
0,119199506474601
0,110246772670955
0,117007778089619
0,0948253457598316
0,122760079569331
0,10298783663599
0,110240899440891
0,107475812508118
0,10233383363606
0,110091992588362
0,10418992511644
0,102801138428277
0,107938978811273
0,111697032585186
0,10202429779688
0,104758107834415
0,099902955114136
0,0933345592065413
0,103180273265473
0,0949836920628741
0,0998339057750521
0,0977724970820836
0,0946010845947926
0,106314216577343
0,0855013216398538
0,102382988680007
0,0963201977912272
0,0882999695157605
0,0907620001155198
0,0884794800304913
0,0906452626185384
0,0917873488119406
0,0882330905881861
0,0994291611682889
0,0832968872131068
0,095050382533372
0,0920136166402009
0,0954386495149371
0,0943124176468869
0,0949725119565143
0,0945291847594491
0,104547720486317
0,0982788540446351
0,103689172048852
0,0942708584526037
0,111610576892122
0,101519201131753
0,107698199837357
0,103082649384297
0,112282648530235
0,105876016994399
0,113417842693929
0,115452224043192
0,117292633180887
0,117790251609989
0,128702442531126
0,113792954729785
0,138314507015488
0,122733642383036
0,143544544039647
0,144349585148246
0,138671254131949
0,147369862551683
0,144980597658017
0,15270817289534
0,152201269009887
0,154206963603644
0,162146167111438
0,152854736626446
0,166052373137932
0,161821752598417
0,169239989619796
0,167873349608453
0,171731305839798
0,168582186881684
0,176847932387628
0,188633018112797
0,163044018955835
0,185421838701887
0,175974225277436
0,192452527332854
0,186529636087146
0,186604939086011
0,190496608161293
0,185793992252297
0,193036058121959
0,186663619715863
0,199607480689031
0,200409039070966
0,195466669818692
0,199244202058578
0,194814123283207
0,19655712276393
0,20108753330641
0,20263950194386
0,205505258784766
0,204238545370236
0,210032457992851
0,208030798518302
0,215570742735619
0,220964427156946
0,214486487314354
0,215405725114074
0,214209163008938
0,223783265626227
0,221240268879307
0,221381528087792
0,227433664222309
0,226128150423144
0,230859721995533
0,226294134107883
0,233151078121286
0,23049662875431
0,241010168315825
0,241753880162778
0,240487569633777
0,243237806934912
0,220912197527076
0,258834959533762
0,239070639458063
0,247087890651591
0,243199665802775
0,250319919424214
0,247485068261017
0,250689642102579
0,249326192409201
0,250270832629765
0,256246860139018
0,255017747421045
0,253299536940884
0,247429088698094
0,253401070138752
0,249161845693733
0,254166199400726
0,252853433348287
0,249792832538867
0,250829427324569
0,249401021144229
0,25159053638725
0,24637144808133
0,25177425462138
0,247915744787585
0,257235895682638
0,248938461737058
0,253290240214888
0,252179537198477
0,250001612823828
0,252167681462146
0,250808716210667
0,243563791901571
0,256392468988605
0,240708989361544
0,253117101506608
0,25130860854746
0,25162230059396
0,252824172773606
0,256021073159816
0,254131735657497
0,255653437121318
0,255844260132698
0,259960579611331
0,261012639353838
0,257463510711966
0,256880224214042
0,255843515109434
0,257690243503094
0,256045803201459
0,258432002128271
0,254325851503884
0,250583797752999
0,254965143930918
0,250535947678808
0,252329959274885
0,24589332768169
0,246791709883947
0,243827622739798
0,2439026439764
0,236702919464331
0,237742379690085
0,237153955878137
0,225322663415268
0,234521904740753
0,225747945280929
0,233823045115923
0,224825901575333
0,222983219096341
0,225783497604787
0,222001015554411
0,219689947467846
0,220535077891902
0,218002235273194
0,21791768454247
0,212903154261762
0,214458282894141
0,213182438006663
0,215242823060273
0,216415147866369
0,209796125078453
0,213779911537624
0,211601658823553
0,209487157636279
0,214220376939086
0,21079009635128
0,216769365301706
0,208388835227366
0,21461359299758
0,207345632181881
0,214992293848513
0,210142232946919
0,209034360789055
0,208859428156417
0,209751491770161
0,209542212378984
0,209741346275912
0,208783453179881
0,207262023028711
0,206422574993507
0,207845150998857
0,208241576023602
0,206356623882628
0,212646468786067
0,206190760349215
0,205641477372276
0,207704867412087
0,211359321807199
0,203311852098638
0,210375918136982
0,206507708218851
0,208446413405393
0,207799435493049
0,21005448331999
0,208578025003747
0,210683739004077
0,20950068534596
0,205978752086518
0,205447538881454
0,205170406333984
0,206468976550454
0,207907493513691
0,206203402945311
0,204719900835386
0,204763313594654
0,203631168604986
0,201113118161034
0,201116778095163
0,200315804516231
0,197515072335036
0,195381135093925
0,196011282160335
0,194065519458717
0,192085846043918
0,188340047683947
0,188581812966066
0,185541432198398
0,184550242985424
0,183505580175529
0,181387404041037
0,183364676396078
0,180158972657227
0,179694317241717
0,180614433130392
0,176573436355233
0,177844065585544
0,174836123660304
0,175486307235661
0,176035490833891
0,177061237767795
0,173836084876424
0,175050056494151
0,172465624922834
0,176275514451266
0,177298107984264
0,176475460002655
0,175747385239075
0,178113294913493
0,181673755117455
0,181528822602217
0,180721840942346
0,179198232452843
0,181045521918429
0,181830146387332
0,184340408569257
0,183428909929057
0,187655444936431
0,18617331759575
0,187343976026552
0,187881535055875
0,189172403579718
0,190372324500931
0,189055188802265
0,187645215173458
0,188769404041838
0,188554139614606
0,188675118411168
0,188294401378111
0,187945747679126
0,187668837026644
0,18662700175549
0,186314591351824
0,184900641674327
0,185224919912958
0,18606957038676
0,186037302407543
0,187008605768601
0,187265276398583
0,185778656569092
0,183880727070485
0,183204563481749
0,183418866258689
0,181424071314388
0,182397871584129
0,180359345138013
0,182685687305672
0,179829798750342
0,180124636053126
0,180838193071984
0,177089001186913
0,178094583483705
0,18121981826989
0,178687067589211
0,177345753086785
0,177676139398899
0,176214406601973
0,176173704321423
0,174012446624418
0,176810315858157
0,17603223683611
0,175647379966035
0,173033892006858
0,172120082484171
0,170552021359558
0,171363060579771
0,170865196015235
0,167491869936726
0,168571259082137
0,167654720057358
0,166791251198561
0,165740185868683
0,164964264880528
0,163083257287455
0,162471981439866
0,160098735726146
0,159516648075808
0,158418527382828
0,157410171551121
0,15525075161415
0,154028431801496
0,1557488647784
0,153800284022584
0,155192067855135
0,154877133159973
0,154490775138094
0,156478525262022
0,154639895514192
0,154305350167685
0,151136168648454
0,153086967136784
0,151882938574137
0,149374954864626
0,149652311295732
0,148560151518384
0,14489606236823
0,144643652483755
0,141428000853339
0,140653215261408
0,139543180204403
0,141660029045353
0,141041982210233
0,139386343305177
0,141847029279677
0,143006656247832
0,145184128952789
0,146525339758612
0,150496162012931
0,154699001433336
0,160740752266081
0,16697935026537
0,172745298123319
0,181185039223807
0,188342098260913
0,196326033142352
0,204349541193326
0,212457686524871
0,221345301561659
0,232006441966563
0,238462775936905
0,246474769693167
0,255492542313996
0,263119511039293
0,270150440467398
0,276305203979175
0,286360613799965
0,291653762022425
0,299387716969113
0,304963917280838
0,311825620611584
0,317341656959498
0,321392561318624
0,325478139950628
0,333297349193903
0,335751768173578
0,339093708338824
0,343368200478661
0,346086179542961
0,349145006477433
0,351234648198955
0,353881731907021
0,354241732507485
0,359507628252406
0,357545139132962
0,356420069462655
0,359982241262356
0,360683557614752
0,362856539263856
0,362056190012633
0,360889835047033
0,362888774567383
0,365793311736392
0,367234416849105
0,367181333389292
0,368712730272357
0,371219480692142
0,373168299935513
0,378967088561746
0,383888706261011
0,386530716407115
0,386545274408143
0,391861916928096
0,395451748645198
0,400646228672767
0,402048956035191
0,407641125144082
0,415853314468286
0,418489917323786
0,42572523738758
0,432144220379321
0,438844789728103
0,444243783962601
0,449772707847887
0,455480460008541
0,460640322874466
0,46442337881845
0,463479334637307
0,469988914408603
0,47184833540149
0,472632693679487
0,477645521402315
0,47233178891545
0,470304817647673
0,468787932979854
0,47165810086628
0,466937104370087
0,469254081868591
0,46733002625177
0,474572920140624
0,476612636583068
0,475905051235751
0,486325088558628
0,491491192281313
0,498044072393239
0,509032240350522
0,517918772961029
0,522530932952137
0,536691696082162
0,545699303679871
0,557006772632638
0,561967546055316
0,574103513335566
0,581872158884582
0,591971740659951
0,601706486918082
0,616934419240933
0,62378320615347
0,632110453579552
0,645399671015053
0,65127711362231
0,66770723961482
0,677721892282143
0,690888074466944
0,700808116119456
0,718056081893317
0,720806240692294
0,73118933434239
0,752540077248783
0,760511429371557
0,771087288218064
0,786252853302534
0,783456494233072
0,795297663581352
0,799095761554362
0,807061320413098
0,810078803578057
0,823030637704932
0,819564100025397
0,827556688451121
0,824616402970757
0,818645956987731
0,816327279724779
0,814240369551546
0,806177773855134
0,800044330348123
0,806732081168326
0,800000283769547
0,797680823484776
0,790234423269783
0,8016265791164
0,79340665690319
0,796680246647873
0,792490176063396
0,797732409583469
0,804185559168619
0,818456900119113
0,825072983410482
0,825647770723379
0,840648574511211
0,844624247640017
0,861031387755511
0,845413964110819
0,855943702259437
0,852496646591267
0,857787454326293
0,8802976165307
0,872135885834868
0,870088727142151
0,887811119288315
0,880815283341565
0,881594905073228
0,879462537404235
0,874347892483887
0,875173843016168
0,870830941611232
0,872175807953209
0,865802735327654
0,853556570983332
0,855602982830618
0,860152095783596
0,856241138466958
0,84833311534269
0,834785779683069
0,827507401341378
0,829380137086146
0,812540728747787
0,814697732129286
0,8060090786514
0,798976017619366
0,787703046225923
0,772562675908593
0,758163965375897
0,750297962307321
0,743912500561394
0,730743076861549
0,709191058556758
0,685648124602829
0,666399861738821
0,640247987973447
0,617343380767708
0,595794720928605
0,566653999307488
0,545759479113718
0,516918118102717
0,497799866172229
0,478025697732654
0,465597576814886
0,442223794784496
0,435749136085046
0,423380092739379
0,412965489145956
0,40941647730148
0,40091062214566
0,400327773350464
0,397489136558609
0,393927534757602
0,38540677214721
0,387294889318354
0,383480023718488
0,379303595682176
0,372582567240756
0,367379830183513
0,364734051165554
0,356566839341367
0,350768673557285
0,3445914023945
0,331546634492087
0,323899075884838
0,321112175371891
0,307879516903567
0,300171108632765
0,285850135059422
0,276513453085955
0,265779992817828
0,250398101253953
0,240554690333898
0,230028067626065
0,217567400747514
0,208154368067927
0,19979095991765
0,187656042420642
0,179909991911882
0,169404815525837
0,164464991558456
0,153617104796522
0,148042273257838
0,144766471918278
0,135642433392605
0,135628981054075
0,130689668435008
0,12594708578912
0,12013126163504
0,11771525337993
0,114962561491521
0,112170141397792
0,108767967172729
0,114449711895662
0,109381400067925
0,107982372571328
0,109357634067466
0,11236024219117
0,111584535709905
0,110954840022548
0,108224740773792
0,110720099303395
0,108982941745857
0,112060630231659
0,115534517534029
0,111555957307028
0,113853544250326
0,111761808151234
0,114297090148186
0,114151885551514
0,11469937563165
0,113609577755862
0,112071476161247
0,110054559457821
0,10653878382132
0,108238259072371
0,104331351556315
0,107685467562834
0,105803662078618
0,104595442359829
0,104340672624416
0,104967553515001
0,106441868737087
0,106705103547339
0,111536983728285
0,108337033489043
0,109164245075792
0,113112309270504
0,112062207142065
0,113503757940007
0,114783663905606
0,117561625527435
0,117009994159658
0,117947596421944
0,117296157180721
0,120299058866445
0,119203395986825
0,119804578777212
0,123099890396151
0,127679867885799
0,124746478786651
0,127012605709409
0,12583612174929
0,128149780984272
0,126149903953835
0,128498128189982
0,126629679569301
0,126890657871531
0,130383025808747
0,1323996485648
0,133668844710775
0,138364410646914
0,138446770144523
0,142331767555989
0,148642658131279
0,148527618892272
0,152773283230168
0,158036565338109
0,164751345476977
0,166891867993249
0,169070760362029
0,176027183894633
0,181630460661976
0,180902107772437
0,18163597298789
0,174238844984765
0,173178920988963
0,165761204170112
0,169223056268257
0,164813815840946
0,15533490617307
0,161344719872445
0,154364906212341
0,152459733790468
0,152928296987391
0,141525261386193
0,145398708530617
0,14627897261994
0,151740234008574
0,153265380672709
0,146075937531968
0,147399303117328
0,15036561141101
0,146256635894196
0,145287379191678
0,146844232564317
0,141993123751208
0,142038974290704
0,142781054897203
0,137028935981005
0,141296365914366
0,144074900118961
0,133862222197763
0,130673250286958
0,128667757276388
0,130219384729042
0,128237432358998
0,121790567219063
0,12356298172369
0,120852423935789
0,121226296427844
0,117457593226982
0,121663554954755
0,123486931823366
0,121857376597334
0,11504827898402
0,11291881416472
0,117115125782034
0,116614018466543
0,115400248557958
0,118660313573659
0,112782416570441
0,116147806164772
0,115451885503737
0,109763523813316
0,109837229243778
0,105677431244469
0,107756898290457
0,107592482851299
0,114114564793455
0,104849742960266
0,104100899399277
0,104169507700885
0,10389436829283
0,100864384741063
0,103213583408385
0,101830240501064
0,0983760042069606
0,0931931622946577
0,0999509829348194
0,0974395572348525
0,0974525770247144
0,104271912437263
0,101556592631545
0,092867022644287
0,100215257810038
0,0928275544311211
0,0975924119806798
0,0972283611939922
0,103287879976338
0,101726840874966
0,0972029167812286
0,106730786870357
0,108129993947686
0,097285803912348
0,103371743912652
0,107274624109152
0,0982587585584414
0,102563593709853
0,109066677454329
0,105405118475775
0,110000527462434
0,114134526953127
0,1050351745148
0,119806762137688
0,108841691551688
0,105470622682169
0,111835447268053
0,120004212879634
0,122805084334287
0,12328557117623
0,121605353369548
0,126450222562112
0,132261047256801
0,139808182166347
0,135467126572413
0,140951361398201
0,151870226957839
0,151273491691357
0,161351818066095
0,161236574555672
0,176874616866022
0,180652711501064
0,175655278833081
0,192430796344813
0,196685433761836
0,196712985461933
0,209735388338324
0,198364716541585
0,205114679054776
0,216700855054408
0,208596917076568
0,199916420566886
0,199482466063357
0,200232378239968
0,203152567798812
0,196564166303189
0,206239635071552
0,195582739879807
0,203795606427473
0,214520819009439
0,201763522610629
0,187345609616413
0,191409399487898
0,181594002355838
0,198252141650937
0,196346146941103
0,19406602927463
0,190352560030775
0,189755791513385
0,181887948480091
0,180402474414321
0,187786152710958
0,160539918432681
0,170473823460215
0,186675680077524
0,179832534248364
0,16751122876758
0,161993089553713
0,162269827679961
0,157186137107909
0,170041186941827
0,148533529480353
0,160672195069573
0,165640396369426
0,165605488530665
0,157411263019149
0,15804592003209
0,165686776609699
0,167707806266365
0,155720945434364
0,153303251254025
0,15704179643558
0,168408157337372
0,156396934367724
0,179191233474115
0,144426259960162
0,138434047751229
0,173094508964644
0,180377893167878
0,164798646198507
0,159752103393381
0,166208715327799
0,179015081467674
0,164939122816976
0,18522458100264
0,16149378983559
0,170232421569762
0,170695943164471
0,169294582251296
0,168715393905767
0,203349789816842
0,161312201743911
0,162082967855299
0,1847013812211
0,170808271749587
0,187534509354127
0,20198791117417
0,179573776075001
0,179854469478136
0,211621922190426
0,197648818804588
0,209390859519628
0,221785609554069
0,188755642937213
0,235589811556707
0,222048596310619
0,247209140319337
0,24046046511514
0,224934956080249
0,229564084220614
0,234774739791321
0,249092742755434
0,260534633638277
0,247190913361409
0,25201022703099
0,229975181058832
0,223015899765837
0,240275112744185
0,267250852423737
0,24807501673518
0,247516022073652
0,240588530455435
0,244259052847869
0,222567152222296
0,239542195000074
0,186662376524286
0,207416833152781
0,216063668903632
0,161713170721051
0,199383746566452
0,25424887247342
0,246271476751323
0,224690161213556
0,225367251096193
0,228716431723037
0,217359044342544
0,209815439820774
0,221296689639547
0,245015504724217
0,199124520390658
0,180076677275485
0,212299659623244
0,183723872497359
0,206678147433224
0,223945422804275
0,201900182914621
0,220147225990158
0,202609262159475
0,286476938028579
0,211262232322851
0,252357408863782
0,223443103841675
0,219750375202344
0,208470522723997
0,155683724837448
0,217033454109656
0,213461278721928
0,192843866716151
0,275171368221031
0,199422762043076
0,294874720374696
0,255696936851386
0,211177259688583
0,225822736875753
0,3039373322901
0,0950206274903499
0,15988053291554
0,349526851301758
0,37618787064248
0,249990551589008
0,277855030978819
0,223017081590595
0,305438563575097
0,192445948132762
