3596
4000,36533379555
650,420452594757
1
2
2
0,04387208798849
0,0501061358620874
0,0579379554962182
0,0389026901234371
0,0484554691605142
0,0446000030284106
0,0410770471073023
0,0441332757549755
0,0492195206049523
0,0357149022266273
0,0490158090822445
0,0441064161090721
0,0525236250295031
0,0399267535041401
0,0410631842671961
0,042824799060876
0,0421011950049383
0,0473353687162465
0,0507602770746082
0,0483726807506532
0,0489780009738404
0,0417817441587517
0,0411958376369527
0,0440716213788383
0,0454825866002791
0,0481954647642555
0,0472527504822204
0,0392882219825953
0,0395050764423936
0,0503337839314928
0,0377511475926341
0,0385933550789965
0,0502808614258735
0,0443398557084159
0,0486462042917979
0,0366813096644703
0,046180823663529
0,047947102693817
0,0363054518456226
0,0476167322503709
0,0458556253453758
0,0398061359027845
0,0463794178856933
0,0397145555050516
0,0422962516576941
0,0372367245501592
0,0424317674855775
0,0354117862487512
0,0479410705661215
0,0422067588461951
0,0520427536004448
0,0331248022240746
0,0570914900414412
0,0448952483394722
0,0491528861380678
0,0418966322734076
0,0413028324624116
0,0407514375652811
0,0543654978354646
0,0271370345462434
0,0525997278884247
0,045442322093481
0,0521193082130775
0,0387424180619434
0,0485444491707185
0,039118923224783
0,0389189177571744
0,0342892872773604
0,0403376223850602
0,0438532975183949
0,0379362774663204
0,0465473967623912
0,0478346820453898
0,037179255600795
0,0530652280508055
0,0416963930464447
0,0509842261062521
0,032612398196494
0,0389734793080251
0,0398098833572768
0,0496062274653818
0,0440483342037
0,0475438374218112
0,0263867300920929
0,0451254166678191
0,0531139964457519
0,0292200105565963
0,0505974754343115
0,0466341882540983
0,0536973772468238
0,0361584233024884
0,0387601423556648
0,0414365071470523
0,0443525113649223
0,0315939100710851
0,0409416922443393
0,0389514322659289
0,0447728952477115
0,0341018338918328
0,0491568982937878
0,0160197785904877
0,0652239185815443
0,0556774696387703
0,0132974415942772
0,0662248261115529
0,0220373644364802
0,0504089269969076
0,0500173651668946
0,0596982506763736
0,0391075104577837
0,0408202749006927
0,0268898373983342
0,0513238707654297
0,0393100030931261
0,0286333599240147
0,0484604097780635
0,0599881316715429
0,0471936430354187
0,0428645177729969
0,0439770390142189
0,013291365084192
0,0581544910689607
0,0611714774559867
0,0431972354981652
0,0439680935653833
0,0380448099657171
0,0155552217241294
0,06010972775549
0,046659335475591
0,0460523631946535
0,0318653706897268
0,04768470906957
0,0204444528317196
0,0353799600820486
0,0663949669092804
0,0492448622617167
0,0430659509900462
0,0092625500880032
0,0408058902365803
0,0531974159630946
0,0589167545194088
0,0392622512486574
0,0261816487351925
0,0368919523820082
0,0649349641000945
0,0392174143134207
0,0309431309661702
0,0663248916493451
0,0418473459481622
0,0420646122675854
0,0343120465533225
0,0263690898856376
0,0398738862143076
0,0462582284133325
0,00459201309491097
0,0579018011566347
0,0371015011532643
0,0574208560640871
0,0684664853002099
0,0430021407335079
0,0501563223890316
0,0312430970212767
0,0449639972332091
0,0334243100601263
0,0445962009700003
0,0134369746332842
0,0469683730121687
0,0378824762421033
0,0416856227263624
0,034396338563208
0,0630695247729638
0,0209710645586067
0,0169808602331154
0,0851002031642411
0,0350263539099831
0,0316188218110688
0,0512353508532247
0,0451345996542067
0,0192672070026953
0,0518245355703838
0,0510795304345835
0,039642815244912
0,0323037743281915
0,0265372657942934
0,0348989141671469
0,0548066956625934
0,0383858075962977
0,0452154856547723
0,0298252522403683
0,0213265580550707
0,0310026525307836
0,0645141113880234
0,0475279426425974
0,0472041667849266
0,0371801845239493
0,0056713426857446
0,0721286816412992
0,054049373267689
0,0404878072145643
0,0323786442365517
0,0399700531822659
0,0395668761408219
0,0314766960408216
0,0439210825187907
0,0277656436938679
0,0136799318137014
0,0707022411606445
0,0456390834132392
0,0495917986692805
0,0217855260363537
0,0318395491182766
-0,00679575449472031
0,0988320112099086
0,0487208175418627
0,0516677865518669
0,0302253462461871
0,0274031990709947
0,0534376126476091
0,0495242829926978
0,036259230710365
0,0450773516612072
0,0315884168838442
0,0417389193725701
0,0301289894883763
0,0403184754678347
0,0333920695930499
0,0389769024260661
0,0393374989719569
0,0382168621592717
0,0334381148741663
0,0569535179650887
0,0316133946370928
0,0431213096039051
0,0397250521223957
0,0242743100382842
0,0523493723456109
0,0416007851954164
0,0433374695932404
0,0471934268017222
0,0370313734716584
0,0417534185970927
0,0348799582904376
0,0331586017748354
0,0354276627939846
0,0261609932263723
0,0301020977080201
0,0642255116970917
0,0400569790110554
0,0474614402191647
0,00933323808734918
0,065336750689346
0,0290016677047939
0,0465794799586856
0,0289657426911343
0,0491961609486126
0,0168949994477376
0,0396740554931573
0,0496215834495416
0,0550969507687145
0,0237659205139494
0,0592438626068888
0,0338218537826845
0,0481091183885786
0,0113957904647232
0,0253421442817427
0,0833040510377578
0,0310688371093814
0,0241094230473742
0,093535209812598
0,0330564708785735
0,0597722982553264
0,0227100162081662
0,00247359463738759
0,0401233148359618
0,0918370028432084
0,0382537784724899
0,0328653544720219
0,0354598638032788
0,0330626569396511
0,0472185179095951
0,03310921295844
0,0447210951510955
0,0381794856470881
0,052569060586321
0,0765852174455984
0,00267162004831184
0,0772762240320353
0,0422448880360877
0,0605437989765845
0,0318060274253032
0,0472929836956826
0,0248867127309341
0,0605529398267532
0,0250620571354913
0,0614660815390964
0,0285795212541945
0,0495373066991697
0,0555043416455946
0,0581537712327331
0,0250516080456023
0,0486804150475882
0,0395830680289088
0,0460578476493793
0,0383262133121756
0,0386465394530298
0,0499860141894669
0,020487561014755
0,0226634208911033
0,0878538741044709
0,037833079654578
0,0515814164537696
0,0552768236522492
0,0498071527723973
0,035879956740536
0,0501710405199348
0,0434067377765727
0,0475607451709983
0,0361548283398777
0,0344484287308636
0,0643147462814777
0,0517735263438108
0,0460174301115479
0,0451369461310969
0,0401631430184164
0,0435382335387697
0,0470038759369514
0,0446464670673145
0,0449864783433602
0,0443845781099682
0,0213958323357581
0,0574259642069741
0,0594514907886486
0,0234210813101215
0,0767643386713353
0,0655348254993553
0,0543251993674956
0,0523554237664329
0,0517749913058499
0,0576822622374932
0,0405279811745606
0,0540650115592343
0,0367592802455158
0,0486599569563617
0,0569798297315938
0,0485773008815326
0,0428836451026118
0,0349221917615579
0,0675315620745346
0,0987320051602961
0,0664433456068051
0,0562696657074011
0,018066923927509
0,113999602147414
0,0376740031549789
0,0823117216849889
0,0715412376572539
0,0600218539505885
0,0591285523097855
0,0599546088897177
0,0683496630942349
0,057801513158829
0,059847964718036
0,0604382011791302
0,066642125644298
0,0628714786495354
0,0696595462056215
0,0522130373897876
0,0576503812553333
0,0986421602920223
0,0690989038451564
0,0770640932423115
0,0743182156997996
0,0506376657329137
0,0995553702721112
0,0633306696114714
0,131389940084248
0,0716549613904819
0,0952287970493067
0,113336800031921
0,0782366814495667
0,0887875304975514
0,0731491951121823
0,0892758665731884
0,0872809216467931
0,100414206802644
0,0912621496209709
0,0933135071086906
0,0954432855523375
0,100318570067443
0,100178381463153
0,0965190144870821
0,0859423812677325
0,121376330586692
0,0874462247779961
0,112474483372212
0,0759235880040077
0,113175247198193
0,105379752889973
0,157509825354479
0,0943580088241416
0,127993899491803
0,0977512867404602
0,125477809786664
0,102084333868067
0,130036611826529
0,108997452536254
0,109993185997897
0,145182706366119
0,129145425875582
0,138039967131945
0,145688370639335
0,107695830314715
0,160824476735987
0,117713912671181
0,154661333614175
0,151041216348359
0,156907854807648
0,107615506697756
0,182585457535905
0,140247867566379
0,171605953152971
0,151309977475672
0,159920478740641
0,155132290083472
0,156057435119713
0,160374925643433
0,155469420943237
0,162048786150996
0,172680837994569
0,154671609534237
0,184472916060951
0,173269060375729
0,172609564563494
0,194503915658117
0,170044637885376
0,173902101876579
0,206864606942967
0,168370514873872
0,199754086848694
0,164568751313016
0,240807898109112
0,188890687768832
0,234372725180119
0,209628369971738
0,199992057144822
0,203573094326563
0,224243888003355
0,200976141748928
0,213933864382897
0,208240465864421
0,2272232874044
0,207776521102767
0,229519395107373
0,230114849027398
0,237414775302127
0,228305676729234
0,246228226112238
0,233332885603976
0,255326378546394
0,246479860701271
0,260992607196202
0,221325756679217
0,273652696107102
0,240227905982611
0,295742689716379
0,254653916349807
0,27275251399937
0,258372770210601
0,276684691448454
0,260903257214748
0,267377841533788
0,275660258947292
0,28855026763112
0,274635977230119
0,290677234667735
0,28223227352201
0,307308647388204
0,291438960697891
0,320704285878914
0,301841106211576
0,328852817019266
0,306140512574842
0,316462940033903
0,310554412994522
0,325112579528983
0,323791249900851
0,335411268495188
0,331783491002279
0,356519830833284
0,312600650223001
0,34549318485917
0,340468033001029
0,346227769233704
0,342719325165608
0,373391216873252
0,328325961617347
0,36652090849244
0,361421133778169
0,385475587894198
0,364654311777128
0,389204816841191
0,365243266358657
0,384428892834916
0,366858959786299
0,430687279515982
0,384663536615107
0,411549743236065
0,386134964380453
0,433070387686812
0,39180645165237
0,414488603806881
0,393703780304446
0,449612530961265
0,420657867917762
0,440448473986229
0,435894813397251
0,443931610375555
0,424757547421439
0,437771379496608
0,43514166598007
0,452776354553056
0,433772674633512
0,494798419268108
0,452632525437145
0,4688379342216
0,460120612065097
0,506330953492539
0,451781081648583
0,489966255273685
0,454554437429839
0,501851912089416
0,468137662425062
0,505715695378855
0,502389832900926
0,537856243391597
0,497867522742153
0,514723351014539
0,503786417207133
0,525191853328142
0,493429674044429
0,552417420102538
0,545543986733157
0,559687903731477
0,529129762637999
0,57472905535405
0,531443823070175
0,558844109010135
0,526113456977645
0,593262678254335
0,533363097399733
0,573646797212968
0,569243668738309
0,595622763906691
0,548150911935105
0,600714970070965
0,554493445215303
0,621716117476526
0,578788562291879
0,61053177064828
0,588495616078256
0,645929746715863
0,602105967814571
0,628122073306498
0,610721204956931
0,645782845727539
0,623052154537494
0,648440322026965
0,598410363709374
0,632588043433603
0,636449005157705
0,69327718574228
0,642233919775765
0,682744984837246
0,629325275034182
0,69099453636189
0,655115092423057
0,734532607744018
0,618290960282331
0,679638615666505
0,688432308387301
0,737970554054591
0,702462894552101
0,690405248847084
0,696905882269152
0,716448062380769
0,700348459734324
0,713990427072356
0,688299998850989
0,763438148648879
0,723903948427716
0,75784611147825
0,708575285130736
0,74783067525185
0,696809942318431
0,771803164456668
0,708763117366825
0,759743807704289
0,750168139084316
0,78854819795219
0,727950651709343
0,782047757699449
0,692432257204505
0,729861125872915
0,746876022487767
0,787644994948085
0,742626474634047
0,834520924057524
0,779530039337416
0,800536292035042
0,764909028616998
0,791201465336673
0,798229126679467
0,816647140064567
0,814742599534746
0,809215695781174
0,802329977638298
0,870136198819867
0,809075678328751
0,827058298260879
0,804215046765479
0,83921002007305
0,811844668357526
0,862895976790151
0,82800831946217
0,854382406580984
0,825227674728734
0,809891758774168
0,80742262269883
0,858429561815883
0,817092623550834
0,869527407767912
0,808889673178906
0,869504745803878
0,817188334122856
0,879499113526731
0,854758336465339
0,887123444243521
0,870487178018346
0,884044209946988
0,864584031475496
0,838157643346236
0,848163199562063
0,936388007854441
0,867137964407293
0,924062878081508
0,893819238386971
0,887231083829931
0,881122239188914
0,931307526592311
0,900558944469694
0,928766681439781
0,897668260170705
0,970118991846707
0,893567456224113
0,986381968291916
0,945392505550448
0,97831425509798
0,894937465072798
0,943267214669857
0,878704060312565
0,987708426936518
0,916134236567825
0,935205308321195
0,89195079282135
0,94107899587445
0,947138156215596
0,991499257019374
0,891637223091437
0,935409704943712
0,925432045301129
1,01939213164923
0,919430108869943
0,941644672165389
0,927956491809273
0,960554791010809
0,925179294113247
0,961146013083853
0,961141163533867
0,952196817280953
0,95993651429028
1,03036586563629
0,961908194035123
1,03487477558936
0,929582747745559
0,978282860441793
0,981638472308613
0,984057990125769
0,920532716912741
0,99010342692818
0,96980754574149
1,03468927543762
1,01666379859525
0,992342183285026
0,949523344575994
0,981627506797907
0,938303825063488
0,99215413317326
1,01899076226438
1,03307566047623
0,964004592029858
0,994207760692301
0,968797006808951
0,972895057289631
0,966488960380865
1,04170289650742
1,00073342144443
0,986025736748709
0,932847726942407
0,954946631664375
0,918355915450904
1,0364385072066
1,00107302276947
1,07306361895891
0,977840503085992
0,990833692268405
0,945717240815732
1,02173611672197
0,973680576856054
0,955500783244251
0,982225976682765
1,02008721016827
0,952539120434286
0,983602602832744
0,958558830710713
1,00495765474813
0,956683762147102
1,00114889622696
0,962681664886868
1,02825739798549
0,962801602328104
1,02930565998933
0,967135726904946
0,970790214551652
0,983781655539628
1,01829083863464
0,961879248171334
0,97308480499803
0,94917624006448
1,0275446061045
0,959891252425625
0,990213453493053
1,00793242205413
1,01058023962871
0,969436761328832
0,982480494325558
0,953526820175953
1,00404052134788
0,994127126291863
1,01865917097432
0,970196784937387
1,00596429888643
0,96748555495099
1,02726593517231
0,95425134114717
0,993267808227668
0,971821485452897
1,00547626904364
0,94586721411247
0,967875863297799
0,955875852320493
0,976753314697529
0,979279118105037
0,997869658979887
1,02163904255293
1,00891711294724
0,962364015861435
1,01053308600214
0,971680775287578
0,974393177637932
0,969750068857191
0,977136369510978
0,980066417853103
1,007719534428
0,938729787240491
0,959768920876969
0,937253421917178
0,967042251990319
0,968520314863272
0,990613907515031
0,962914479869926
0,96475329115242
0,929162209920697
0,968581619755824
0,916656621751278
0,939976384300062
0,960829118056768
0,992261622715141
0,899528323314895
0,935558131269059
0,927060356827189
0,947141825945214
0,92468494078788
0,941030792236815
0,910965900625202
0,955394055502498
0,921342014013535
0,971117387503461
0,913146329840467
0,9741521469234
0,928410398963876
0,937857548264613
0,933475849228921
0,951569225720384
0,890957524374729
0,916310009629903
0,894360043127322
0,955018882913562
0,881608789078082
0,895786379413247
0,88680708954488
0,9272266376556
0,891637328460692
0,913217262564209
0,852165771122586
0,909181980168373
0,859194220643788
0,897776289034487
0,862140198918128
0,887035456980199
0,870559549061427
0,871926230305977
0,87039063473818
0,868288823977548
0,884757999632306
0,907069904686017
0,847962923310117
0,878701590471029
0,850703081487849
0,858567344994942
0,847549144214013
0,901710681313967
0,856845882893566
0,864409365509976
0,82731860266827
0,849414324719943
0,835002654234756
0,854967794991622
0,806614815889133
0,840029823586566
0,818812064360181
0,828620806629361
0,791647826967539
0,824751199230948
0,803376592949261
0,806254618339124
0,810533631034029
0,808632809569977
0,788686565158573
0,824723910284966
0,778731517218696
0,798493345264216
0,797082087906671
0,788943504639752
0,772765408681739
0,794206581086543
0,765878737293539
0,800430495915852
0,783515208258777
0,776310742412148
0,738895580974082
0,781129602822086
0,757199088648324
0,761904572409861
0,755032880652506
0,757169466389725
0,746133418103724
0,750872838879955
0,738183833683901
0,751779967738636
0,71729517310802
0,739818531987542
0,732057805966373
0,732986657918639
0,726310598282772
0,737255313918884
0,710956703965715
0,716085884358194
0,712527803163188
0,715428405566293
0,704165583088372
0,705720449004358
0,706247690266176
0,710779559493554
0,678629716624269
0,685197040212596
0,687206369326164
0,702107107195271
0,672526520846641
0,686403958548394
0,675629012504482
0,690474775075481
0,64619946842241
0,671561105742869
0,675137373435948
0,652370546636097
0,632793456209158
0,650247524075791
0,656074419017523
0,665056726733181
0,635518144765796
0,647990320747019
0,642897378581481
0,643474469020138
0,637900440275294
0,631727831516888
0,618162668695838
0,623804575065474
0,611344932078423
0,617699013241029
0,611764209927611
0,629269135208877
0,590674621958378
0,609608090340226
0,59185545574062
0,590220177641194
0,592686016897794
0,611157616126251
0,591174663058222
0,591681849397588
0,597548657836702
0,587910202259747
0,577925622591606
0,583663281669041
0,565126021920019
0,56495557682202
0,553903956780787
0,579732829566109
0,552917814021965
0,563609739477771
0,554686084888109
0,555245613550886
0,543592993586959
0,55633619654835
0,533463611178938
0,53868239342332
0,519207349057728
0,534135023853702
0,533063410106258
0,539434778290673
0,518996397676407
0,521566892849069
0,51221736959357
0,524271289533212
0,509873250956085
0,515072610772428
0,507363863494941
0,508045000513246
0,501192556205243
0,516358806017078
0,514510620273621
0,513173700806006
0,493542354732587
0,496263368548502
0,486103168207772
0,495055648480995
0,485203867785634
0,488738388786083
0,480574945976364
0,489053064194944
0,47368429971111
0,475374043019736
0,468051531966916
0,472545228610605
0,460699186800807
0,466655517505672
0,455124898593219
0,471133131308642
0,452591720195533
0,446442095862331
0,443808059267099
0,455494348595912
0,444308909527239
0,444074172304124
0,437878354946189
0,448916861112976
0,43622747112551
0,440059201622798
0,434968166859557
0,443808058120268
0,432494680548825
0,431516300526301
0,429938706852504
0,432464971676532
0,421086852106286
0,42448375686443
0,420352125188156
0,413698020116903
0,408966117801821
0,415828029817104
0,411252301505966
0,419332222718106
0,407574192434833
0,411432983075513
0,402867680996114
0,410011787094177
0,39525888597666
0,40075226927348
0,39492091393864
0,398669114952242
0,388755552222414
0,391703735053587
0,382116676053692
0,384759439371421
0,383845144152226
0,385494979413084
0,376370782069481
0,382129413662684
0,370296301792195
0,378364285909569
0,370495095201625
0,375821040583239
0,362168272742179
0,367056956388668
0,364880201321256
0,371375456361293
0,361234047139601
0,365716949154835
0,356363252625196
0,357949954316104
0,349503060516806
0,354493951844995
0,342941266696483
0,351835863043387
0,34323596024947
0,345743117640988
0,343275638567472
0,339616251476343
0,333411690754504
0,337852412040193
0,334589137982376
0,34215153269392
0,324691991565703
0,332576697150799
0,325455173291089
0,326193692804464
0,323298099110687
0,322439439458332
0,31676033678847
0,324173215491238
0,315890481934644
0,319623105746236
0,315821791731282
0,311147326054403
0,306407684895746
0,310448668081076
0,304661138957681
0,304541732350152
0,300062445001973
0,310444426365298
0,30181647894307
0,300888486588235
0,297395052437813
0,30540829812726
0,298247606610385
0,294890145476419
0,288759197539246
0,299205027952414
0,288889027173764
0,288030324601842
0,282830674433362
0,287032819502304
0,285703153146981
0,291079251316662
0,281213920019096
0,285785260365319
0,280758985830099
0,288483778711651
0,280177915790704
0,288163760368282
0,280308500935297
0,27954572002955
0,272815305244488
0,276860923255389
0,277023925683075
0,277573402634448
0,268516347576741
0,276472344170603
0,2758620060738
0,281577379156785
0,275143798013565
0,27459613641182
0,27116762890143
0,280991584892104
0,278034491603945
0,281600591197763
0,270709937571752
0,277998504566323
0,275547211549732
0,279696627185974
0,2804007465254
0,281605468735259
0,281660793178808
0,289993259078812
0,285082395793459
0,290686387405998
0,285863795312474
0,285820635820141
0,288523442112195
0,290584210982543
0,288701122183804
0,295455386795413
0,293755425467583
0,304314403106421
0,293952687233009
0,300717044261953
0,300793809421088
0,307462196462598
0,302252347821288
0,313994902013855
0,304990768021555
0,311781698262716
0,312210244396908
0,315725917529581
0,310088584170078
0,317452313629438
0,313582778546394
0,326196196581866
0,317616886292833
0,327773794425464
0,323291335019212
0,32612784599051
0,330341540842765
0,33387187285605
0,327632109738541
0,331100230290192
0,337432238815723
0,344188440034161
0,333765263947908
0,342714753522631
0,34425810109591
0,349768048108287
0,344763165503456
0,352736079864167
0,352193501940993
0,353417852809916
0,351974706586663
0,367473040151204
0,364856204612272
0,36784886800829
0,365426239319452
0,368208774165953
0,369264293722697
0,378943957158348
0,37787728491098
0,381353507056467
0,37766085191064
0,384420182882939
0,377470261218063
0,386312010757323
0,381892568336186
0,392066637000949
0,383713170604447
0,383078415824151
0,38281499815464
0,390096343914395
0,384377925644489
0,390981097477596
0,384407545126038
0,380126540715846
0,380357525798681
0,390059462333839
0,381202736324251
0,384371468534464
0,383617141311864
0,388543689124511
0,380928986290264
0,383163983933563
0,379051647973466
0,374337113291459
0,371143813307397
0,380992307227935
0,375691510295225
0,375828828190797
0,375971095810804
0,383201454270183
0,373817377564109
0,377109268660247
0,370890702236872
0,369403693053075
0,372299569519293
0,379808344060221
0,37417067892144
0,378670104399461
0,378944531893795
0,378084353374557
0,37645374629395
0,382100504772009
0,375186992751118
0,380821474632115
0,372410478880755
0,370906873404028
0,374753547272501
0,377819914450405
0,370905058241238
0,374715578320868
0,371932300656963
0,376858386003659
0,374929541503658
0,378901057536259
0,366786773549755
0,368779887217843
0,362806977276055
0,369893604250514
0,364105950380969
0,365178691447598
0,364263738710364
0,367092370357957
0,359629409738476
0,35753467032954
0,356898631616887
0,361872843359689
0,356731693922774
0,356876525624677
0,353151014091717
0,354321089356986
0,346249984946757
0,345633718562082
0,34648008085057
0,349596836663011
0,3386052786487
0,342062612596022
0,330901010538308
0,334008950248513
0,328939751303093
0,324885964479208
0,320680017940386
0,32451028294794
0,324400867401188
0,320624328408873
0,312907391894282
0,32105537009185
0,314754217365768
0,312183393716087
0,300488522070579
0,307203076478011
0,297342910670657
0,2953108588972
0,295043781565204
0,296680360113134
0,294350779388986
0,291912749161667
0,285364021131202
0,287477825172392
0,278701096510288
0,280734872975261
0,278090837138325
0,280753205199766
0,274389171164515
0,271144724766103
0,265040561836922
0,268788075880365
0,263937599174062
0,267153765127053
0,265734865948663
0,264681137624874
0,258084618452665
0,260009174384563
0,254556374667785
0,252533070793187
0,253297324204793
0,259021390660191
0,248420948949909
0,244697562366661
0,247612464803056
0,248568687875606
0,249119003628018
0,250067237286101
0,242713119183224
0,24499150417977
0,236501202586398
0,240782396671027
0,240647746572405
0,237960783315279
0,237493738541988
0,237850370915363
0,236429695467859
0,236713832486446
0,231020744279091
0,234004459189977
0,228665408771654
0,231789764210859
0,225654861612878
0,224597797786934
0,224610490266578
0,22903113072126
0,223075569839751
0,226974553555139
0,220367874059274
0,226852952581375
0,221310208750911
0,218109241020613
0,217346601519754
0,221590126142633
0,217879200462929
0,220130018739085
0,215628809106829
0,217854261759351
0,211456678421613
0,216640313549253
0,213663237660897
0,215446239186285
0,210926753783572
0,213012242224491
0,205054163684256
0,210968199456924
0,211518352388153
0,212824517051105
0,207923007784986
0,210134937384405
0,205362765946024
0,206456626304775
0,205387133312051
0,201856260078509
0,201416827456543
0,20432341970048
0,202745618586174
0,205659290404069
0,20398647261406
0,201894249580809
0,199308499335641
0,20052215164729
0,198132383769395
0,196724709441014
0,196982069192137
0,203208986059489
0,196578034361432
0,197698926575857
0,194360608686103
0,195680874779622
0,192368565341009
0,196538395379341
0,189785025483489
0,197206659028591
0,192341897766114
0,190013058161077
0,192991503291159
0,196056939170312
0,190583830797889
0,193238589810241
0,188390828708226
0,190007367777205
0,189210802798041
0,192393888307321
0,185793800791189
0,187763018791969
0,183762605039744
0,186867740020521
0,188293522417499
0,192648784482019
0,183303395153329
0,188993086887093
0,18561365426742
0,183227537367288
0,182588274246239
0,184404386611179
0,180718653107812
0,186783054889257
0,181980639346909
0,182428974978504
0,182067176461033
0,183926201617102
0,180675000821916
0,184935515985229
0,180829786092589
0,184566122480121
0,180395500665746
0,181408864992095
0,18334858323922
0,181716421265913
0,175399053151905
0,184650985517921
0,179418145366548
0,176210847377738
0,179067842859989
0,178565527492245
0,176055092465623
0,179993894595599
0,178572090292883
0,174185718607913
0,174746842698696
0,177488877927214
0,174363804408818
0,177149953139633
0,174321804316413
0,177784187318853
0,173721559500905
0,175095556502171
0,168675801300781
0,173200812087224
0,172013190075569
0,17322063050873
0,170531642117557
0,172440199315767
0,173497078530776
0,172404387108871
0,167286598600953
0,16874166003838
0,169778160853808
0,173237885424346
0,166752802116374
0,167410063023035
0,166819101789454
0,169771922389685
0,166817044147464
0,167059999562401
0,167585408315534
0,167043599684282
0,16596882631952
0,167636183336902
0,163915879318527
0,161307429703758
0,157606533302081
0,167457072881861
0,16008584204186
0,161259495897779
0,159515578534066
0,159149846138744
0,158648111885876
0,161069101694971
0,156149704148529
0,158667403076957
0,156898502648644
0,156370430657957
0,155132446180161
0,159974907386157
0,154889483133204
0,155109188795759
0,152510774459743
0,155623830807784
0,153306937860715
0,153281218566929
0,149278585372455
0,149480553481493
0,150095771516142
0,155120773957584
0,150757788889951
0,14911971124275
0,148304479303227
0,147318736024358
0,143645740265735
0,151022011764977
0,146855300898638
0,148037543428507
0,147099093628562
0,147282476206857
0,146340478049913
0,14790789279243
0,143522166788354
0,143444865369099
0,142061792952933
0,143999443863226
0,138710169603321
0,142799013414328
0,142746549733938
0,140687622829158
0,138951555774833
0,135965470750652
0,135497623483139
0,136853406649617
0,136672938741036
0,139452397273079
0,13507478809664
0,134887035023042
0,135309501098984
0,133698504682453
0,131044195376142
0,133099747677989
0,130098022132801
0,135151217175325
0,132829702912833
0,132895061929716
0,12900386112086
0,132499919466111
0,129811604364546
0,131613316253095
0,129467862015644
0,12684143909834
0,126405267151812
0,126270276245486
0,123812596925895
0,127664158045842
0,123322259321528
0,128993679779193
0,127299084988234
0,122651869461663
0,118002624325504
0,122660142684111
0,124476651178462
0,123842370132321
0,122478878116494
0,121684023717123
0,118120053507194
0,122210739872079
0,118888465464089
0,12097521115358
0,118319574325779
0,120455986100472
0,119244665682532
0,120418098256074
0,116734917142957
0,118171270971767
0,115158462987251
0,118173091053987
0,114357550734394
0,118774839970747
0,117520566441489
0,113614386239984
0,115373913858792
0,115865502704522
0,112053287789812
0,115961770677934
0,111670636090672
0,116368983124854
0,112197934333391
0,111702584698368
0,109032317017177
0,109990687707724
0,109436568872515
0,111298552651412
0,109859049321858
0,109515557175535
0,109852970070988
0,109054490564138
0,104661166756524
0,109400671926747
0,107345979490754
0,106936427261555
0,107799677087837
0,109147913421893
0,10984698812662
0,109236594031917
0,108363501273298
0,110408192138755
0,106561367969907
0,107357165854709
0,103889409012721
0,109742866644281
0,10541551278334
0,10651867277646
0,10590344890232
0,106969821034329
0,103279280076219
0,10460969674129
0,104166876730709
0,106337976381424
0,10335412504367
0,107925084055056
0,103473180103578
0,10202359707942
0,0988438479218246
0,102279732536268
0,100304435406074
0,105264464019992
0,102639276243458
0,103875679356122
0,103152399029778
0,103815101336734
0,101694024499028
0,10247475192465
0,100376258443401
0,102096467259423
0,0985744302673312
0,10060437362987
0,098070180447955
0,102771002139724
0,0989582499572518
0,101968866944674
0,0982913431927438
0,0976960189591287
0,0990366521502108
0,100272546120764
0,0990002190080178
0,100841671404867
0,0961059363269533
0,0971411092708624
0,0982466856351769
0,0968544733324318
0,0941356031188241
0,097183028711265
0,096106920399343
0,0963345976438277
0,0910239869710528
0,0982080857202323
0,0959559549534904
0,0946276075786522
0,0940517905238223
0,096628492429233
0,0955216599604934
0,0946700036114887
0,0934478595190908
0,0938175929340924
0,0925898131216548
0,091537696473344
0,0910161381301127
0,0946081439531187
0,0914835954588902
0,0925922813593777
0,09116830214698
0,091545371499998
0,0938737852240936
0,094301038825154
0,091348498054441
0,0911211461440771
0,0941386642646245
0,0925556495931186
0,0907274457611442
0,0913056889388178
0,092756457868061
0,0921742943945902
0,089501818523401
0,0917315994301089
0,0911806647590455
0,0930735152601029
0,0896540720912215
0,0915210469646852
0,0870344711176626
0,0876461719579546
0,0879787022744326
0,0885675886240009
0,08699511324832
0,0861970708967526
0,0853703257416975
0,0882308163028686
0,0882999023038446
0,0904027043106223
0,088329516677376
0,0861302175752473
0,0830954962405817
0,0856266603887775
0,0841026218955501
0,0834873368292139
0,0825612247360282
0,0846270462055633
0,0844673447634987
0,0848630843496903
0,0800484398055432
0,0829813410896445
0,081612994854867
0,0827962080712872
0,0790650364370262
0,0845836933728875
0,0809769369529898
0,0808773240202036
0,0773925451588801
0,083977112678897
0,0815774363945754
0,0793551834138303
0,0778911803538157
0,0796225280754182
0,0790543250213382
0,0794283596980084
0,0785402066285732
0,0783847843840133
0,0757010571537772
0,0776317586881162
0,0763972614890219
0,0776249214753949
0,0744840613570931
0,0770892043405839
0,0779535240587247
0,0783855127012978
0,0765526152683671
0,0755111012670287
0,0771328628543454
0,0737720005400369
0,0711711850000665
0,0744376670001461
0,0719467063246663
0,0744527276421454
0,0720083640550993
0,0736105661089577
0,0712392011896996
0,0741279139898772
0,0723424055547337
0,0741699492597037
0,0717317595984567
0,0708057217541546
0,0692989425723365
0,0706991117213208
0,0682668521278598
0,0701180723771807
0,0696170410103369
0,0662675700017733
0,068868948098649
0,0702059586958588
0,0689930458715308
0,0689046317508994
0,0671217178884532
0,0689950821570755
0,0680076226323664
0,0689428388867216
0,0637171541504644
0,0666349780965946
0,0656592167434744
0,0690866384446883
0,0666129007190814
0,0661153220069677
0,062212448805207
0,0651222475199036
0,0647860270064675
0,0665322901252646
0,0631758097538122
0,0657842563827387
0,0643649400863358
0,0644289413177201
0,0633051441227983
0,0640156774543039
0,0633839348371679
0,061217888103588
0,0627591824544528
0,0634394884701658
0,0614648240714417
0,0614209741564639
0,0616823015258156
0,0614092097507821
0,0614430155960844
0,062951143070523
0,0631262219829092
0,0623544230139755
0,0597425526208901
0,0613112675252485
0,0592771564305905
0,0614966301299939
0,0569346554480547
0,0622263355971493
0,0604592165862783
0,061890742832938
0,058418465558798
0,0615679696308161
0,0611393375999063
0,0582489965011605
0,0580470952683275
0,0609699694976249
0,0584136783099699
0,05887934027478
0,0566937182724365
0,0589025864948477
0,0581802915611624
0,060640765231744
0,0567653399858548
0,0578060979421552
0,0541408293090047
0,0582884258059538
0,0538865979782234
0,0608610549006582
0,0539795971503804
0,0571412292354515
0,0516387958874698
0,0571670060952559
0,0523675606521714
0,0592415907544172
0,0625270848709946
0,0638859997962374
0,0508927167575858
0,0574722898265739
0,0546129390285023
0,0620453899802706
0,0537761714723146
0,0547822620410881
0,0496924913934572
0,0600260845764627
0,0520271107386107
0,0551437303111805
0,0545928843018134
0,0607332502663855
0,0528930959727147
0,0604751670011814
0,0497626009949869
0,0566521572092917
0,0541391079862988
0,0610448038588248
0,0531814043837788
0,0599756031422765
0,0480801269450413
0,0561861163518507
0,0495545326767353
0,0619539061254669
0,0475418965485434
0,0611177539286682
0,0462304444403455
0,06364457530801
0,0452936069036691
0,0602638373772072
0,0414264294426311
0,0607680788969607
0,0397372654064717
0,064402903942603
0,0421673709225264
0,066422973949042
0,0423660207534848
0,0608412262090042
0,0419974318493223
0,0598865661931342
0,0395952896668188
0,0671660425421325
0,0431926598632543
0,0604400679820552
0,0351435418290247
0,0610996998401804
0,0501952673764045
0,0604349088654286
0,0455742614980924
0,0545368253796218
0,0557345313103874
0,0514475510256649
0,0578897254541229
0,0429551721652114
0,0588213000148361
0,0423336074664255
0,0645504398243964
0,0406195570246169
0,0611057981032142
0,0409738216986825
0,0600229596225437
0,0452953944278099
0,0576792268443741
0,0486243734730378
0,053173507764764
0,0518990654272499
0,0521961789563177
0,0541003143862272
0,050997351145677
0,0502383964285977
0,0494149489982802
0,0488600932687116
0,0503408265443474
0,0484352230700893
0,0542841617695258
0,047031992612651
0,0514872555023533
0,0461747396463551
0,0508614707359066
0,0487052515126767
0,0495731368431412
0,049279297531728
0,0505267495205454
0,0471397491123358
0,0485717863989579
0,0451610192537387
0,0527697261931551
0,0509211377940802
0,0514973028068108
0,0468459637422446
0,0497054104589086
0,0483460797968445
0,0485606513231794
0,0488815905455273
0,0525387084204737
0,0487555831979815
0,0496815300794768
0,0478953389760325
0,0512098699508731
0,0477650045634675
0,0493558409792118
0,051427097583575
0,052139571539336
0,0480782176300601
0,0466882982658872
0,0468542903193943
0,0495088913989893
0,0482654429500115
0,0504164113917315
0,0481906560934176
0,0517341375321032
0,0519268800492507
0,0514799258522983
0,0490471345557163
0,0503273631440812
0,0484249183074212
0,0483492192795457
0,046594125398696
0,0506403635933956
0,0482293441412544
0,0513088777253896
0,0467388304079257
0,0479873122667762
0,046652231931308
0,0492064753164939
0,0517133640456051
0,0501909370035972
0,0489523106045856
0,0482711125315034
0,0454914761287274
0,049893182582671
0,0476109499949696
0,047212876787342
0,0490952205627614
0,0489795679500602
0,0475635677978698
0,0503302506736678
0,0462317557854253
0,0495826909210731
0,0485855201542026
0,0489519385607026
0,0494998570123819
0,0486744625731474
0,0489193941739404
0,0502155224306377
0,0513414523334897
0,0500329301997546
0,0485114810025709
0,049461072241829
0,0504675601745581
0,0485522783407146
0,0494286510151599
0,0486199016632186
0,0474922166642253
0,0490737576571315
0,049629365330936
0,0489038771389517
0,0496792287316635
0,0497905742468328
0,0483982981401054
0,0476913640470081
0,0491098602393971
0,0491208072803945
0,0505125376094238
0,0515886966462497
0,0502875916697183
0,0504204044244202
0,049526520920381
0,0493617212706855
0,052159298167852
0,0511020432383126
0,0480823363913018
0,0479537618864272
0,0497619282765177
0,051414808354943
0,0488145612575849
0,0494893766266391
0,0501917272086392
0,0507744330897659
0,0531964318265379
0,0508558137797954
0,0492903532723866
0,0510773797796206
0,0479408704383663
0,0517917750542035
0,0495815868575775
0,0508945993147139
0,0502027754901942
0,0510199095138895
0,0516431133281065
0,052428942294576
0,0531480293429296
0,049829360855714
0,050287749608837
0,0519980383848347
0,0494147578546553
0,051531356532168
0,0491535119414405
0,0515733261838107
0,0495488657096272
0,0504195636079777
0,049872028566942
0,0501537101075157
0,0503464506975291
0,0517651820130154
0,0506849783567561
0,0526291479134745
0,0510196718127681
0,0512561383096171
0,0515760983667836
0,0522216601401702
0,0512915546756252
0,0502681657985437
0,050149142393012
0,0517086705657071
0,0520997507282064
0,0523735602134092
0,0527898630763676
0,0526650985429004
0,0510751778631419
0,0513396426236946
0,0510043899523584
0,0534764394186002
0,0531523006562021
0,0532885646005073
0,0537138760471227
0,0534664862127055
0,0526053630479409
0,0538030697496592
0,0523842380014916
0,0540218529197704
0,0534408779383863
0,0529513293866672
0,052662294254355
0,0540676472652216
0,0516152946498945
0,0529511678966227
0,049312698479852
0,0531595386396433
0,0519521101074421
0,0529665684168585
0,0508951298731883
0,0535133562369238
0,0527145489272704
0,0531666931163352
0,0526256394681778
0,0529133036479871
0,0528369406616666
0,0512322688903977
0,0511672309482003
0,0498184402798287
0,0518407960849056
0,05001874054496
0,052255008120212
0,0513449843711123
0,0502943961572971
0,0493553777689113
0,0500440643433539
0,0491008430466696
0,0515843676714488
0,0488091911553068
0,0508852677615773
0,0506244896832389
0,0513523766830423
0,049147596690361
0,0484785117876224
0,0492514490164615
0,0505588149987801
0,049313641264324
0,0501084270651169
0,0514364192999843
0,0491198695902084
0,0526610378994856
0,0510800214574304
0,0497924234224781
0,0498469389916491
0,0488347158323253
0,0483202757936768
0,0487487748087275
0,048187069978419
0,0473634583109691
0,0470296107852516
0,0483282103253375
0,0484396580118684
0,0491816129175103
0,0483506011557453
0,0473649172819121
0,0489057392886337
0,0458789140634288
0,0483013522723309
0,0495322652861375
0,0480096571500365
0,0479923199478961
0,0476493949894886
0,0489773599244977
0,0485399598580557
0,0489725484028696
0,0483114836247073
0,0477320632533095
0,0469394952669597
0,0492959982611452
0,0484940551594254
0,0459839219524599
0,0476928910041721
0,0481540910968344
0,0480453069679671
0,046923360208231
0,0471879601972046
0,0493237416503521
0,0464422733003206
0,0472020516670152
0,0458929424556673
0,0472687800299088
0,0484381005617888
0,0481771661123377
0,0477651989586533
0,0480784264914058
0,0492650480394572
0,0478563111770401
0,0472380814772777
0,0486550478993974
0,0448798778126435
0,0468038676586233
0,0469778063619037
0,0468485780554091
0,0468249045215086
0,0462094558809542
0,0478562107358476
0,0464962036082939
0,0482588339883959
0,0472335793305885
0,0466115429246503
0,0467371485035469
0,0477666707036563
0,0470036695917064
0,0463560188937593
0,0473356630348296
0,0454037997655438
0,0467646140342086
0,0467224013212556
0,0452721501531867
0,0470800972920649
0,0469184181557403
0,044323284449055
0,0439955629476646
0,0464349677953171
0,0453382538553386
0,0442165935166632
0,0477924529902924
0,0451360225090737
0,0474553455070646
0,0469232843044172
0,0464317450547529
0,0450879316761388
0,046292798003368
0,0439725333193195
0,0468707674304455
0,0454091529020883
0,0443449598558012
0,0455984765991735
0,043981919229462
0,0440907570941852
0,0440908863245592
0,0433898487872159
0,0441854468340297
0,0430017623715689
0,0443823028801265
0,0434955478344741
0,0430660477709034
0,0418547092570108
0,0446344009136516
0,0416162770305168
0,0442936464459911
0,0417579041433757
0,0439966495437041
0,0454692841833924
0,0453797634488831
0,040936662870784
0,0406435781737725
0,0433191024941176
0,0404390197856715
0,042495805245305
0,040871270311303
0,0405530890589216
0,0409644483495399
0,0427931676142824
0,0392832769770307
0,0388816712480429
0,0411582592810599
0,0417977311366574
0,0396088070020674
0,0407945540666508
0,0408218529543676
0,0396325219494902
0,0409946027177907
0,0420408312964396
0,0393159162221779
0,0402899583858881
0,0426285537113466
0,0422627061083788
0,036365193167048
0,0437379844042171
0,0415080469511701
0,0381037357402967
0,0401055379502974
0,0377044560785859
0,0434905183030877
0,038016885387276
0,0372006932792014
0,0392570899068773
0,0405512086005776
0,0392699481606415
0,0410600949743037
0,0378987495293719
0,040025621866325
0,0385221277925773
0,040232270157124
0,0385077900034387
0,0393645694184695
0,0385392098391537
0,0388422720885113
0,0388693018035077
0,0390412372657551
0,0400248482533435
0,0362459160757851
0,040535482950205
0,0401034486792393
0,0370257454046666
0,0405272664924308
0,0405898521657837
0,0399869041686074
0,0368295847822992
0,0383199109420281
0,0374801658645515
0,0372486157852725
0,0374956261073688
0,0377037593723546
0,0368451832123249
0,0386551760281474
0,0364119314961719
0,0388057659971755
0,0382533815269465
0,0401328767529423
0,0382534741687952
0,0361890027880156
0,0360259014854746
0,0373257624386316
0,0369770088842437
0,0392323455265819
0,037191108780877
0,0370173463354547
0,0342086501138349
0,0396806253331624
0,0307099870535296
0,0383052419705286
0,0393510397710279
0,0420568698100842
0,035736392791652
0,0369114881845383
0,0361118697870475
0,0359243648021846
0,0354118297530189
0,03604904617057
0,0352168444309101
0,0367662453435855
0,0359490663368268
0,0377268973901148
0,0350748152097581
0,0367089274825379
0,0355253442844747
0,0351363938760258
0,0351358915454672
0,0373462078760767
0,0396635216219304
0,0328371866792776
0,0345498585163181
0,0409807163995053
0,033171244407935
0,0391957146206007
0,0342938806165105
0,0313609875578751
0,0417177132789291
0,0364826146986381
0,0398193221660285
0,032713634155609
0,0378452214425418
0,0344565341656652
0,0380598701527631
0,0309349658495598
0,0363371732704861
0,0335837868845065
0,0393798931326889
0,0369211761890086
0,0368419290458746
0,0369723658896769
0,0344381737973108
0,0360900566802146
0,0351188205045114
0,0359077790754837
0,0329401231127918
0,0352872326087753
0,0339979691267783
0,0324783454865235
0,0348671067345492
0,032285676459367
0,0366376645561867
0,0331402900675716
0,0388760199179528
0,0348258250491041
0,0377093604924916
0,0303262155524225
0,0352661699694307
0,0397396335531664
0,0353064174032502
0,0363993810994173
0,035701203675271
0,0364308770022609
0,0349606674876211
0,0356719761389153
0,0368847665703387
0,0365579819166344
0,0353767671369327
0,0358976186009459
0,0357768965456088
0,0365559090313004
0,0341171984767322
0,0345699824665867
0,0361977573311376
0,0341845262926483
0,0323106262074756
0,0340388686210311
0,0357381499572151
0,0298908141137223
0,0359894499760733
0,0389594812308944
0,0423302514029633
0,0378106628468038
0,0392494436405035
0,0329529490077503
0,0356995912315273
0,0337621801137251
0,0358093490757954
0,0351900952025962
0,0355660985190187
0,0345175642286491
0,0370030486240165
0,0359700813399116
0,034979219118943
0,0353267848032551
0,0351054235541231
0,0346879885566555
0,0360107346051422
0,0355910826494951
0,0342533317756799
0,0365337947579006
0,0311880043581759
0,0395223216360794
0,033838083453205
0,041092373328109
0,0185371682897968
0,0546818041895325
0,0384370301361242
0,0418135539355403
0,0361074752932214
0,0370424627860426
0,0350007214938389
0,0343901057660568
0,0339047645770767
0,0395628914084393
0,0336098578466186
0,0361848283753164
0,0352541912302143
0,0374911263445885
0,0355879162982755
0,0306842449246065
0,033856650583165
0,0523090758326982
0,0361563853942981
0,0428370849344482
0,0278317007097261
0,0382212317590184
0,0430888620766565
0,0381707251659431
0,0397994404767308
0,0369427178384147
0,0382820529575652
0,0380573097151017
0,0379558758203254
0,0337169833219366
0,0388966897214512
0,0355140504528864
0,0366525969483632
0,0355299800039054
0,0354078022528907
0,0401347348073742
0,0331400468360524
0,0427791582244927
0,0434403347288475
0,0378893680961008
0,0418144491053207
0,039861615833109
0,0387432815337476
0,0380075724624637
0,0396490896044011
0,034456918437023
0,0396879905713561
0,0407347753767575
0,0382656695458048
0,0470193663539709
0,042197969660779
0,0365308160527036
0,0358422741617077
0,0394690566728664
0,0494528766538478
0,0251148654668434
0,0434957147041509
0,0393706318606736
0,0484573164917381
0,0479731358190619
0,0387858829215715
0,0444468588435031
0,0410612706699994
0,0397129370308567
0,0329066874474642
0,0563354209350155
0,0324974264642261
0,0498940869436848
0,0276996566735269
0,0524610105013566
0,0428328819962279
0,0450804762778359
0,0411688530585976
0,0454676107417959
0,0356870891275853
0,056148275762404
0,0368536017081429
0,0395365583684114
0,0440732618698861
0,0483758547932837
0,0618032199981715
0,0438047478671388
0,0346222547983445
0,061613006278008
0,0447073112028355
0,0525019054577997
0,0389191643437167
0,0520434625599659
0,0328171639237435
0,0423131350046576
0,0579162157818381
0,0467731881075483
0,0470135569496828
0,0494031382957772
0,0370390674558695
0,0629196985955223
0,0506480572888654
0,0521125849033779
0,0453428006939444
0,0539754441850424
0,0312263466695027
0,0897057862373288
0,044664866328233
0,0682515752263879
0,0544554184865199
0,0634762187447237
0,054125956308325
0,0615379827091447
0,0520641910068927
0,0605345975706283
0,0627386729936061
0,065967392062152
0,0448494588023819
0,0644961267167895
0,0675116104758
0,0617106167768982
0,0660607525376803
0,05620250875449
0,0489070893847932
0,0611502299079109
0,0779223264099999
0,0830349415683583
0,0653480481538694
0,0579929106424894
0,080571751966621
0,0656043784332887
0,0655964465629741
0,0648144182492195
0,0687966144662779
0,0675808198718022
0,0606511664697003
0,0759011983339364
0,06964646568791
0,07631113829277
0,0674761715093424
0,0678993935387634
0,0650984676651476
0,0980655634253922
0,0929300769041355
0,0690418147269024
0,0930581916767036
0,0836393057687173
0,0892240061154794
0,0787857925146297
0,0754958948932512
0,0869693277725342
0,0869264532747548
0,0873880151421776
0,0712220146374785
0,0992474720406445
0,0837116163780452
0,0968397092270613
0,0986508783111756
0,0952273800818463
0,0910619727906414
0,0570630197142513
0,245720026167704
0,107002074587628
0,129842976076356
0,100782444154197
0,118620271367977
0,149595019035688
0,131553049494889
0,128339105636863
0,138406273240222
0,134116187881041
0,143424304771879
0,148164519631825
0,148533580928613
0,160276170332374
0,162286817341602
0,15243627123434
0,156984719633591
0,174193096553219
0,21844229343859
0,195210225248844
0,18556903033162
0,194668853903311
0,213711831365358
0,201209037764271
0,2193324312796
0,204326325644526
0,219087748862637
0,251246669305692
0,23827227498757
0,236517735148034
0,238007435599606
0,271051805728812
0,234888711093732
0,293560365659409
0,274403129484327
0,285152588940524
0,273999946172294
0,294139975268262
0,288948259956061
0,284184015917711
0,320891680155982
0,316846238775521
0,315605261695161
0,319961071309545
0,321143234195022
0,325292108111241
0,326208815345358
0,336296883066829
0,317868926672094
0,356315762158494
0,302860116902365
0,488160244737831
0,355226751555164
0,355251360041315
0,348630138140514
0,338468987518823
0,370044031090437
0,334253601977831
0,395319676059851
0,360336822528984
0,348057716560772
0,351752844303719
0,349330323649957
0,350483459139684
0,347283391600335
0,36367608031985
0,335807341568391
0,374626907969247
0,326965412387401
0,380444408305339
0,386960076847515
0,348584266849724
0,342548886567554
0,350766435000471
0,345486692339294
0,350321343370191
0,340059237242303
0,339074166948457
0,353143358929687
0,336153366155185
0,340488688937453
0,317559410309521
0,345551194455095
0,323650021831077
0,316175838773089
0,316011174940728
0,302636082211805
0,309242023014836
0,285817394517529
0,30078978091146
0,328974297866034
0,29818362251683
0,296886883464803
0,282403156069651
0,284123965942449
0,284311426506265
0,276065614444126
0,282580953802559
0,283707303636637
0,273712520045198
0,279147741608773
0,273663222186018
0,28209028320394
0,266299525996542
0,276113593853146
0,27096739501318
0,269362557971691
0,271082286260516
0,270886063018357
0,274338443634579
0,26826728810017
0,269543970498691
0,26825478846797
0,271331656806319
0,278618081316601
0,268309409093421
0,276501434489204
0,272523405404819
0,270964855673459
0,270696017799484
0,273806203148497
0,268300662784633
0,269992960309374
0,268910720646675
0,265933637232333
0,272601185971798
0,270744339568265
0,271382912554489
0,268596521364103
0,2697885308036
0,268132502536249
0,268268402516017
0,241989306014176
0,305740064012992
0,270652534049214
0,270218595016693
0,264146089174112
0,260913181608688
0,2640472072278
0,241927145110495
0,287328496030029
0,268098204623087
0,258931101696244
0,25693824626958
0,246533107230175
0,258763487087293
0,262398416337028
0,246534959247833
0,260363990214438
0,226268377630365
0,262658192169129
0,249113998005168
0,276804981713663
0,289638407595361
0,268825471736926
0,237940237425441
0,252996821265346
0,276676274308263
0,240686686864106
0,256798966740604
0,228293805116112
0,273636724308867
0,253221955765981
0,247404796965412
0,250078819606253
0,228860662888666
0,251392689715078
0,263231387802565
0,233575399207005
0,252404814723583
0,257275777282032
0,227267084785633
0,248133319029164
0,255941537151383
0,24882274057131
0,228298410891112
0,234812611023064
0,223722567777962
0,207270248116803
0,266951644401305
0,21737975305909
0,234266752657746
0,215219291341448
0,210916204247932
0,204945145419995
0,219768457883555
0,213976998907524
0,190824118724774
0,24459502900796
0,188977629303792
0,208790227639685
0,186580071362053
0,207030909466517
0,218613398611197
0,210159081308576
0,182511149890819
0,203541860525847
0,214129477685063
0,185821534271651
0,200936164003746
0,183940568890412
0,175411710613437
0,201346877885145
0,168943958081789
0,185359719954482
0,173905283044136
0,175096651892864
0,179662387231131
0,189725060508161
0,209446581180612
0,180437817359451
0,168073529838202
0,1649360372895
0,162443980353696
0,173920709425198
0,143954100585525
0,191857055975455
0,161856738290727
0,149175162992866
0,199449396829785
0,163886843910836
0,165818644000018
0,170570426618117
0,162374672198209
0,16385692981315
0,168556432408296
0,193099487457783
0,170788406166936
0,174979717255423
0,195637625125383
0,179056952055062
0,180412559777908
0,17848789434929
0,185587032588658
0,181009035306643
0,196445745661202
0,192333241301412
0,196384535940028
0,204034712192954
0,193417017005369
0,206079364225513
0,233236596648911
0,200686805173866
0,246172391582346
0,21049337412454
0,28024660054594
0,237240713318988
0,240924889804992
0,243134779537524
0,2432921251551
0,250899499466069
0,243176061100292
0,248812292336693
0,285657438485278
0,261073477205445
0,27558103571037
0,263762747335092
0,275855013704563
0,259888693860973
0,299718045803196
0,255625343519489
0,328570303302994
0,307630398548198
0,295620015870496
0,295339672472541
0,285665797068423
0,303412996268143
0,296820061355474
0,294994726376551
0,293838701819195
0,282431665486124
0,315199926529484
0,296110465573791
0,301933892665943
0,30202641073533
0,306745549618733
0,304861855044004
0,312127956906794
0,312932730537095
0,311080624539763
0,315614878192856
0,313335757822394
0,293624181808148
0,369530667383244
0,323006710205583
0,328468845140679
0,320678547600302
0,331040883871653
0,329749590561033
0,326995480084733
0,345924031980068
0,340411913625357
0,338096692598271
0,342235712352065
0,340992838800232
0,348300421434329
0,337611419055508
0,372436866852689
0,345411798911175
0,3712510639682
0,334847956417143
0,365154411856494
0,380943413890822
0,359221244019377
0,374862384813211
0,36584139890575
0,369202420449066
0,363799632280713
0,365124714676785
0,371353342264173
0,370451145790759
0,365982894341109
0,374560325586621
0,36476467893487
0,372057676022306
0,371105502087311
0,366375168226404
0,383660302743859
0,364389473203898
0,371860367915163
0,372891024205695
0,376617920371453
0,358591736995803
0,383450979848917
0,377381926287134
0,371297566596227
0,371206699382648
0,367242654664837
0,380836183487416
0,381584453184107
0,36349275879013
0,373334442837798
0,367285121666233
0,370609929053615
0,365839050708583
0,367217247075321
0,385353123022132
0,377565716846018
0,377258911062707
0,373520004461901
0,373518187458939
0,373935340637989
0,379017445769318
0,376336939972761
0,383971143954644
0,375752754059745
0,386397619954118
0,380043946318696
0,381136953027153
0,383831179900105
0,38723311176578
0,388633194307132
0,37968110282645
0,383429502433721
0,374765251914549
0,366152873933087
0,372530063775987
0,369939225879878
0,368487937067761
0,369887730459602
0,361972139430407
0,343932058439701
0,376415437912033
0,351275264288441
0,35660804996386
0,347406743197601
0,344552161008873
0,342123316917786
0,338136176785568
0,339497517197893
0,335827071568359
0,336917919355343
0,335668328549454
0,33224901270851
0,327346240494287
0,3251499917275
0,327360614756963
0,32963361884377
0,324536559503893
0,325686244445547
0,325452742156836
0,321465826095172
0,323062193926485
0,320111044416776
0,326596515833842
0,313393358997958
0,3257660068971
0,326153096980172
0,331583014117782
0,324033731134451
0,32063470110598
0,325967426353539
0,317119652888457
0,320543098875356
0,318660909755803
0,322171618439022
0,315830985245026
0,319444854078213
0,315762290885265
0,323737391265685
0,317769500741628
0,317563481317435
0,316381149669399
0,319511685985339
0,313920955054853
0,316947676228586
0,313480944318039
0,31843127076948
0,313734858032308
0,320262168735963
0,317727378721711
0,316874884796826
0,322580262037434
0,315793929990574
0,320814682376677
0,317829340938141
0,317839592392103
0,315678420208469
0,315663941794197
0,316577868858188
0,312872423296441
0,318466058988299
0,313025211392289
0,313766278414237
0,313014388912321
0,309966822714121
0,308104800532582
0,30916185411412
0,307100166486921
0,304592862213213
0,304679902828561
0,300619674613968
0,295315730759792
0,294989703411154
0,291068811916764
0,289630556669392
0,287541521578839
0,286636909693301
0,281767111590618
0,281840931168977
0,279611890121484
0,27808662448809
0,278428482122241
0,277922475031816
0,275303912210934
0,274711469370692
0,274401128292934
0,273348888200367
0,270968674061491
0,271391716339309
0,271435524886971
0,270865163656327
0,271345615731585
0,270537822357943
0,272347055154353
0,272048563956439
0,272795701001478
0,276071428953446
0,277344003946172
0,278593611225833
0,280847155527314
0,280629809074183
0,283089706593109
0,278775359947525
0,281703626485479
0,28212725519884
0,283590144500334
0,283896329256198
0,286589832874697
0,286339928554609
0,286286878948725
0,286215668833528
0,286912150554995
0,287337649282357
0,287059251822087
0,293089699129857
0,289047526163967
0,286434189523323
0,288377814971501
0,287342562332655
0,287371732342488
0,286550397986969
0,285972445563472
0,285605182238301
0,285135918005292
0,285227736363243
0,284346055802244
0,283218787387417
0,282347798139094
0,282740891048835
0,28032004541587
0,27972685710202
0,279689972630122
0,276759992414951
0,277260328060552
0,276199504097214
0,273923890274516
0,274500351667004
0,2731036897482
0,271706631166607
0,269233833577685
0,270516489245442
0,268817640153633
0,266733321957081
0,268135092014522
0,267753129499853
0,264821848371487
0,263505826059715
0,264652265517383
0,260746862752782
0,259739998934352
0,260680913104937
0,259821642377248
0,258078879768383
0,257012278676201
0,255010731558827
0,252698524887165
0,253779108349722
0,250952390858424
0,249026281949408
0,247230989801888
0,246204955570025
0,244795104493674
0,241764138193408
0,239691428480073
0,237443300719271
0,234596801198648
0,23486940693265
0,232063790731242
0,230774432443535
0,229097941602936
0,230650956827542
0,230969496482623
0,229584144130805
0,227252851350004
0,228160472847646
0,226427264372914
0,226106245221443
0,22721685894248
0,225289695452281
0,224668074345466
0,222274439706764
0,219463729076869
0,219549599725173
0,215348405023354
0,212322996035661
0,211675726322423
0,207768833502098
0,203616717908416
0,203827827018536
0,202365842713736
0,202182865738586
0,200904761149692
0,200517374196789
0,204039801452586
0,206806206466752
0,209119123001328
0,215093527687279
0,219608213388976
0,226244158476801
0,233737251349628
0,243113283521415
0,248787855119442
0,260564606900714
0,272365847477342
0,281703494008896
0,292571013640524
0,302887024862628
0,314116557465689
0,324827020936168
0,334550829118039
0,346690274535242
0,356988645547404
0,367624746396824
0,375389981230005
0,385143278800526
0,394285907104777
0,402229681044885
0,413369762049096
0,421195573517805
0,427926573617808
0,435031652344995
0,444540850340562
0,45035567347663
0,455415257971437
0,46047001885119
0,464472268961188
0,467991194138636
0,473086055007769
0,476410848423822
0,480721698181904
0,481624516885194
0,480142956834321
0,479663741894899
0,480623897492017
0,480791293484968
0,480924420333928
0,485787712407893
0,484431476238434
0,481905419212958
0,486101147946456
0,486042693110442
0,484563376558116
0,487194998123186
0,489393520257968
0,49248318524187
0,494689119190163
0,502159376282726
0,508295100828411
0,509081270037428
0,510955023942419
0,515859325067292
0,523631175124275
0,531446130684074
0,534718151729579
0,541834645953542
0,549538356839431
0,553848895098021
0,561711287724768
0,56817267596784
0,580097794634154
0,589943785820056
0,590187895452684
0,598373644404764
0,607861653711241
0,609047961136133
0,613369914121228
0,618690399837515
0,618344585930452
0,615818963617431
0,61567858997522
0,613449054116785
0,613183871244578
0,609906775834072
0,605422626649127
0,604688570974701
0,607196004443956
0,606631796251024
0,607864503424916
0,614248867386745
0,617428310512254
0,621607853101506
0,629954466805047
0,640457331574628
0,652210784650101
0,659603532186885
0,670381353351015
0,685594832704445
0,692929462790482
0,700182224387557
0,713761271428146
0,720702486895862
0,73247054260849
0,741784003397049
0,752257275794225
0,761764735509023
0,770831669715596
0,785904647146244
0,795638269087252
0,80259227323923
0,822137101611742
0,833339019779864
0,844205210940128
0,862322904403806
0,886937803340715
0,891988715289344
0,913050639398296
0,927599537317363
0,926432194618412
0,936107505230993
0,944929726970087
0,957803156306848
0,965892394281443
0,972297852199735
0,983270928319639
0,992954734581499
0,995901361681077
0,995050854651632
0,995491439755406
1,00195487853548
0,998654064730705
0,989383930617162
0,991185339846309
0,987400215270913
0,991034767944001
0,984963880125873
0,962087956982177
0,965741969081817
0,966951946660015
0,959634964279212
0,964332481827838
0,963930490433501
0,955770812314403
0,967697071104292
0,983028947255853
0,989615283621495
1,00099603356947
0,997888861686014
1,01092213098159
1,01826406523659
1,02483100834091
1,0205429134684
1,02604750173751
1,04674769356715
1,060967337843
1,06183338467185
1,05406529770246
1,05984677947668
1,06523145594487
1,0590115953215
1,07571466770931
1,08290042042521
1,08326031749667
1,08331129383982
1,08582778166913
1,07694317261737
1,07723704720944
1,07500681863912
1,08094906346659
1,09469776164819
1,0807332664567
1,06642065141829
1,08431144927159
1,07770535191907
1,07718363286758
1,05652386785072
1,04569825813898
1,05654878372675
1,05588723652913
1,04005809723733
1,02881006079903
1,02799977328394
1,02098375172502
1,00054866483195
0,989398934953339
0,982115766359859
0,961799034348116
0,926042198142888
0,914677907680246
0,891786977870036
0,858117545644153
0,845634696894991
0,813901785648867
0,772929362292423
0,749909904743213
0,722129861590334
0,709001668931966
0,687705143276412
0,669607470528373
0,659505702297216
0,653031396199369
0,645990351870049
0,636222774906643
0,627237481779494
0,624623537629783
0,619911957688582
0,615048928545855
0,607086325456772
0,600676044262387
0,59665511173385
0,588325628552106
0,578521490696963
0,573955244296888
0,572019909992465
0,562371086161556
0,550084133366339
0,541006316436484
0,524527365459828
0,518813668462417
0,50895777881544
0,489242526234169
0,47253464351594
0,462654085530302
0,448655607130669
0,431923065462879
0,417427736470467
0,39796503466728
0,382147900698198
0,367299525718058
0,349569605688891
0,334856163813221
0,320964724654547
0,308344088102369
0,294053279267352
0,282084952106977
0,276101184733152
0,266341100956476
0,255418271649152
0,248013534065808
0,237843545477965
0,232137574735076
0,224771179540016
0,217399622667025
0,218136822687966
0,218405962393375
0,21633981469894
0,211406868551267
0,207272345595867
0,206766226704206
0,207344933844101
0,209904083071676
0,209894509720876
0,208337528258613
0,206533427247269
0,210397876961175
0,211274967158278
0,21178456967945
0,210196311318321
0,210381244559678
0,213981234630902
0,214013525658738
0,212338764666768
0,209914049650372
0,212044552240981
0,21027156448012
0,206779226728873
0,205508362627388
0,204857771631108
0,204697063044609
0,19979765518063
0,200428670610365
0,201032915658997
0,198381286970628
0,197838314365989
0,200308010066528
0,194993252318622
0,195597702721868
0,199675507038174
0,203461467849009
0,201856701496664
0,203574209614636
0,205397687951123
0,206621774234541
0,211960864386099
0,217171095491737
0,212663621089283
0,216485638105085
0,219018105674514
0,213510361333219
0,216224242773068
0,222640866165482
0,224002028837915
0,221007054044689
0,222814797566598
0,223399834243539
0,220223511970554
0,225432140908406
0,221837290473299
0,220507230097264
0,224313022548356
0,228020988730647
0,228092201296096
0,226736176015032
0,230914858273058
0,237844146147338
0,238709531076529
0,244617325232634
0,250665276521463
0,255812543780501
0,260698826254051
0,270235945466649
0,278235001046632
0,281865111989112
0,292039213201851
0,298071941021219
0,29926239699606
0,296804548464528
0,301098146894224
0,298709855272753
0,29285269409066
0,293917908549269
0,284524746672299
0,28497767180122
0,280724279163605
0,275622438560032
0,2678045050887
0,266984096357172
0,26542843642783
0,258349117896044
0,263695914019316
0,272140821010365
0,270510932790465
0,266348030600968
0,264968078642016
0,26162659604267
0,263201147893669
0,265009168427091
0,262584546803794
0,263504800145793
0,25758169592462
0,257096647840806
0,25161371546247
0,248729177522608
0,250111426900034
0,246932270283131
0,243737700273031
0,240127854057347
0,237430686410601
0,239016817166159
0,237460909881808
0,232709805744024
0,23044476716199
0,235487510032806
0,22534784007228
0,225606123376181
0,231308109963706
0,230248882870173
0,221899252955778
0,225180285002531
0,231056651481408
0,229555806268848
0,224097664845809
0,222258802144206
0,22206110787036
0,220145161150631
0,216567648259728
0,214821201018957
0,21174057290045
0,215317210999683
0,213707991174992
0,209555020132054
0,207166943473128
0,207211866162095
0,210887739636807
0,203459776687588
0,206703375109903
0,212657363364829
0,210945265110666
0,207115310829219
0,20542405629937
0,198684192441763
0,194670983723134
0,203839261073505
0,200603162030556
0,202713639290644
0,203439134229017
0,202565660573133
0,206102474162964
0,202379397635265
0,202144079484931
0,209892130555287
0,203783328113443
0,199561153136681
0,201591645952105
0,201674596817505
0,199386554265051
0,207279939937442
0,20310057811386
0,208632790143092
0,209145494236053
0,210306232769051
0,21978767088803
0,212810479514912
0,205574263258728
0,22300469809594
0,227026914404652
0,222699146506624
0,231575363204709
0,230295313631668
0,231341560071764
0,224402853317958
0,238656396839026
0,246542510040981
0,240595054214284
0,237022642517731
0,23915528509824
0,243911771691659
0,259090922431323
0,263629008895091
0,266384338784786
0,276392033550047
0,283762917526223
0,279632331308605
0,282011244637597
0,297518947451201
0,312939067406148
0,331326305864389
0,3302403709192
0,322089665255015
0,344605154922306
0,350341053091776
0,361443547848413
0,359658181077257
0,373589452202666
0,385605793579076
0,371091516603626
0,362164696986135
0,361963501110319
0,366752338785025
0,355738784204772
0,330841109121807
0,34553090151547
0,365325635559763
0,351119610960553
0,339685542790447
0,334496179169146
0,336646197939517
0,344624981837396
0,351109165908278
0,332721334452516
0,351215055812122
0,337160479986474
0,323943261449367
0,339247289621551
0,321162808291769
0,339500134597203
0,333220039114015
0,310847719853793
0,311910363685727
0,32441826594381
0,325409159289022
0,321768156454824
0,31889217377354
0,31976917365659
0,307872561293119
0,308721332484659
0,310124577550378
0,328032761433304
0,29832428212229
0,286204041043812
0,308707700464602
0,312273723375078
0,323782226904763
0,314630567126255
0,309436340577968
0,319679844718204
0,325164740971218
0,310216190051424
0,312052887463318
0,335446916748271
0,331448077264416
0,327116988772775
0,305070664041976
0,296741470430479
0,320314058389375
0,302849479418177
0,310015872213467
0,333568020858358
0,319723690134562
0,313284954095022
0,326484732463204
0,330800261091013
0,318747527888113
0,342608119726172
0,327846430924218
0,33573262715121
0,330585949288847
0,335267883187537
0,346448076044536
0,365074481574245
0,328675266107879
0,337752570647152
0,382412671607884
0,386755091439896
0,359210298359423
0,36092823012708
0,393847468943157
0,393278141626611
0,391828992051581
0,413006092408924
0,441638183955764
0,431028478210733
0,399689462785264
0,401221452132798
0,424562739678565
0,406667184099185
0,459355786181187
0,477666477276818
0,413660388198186
0,440388472028536
0,454240185976485
0,482631530524923
0,465179829931287
0,39810716946531
0,417058693304491
0,448912094251665
0,468628693370192
0,492863378217512
0,488601834521169
0,410867137401429
0,343904761200497
0,429219801575283
0,444070774523276
0,437298318227409
0,396973707642247
0,388488454011886
0,435052961169653
0,354503853210462
0,40152669895501
0,443133826367986
0,377037380015124
0,389546237002198
0,370648951520234
0,495692682492337
0,436319493984433
0,455783066480691
0,446957903724105
0,351327559677755
0,428463024831091
0,385567861172351
0,395917135790682
0,468745070895263
0,332965059667649
0,553484201848888
0,523621851644448
0,360404099530781
0,346416095512237
0,503937334046149
0,785303450609582
0,554119563794986
0,434522641236917
0,465615106184559
0,433405754579091
0,465920657713851
0,450828120809259
0,479152043623887
0,314983228310357
0,48169768566921
0,400398995966132
0,501160381132761
0,4496516745264
0,543292250305292
0,495529160732682
0,622211124995615
0,240843375040466
0,408374749095488
0,407499151728309
0,18698468869808
