3596
4000,36533379555
650,420452594757
1
2
2
0,0764102035360866
0,0781878665844346
0,0741386070387267
0,0752016016733274
0,0785954099935408
0,078941067607182
0,0745507973563863
0,0668585564979406
0,0765928745832842
0,077868057626399
0,0758234295875497
0,0741136256624826
0,0775231297012218
0,0685242791854375
0,0715333056360646
0,0856107163967466
0,0716095512959875
0,0710785714293996
0,0783183455258344
0,0777848841052711
0,0774594959116039
0,0695612156510174
0,0745853565044615
0,0746638611692699
0,0780267113206767
0,0790325276761007
0,0746585518368206
0,0662866694767419
0,0861196176522045
0,0864964163718562
0,0686468891633898
0,0656641927395363
0,0705905635720242
0,0734920480238666
0,0783861246677328
0,0690296509457148
0,0751565247845788
0,0728123156923532
0,0680172123041113
0,0767333408469352
0,0755327377645761
0,0794492062507282
0,0788459015514057
0,0772552352364703
0,0765962834646801
0,0734142387360903
0,0671894837230972
0,0646894188364211
0,0671618343662498
0,0697983393879629
0,0785746304381628
0,0687268284533541
0,0781978474766313
0,076979346633179
0,0786042929066591
0,0822169986434662
0,0740164116276749
0,0656395932778245
0,0748342439932513
0,059825652768845
0,0772030887554202
0,0705969656177535
0,0809774240525548
0,0635841364386287
0,0728522456604479
0,0630689259511961
0,0701190038343606
0,0686915061044494
0,0708293795376968
0,0666934715245505
0,0673674677355766
0,0723955655491554
0,0740627118212761
0,0746330166570208
0,073704204555512
0,072907655424812
0,0745882997194426
0,0588656910138442
0,066935725788603
0,0638210124779084
0,0775244239235055
0,0684372459148817
0,07375747550279
0,0563758021701502
0,069335054184292
0,0872273007544146
0,0643074585120028
0,0669076116129541
0,0870330676960398
0,0789933884323664
0,0671197996386142
0,0616542630565751
0,0675997480070868
0,0654736700173762
0,067453706994127
0,0707365222850502
0,0675987189505332
0,067327740137261
0,0563109370269552
0,0631637723977799
0,033898412174648
0,0842823532825954
0,0719952228053425
0,0553809151015376
0,0817980294919308
0,0571114554340501
0,0665094044963572
0,087549077122501
0,0881433936868153
0,0647277905789097
0,0653362277161427
0,0541787435949738
0,0733433707657595
0,0548473849470645
0,0437472410779872
0,0678298809782034
0,09178025438124
0,0730156810980567
0,0635970037909834
0,0593050712736128
0,0385551819588985
0,0845453237767656
0,0782040665173628
0,0653917856807777
0,0677214653628641
0,0634904836511229
0,0477135375780662
0,0953894119120527
0,0818858402739853
0,0700788009414145
0,0521876363002122
0,0685944539527473
0,0405694794850117
0,0631642762777386
0,0938232206844947
0,0779338821649683
0,0615814535274441
0,0350840740922586
0,0694607938432253
0,0753262705770935
0,0827352802812017
0,0681783065346854
0,0426923130830188
0,0604672226287852
0,082980766368734
0,0630648332817091
0,0523190327851278
0,0877513087129078
0,0662043389111223
0,064651192670043
0,0549947841150383
0,0548886350777227
0,0673820847697974
0,0643000986055427
0,0317977095060083
0,0724820369035453
0,0645033268251988
0,107995640029589
0,0903972351532127
0,0694447807543803
0,0592908480649862
0,0598287644706925
0,0611058344734611
0,0584375812023304
0,0660388291987798
0,0427044896743793
0,067071572420203
0,0642684663606667
0,0621591566059182
0,0495430618536992
0,0895921692007452
0,0472442218526912
0,0572487579007826
0,101409674424464
0,0622043400602989
0,0558432088807468
0,0818999052357619
0,0730305413336095
0,0433402683845784
0,0694527112372798
0,0794200689807183
0,0678589543879997
0,049705536322774
0,0506497642018034
0,0547046805902739
0,0765754420076326
0,0695177473982758
0,064499828121888
0,0553052883597083
0,0451333440192358
0,0397759304542667
0,107555996168714
0,0740400917061334
0,0797753883955721
0,0488632457958295
0,0431521761780372
0,0799306351116758
0,0904910303221454
0,0684571247946555
0,0503483557321535
0,0613585930971114
0,058033212973794
0,0579291432681562
0,0638690315997856
0,0407439538264917
0,0435437056382839
0,0906386642696878
0,0806719042444348
0,058404578087602
0,0456819280640251
0,0521347280341575
0,0351121533867939
0,0916222719194954
0,0739619131737206
0,0763872107915335
0,0480514062492841
0,0521999204680983
0,0820893533959387
0,0782183462574087
0,0630220746533939
0,0611339096665514
0,0573066205146752
0,0599750000161969
0,053287584879774
0,066217099971173
0,0629488758292825
0,0630642101551972
0,0648302489638638
0,0604010003645793
0,0675385996092239
0,076589982604353
0,0574251217589285
0,0634807753411063
0,0600832175767596
0,0456202944259022
0,0692155582588903
0,0659962763931804
0,0711639687644023
0,0648822672600625
0,0649295982869378
0,0567575338370292
0,0615556224061319
0,0572772985717022
0,0688463040118822
0,0506706413734749
0,0687810347586767
0,0867131704317114
0,0747747999143522
0,0652936629235628
0,043014205203835
0,0785890633374121
0,0632504479452218
0,0704055916228346
0,0618891022080574
0,0781215870513308
0,0430580399779559
0,070757803731452
0,0757543965536407
0,0761573547399583
0,0509479561665244
0,0823220078262857
0,0600604676731741
0,0787333273993893
0,0331115778136016
0,0598682787315656
0,108784857448717
0,0625398081909927
0,0596987003235025
0,111088492267713
0,0669779470051962
0,0830278281598994
0,0389867803674883
0,0239402669468741
0,0917685245532242
0,138277547156528
0,0635341732678376
0,0600405588113761
0,0737573363043413
0,0582758812197011
0,0662403001615181
0,062502594528801
0,0713620056905093
0,0556544191353929
0,119060791438595
0,0836024575964694
0,0410960214885433
0,093592767479028
0,08363575618119
0,0849856741180964
0,0674599063677483
0,0775571470563175
0,0480868894321078
0,0883903358389322
0,060087411280175
0,0949966500697869
0,0551298954138461
0,0805967779157841
0,0798682387098706
0,0912567707743015
0,0532213337172831
0,0801443687646804
0,0658079202156554
0,0806218112420971
0,0688406015533787
0,0764303583801757
0,0773457634548302
0,0529244877698812
0,0519634044284387
0,123928784235042
0,0662757995597406
0,0859569629124368
0,0825043840706307
0,0806851044475271
0,0673853479686825
0,0813276553077371
0,0683490414186063
0,0791565120063172
0,0621013799560544
0,0689812070550877
0,0927949996131267
0,0830499259020828
0,0740148961866936
0,0782973151260553
0,0777604249495717
0,0781937141937802
0,076973822579726
0,0769573192560282
0,08368460108801
0,0832435440162525
0,0592296005086661
0,0927617232866691
0,0889397093808688
0,0577674021647253
0,114763969155286
0,115515801114258
0,0893580964036146
0,0811159969639247
0,0866336652780576
0,0899642223850824
0,0775510662462979
0,0870237058546494
0,0753156814504303
0,0925031687439576
0,095455148343956
0,0888914585161113
0,0793126563650675
0,0766172705433271
0,123266088641553
0,132849889850934
0,113293198955292
0,0918125660528818
0,0627382758585428
0,142655274099179
0,0808206597631492
0,144319148065675
0,108770267221702
0,10792753108604
0,100529128716793
0,103732580326922
0,102029566197619
0,109192148052154
0,0994500712690637
0,106275391278462
0,109554005740921
0,112690964820635
0,113632071036531
0,0999583891270429
0,107523638179593
0,154251823108298
0,124897495639944
0,125651254483906
0,11362613923919
0,103576481947871
0,152590567546308
0,118529358756795
0,180434156972696
0,1140983717272
0,161837781171073
0,166233923803853
0,143722693560384
0,137751757906252
0,128084758687094
0,145737850962956
0,140534922929799
0,154782847377523
0,148859154854416
0,147329448183836
0,154778321664272
0,160037739293993
0,167700717712966
0,153857974281749
0,155707932984966
0,181205115270905
0,164517849588261
0,171769902604876
0,14286321659215
0,190131928117166
0,206936411202967
0,234036070425322
0,162508006231653
0,208230892310987
0,165417681855139
0,197863532747506
0,176191405004687
0,206589950588625
0,183872601249643
0,197504292227078
0,220748123453215
0,199954170304008
0,211588584145847
0,223971179279608
0,20454652564213
0,240172907039621
0,185346812779953
0,233141452701852
0,247662773959617
0,23603770377961
0,196135054231733
0,287155644511871
0,21428459287088
0,253640275877586
0,24553273132932
0,250880549156405
0,239309939455266
0,255511806599787
0,247627544139434
0,243155464267906
0,256389440691343
0,273531692307534
0,261892476086337
0,295047462897443
0,272919231397467
0,284743816673022
0,296854592599464
0,280730805873453
0,26693788544485
0,300279082896072
0,285166697545191
0,301670116204343
0,253390647149975
0,343729926281312
0,289968720986233
0,35761483181591
0,317693749070294
0,3192252885124
0,309088362497473
0,326348652023395
0,320869636990769
0,333623205999637
0,306607613251411
0,360795549587489
0,336914456724708
0,356285395767173
0,341336120668396
0,364656802910175
0,346395292758285
0,370861195697649
0,354570605580248
0,377018967560967
0,362117796699067
0,386792536069813
0,358262008163293
0,41707127388682
0,365049123691227
0,435575750908302
0,406847173371725
0,4186860922026
0,394328561833918
0,424433690613313
0,388656659065738
0,418591039733347
0,425978346876021
0,439446175929407
0,418541207915815
0,43975957895853
0,43813792358479
0,441214411235151
0,416932085623978
0,453610115734301
0,456030717593566
0,495136640367163
0,463197683200885
0,467788562553335
0,478369870358618
0,49050400640665
0,486341072343226
0,499038519050148
0,48814267054046
0,513180475391771
0,487373057847354
0,531467703724
0,488696839737185
0,539261027473303
0,502565410313837
0,54723351912764
0,514681493472052
0,545145317439603
0,52466091076614
0,559554076279599
0,537248110622106
0,551988718699942
0,532873498164267
0,602103702268912
0,529882002942441
0,59466595603551
0,551634408698045
0,614376800908362
0,564342731392006
0,591125707514246
0,580249367077239
0,588253899588574
0,592525829108969
0,637126406752409
0,60326224921868
0,589250063452169
0,606062801674532
0,664128642513274
0,616489218715505
0,637316647084852
0,647724572162138
0,635447357190625
0,642382305165005
0,673075142834753
0,650417495637806
0,670647775685103
0,671697227149533
0,720922348113772
0,66504583597909
0,723607259610717
0,663886500381233
0,723549949203116
0,644807617139465
0,72464952567292
0,669142378833558
0,754005331327177
0,707723965461962
0,758434445099828
0,737962849550455
0,742445105832769
0,734734860986151
0,808629356768642
0,707351002240932
0,777292404530484
0,744377732180159
0,770417531570393
0,730819746651155
0,777928116719764
0,753466662795402
0,781278615203382
0,745333880155769
0,814342129179675
0,801109449008625
0,821318994490269
0,760823055637565
0,918048302773546
0,78608763107421
0,904375456554497
0,786762360914205
0,895416784036478
0,806598091425795
0,89642954353489
0,770812061819119
0,910442589796968
0,826252772145275
0,881942729279232
0,833105398685483
0,909936521749584
0,830092653093404
0,870577187027828
0,844226759230556
0,941366266320357
0,811507071639585
1,01335181815971
0,910925958472909
0,942510784165052
0,944401686556773
0,940105945899181
0,849343968966453
0,964957185273742
0,94768840982676
1,03854556194285
0,919607291292064
0,989281297632742
0,910998760860378
0,989286081136425
0,954564319694251
0,999106627375933
0,964085580369662
1,00101922439124
0,925617742957537
0,988344513652563
0,937024007998683
1,07927352791414
0,998229127171854
1,02824560077207
0,985002147732628
1,0367378711286
1,00624722895468
1,06958964780158
1,00456022565565
1,00980789687266
0,975268045595063
1,12733057709045
0,958001828403403
1,09391496829212
1,0759990644985
1,07476598062365
0,998158103691256
1,11166392329514
0,992420032784498
1,07461497980504
1,02684034898831
1,11284673907914
1,04634268241294
1,17694193205533
1,09628930929352
1,2732274813574
1,0691145762389
1,26316793217058
1,10856739811425
1,22196274127995
1,14318833018413
1,15377135450981
1,06629078440637
1,25390636591482
1,09773287771387
1,25093064046149
1,08310950675813
1,21534199641837
1,05782486845132
1,21157484719711
1,10707541725326
1,23774224479188
1,09533215615104
1,19572019433664
1,12637198141239
1,28885643621388
1,17406802543952
1,23729510388892
1,12840033334361
1,27359930953803
1,17171065794196
1,22311473840507
1,16130212701996
1,22521894663866
1,18338960900689
1,30865229116462
1,17423639858167
1,20979989882847
1,18824112813493
1,1988988657697
1,17973662932818
1,21539036913242
1,2267339979414
1,37900421246362
1,27645047150477
1,25439052997859
1,21378032645606
1,2249969886539
1,24584145174339
1,44843221888139
1,26951008162305
1,36215503638586
1,12896299686554
1,33570215159673
1,25279115685391
1,29120682790766
1,19264899536928
1,29506210792224
1,289839933073
1,41051682561665
1,22656421491829
1,20990127156223
1,25174008334875
1,34099750174104
1,18720138087867
1,33485608553619
1,20013440472138
1,34679971645581
1,25986100790965
1,39575837127727
1,32690341120909
1,31483850368448
1,29859121501972
1,41868322349631
1,31487746150056
1,37457290033038
1,34615088601658
1,23749433538301
1,36291886842114
1,52791228612623
1,30471796398081
1,39968677961331
1,28416967025401
1,40188325457536
1,31738956416518
1,421715295353
1,27845016492995
1,40134833663112
1,30067941018688
1,39227173000781
1,28433408738508
1,35280529042341
1,37847583304695
1,48098526203047
1,24594058786627
1,39769649080605
1,27891650439438
1,42862857197531
1,31281031957987
1,3239741035097
1,30174409805562
1,50296612204892
1,23696915190035
1,42605826191115
1,29520414798085
1,40154076898761
1,38962766320599
1,37793175804184
1,33533972650751
1,37363444117139
1,37481172799167
1,47536088610415
1,28707588958755
1,46931973383016
1,38001859752894
1,43689459109512
1,36168948157406
1,45217105632757
1,36486667602773
1,3963925942808
1,31256456940103
1,47369994791648
1,22267572419408
1,48838422101737
1,31200859055862
1,49517764781616
1,39990586380817
1,45207487419379
1,30724184606085
1,50387960318212
1,36603091154083
1,48318971782823
1,31316256991866
1,3222816510859
1,32303658972965
1,38161882824507
1,52379868068656
1,3697711811553
1,32348030978583
1,42068874244662
1,42954391844716
1,47529443197323
1,33474158199755
1,49746985506063
1,28600735522804
1,46387169637604
1,48785121149041
1,46750698491707
1,40489333645796
1,44863901709208
1,27408881891811
1,46214452721412
1,40540131790685
1,41565717126448
1,38928422751488
1,46447556758818
1,29356523584713
1,41261647867595
1,41119360184788
1,51372136721924
1,44897893765727
1,45367805273349
1,31752876539781
1,34757928097772
1,30131112203056
1,51729988752097
1,2784673073762
1,38887451769569
1,34558610251857
1,48114319068056
1,35019945939497
1,44943418358807
1,37504950642198
1,38078633014728
1,32201126132553
1,3318536660171
1,35079508683683
1,37600039414897
1,3137143258461
1,43448414208808
1,31254275514166
1,41593043023845
1,33458734774467
1,40148488911861
1,43870275426752
1,46082843083375
1,33553169220056
1,36254927671549
1,34488768661893
1,49377258764277
1,2339208151702
1,44458359158043
1,34479457735769
1,38523654035963
1,36873721824801
1,39170710474156
1,30310254950723
1,39932407138727
1,2770649646254
1,48142036604062
1,33498741000535
1,38447304436238
1,24046736080995
1,37576155398308
1,32122781286223
1,44632196552374
1,29427622031143
1,30382887652347
1,32114260745127
1,31666155882435
1,30949210330029
1,33096511124398
1,27388087750348
1,40648842548054
1,25814412259461
1,34774509503701
1,2957406398846
1,32185498619094
1,32801715892242
1,33864520797594
1,26995782263743
1,30660299632087
1,2874416897692
1,31070571178899
1,23159380402985
1,26747064018664
1,29115693051114
1,3305467351672
1,20572434847613
1,26253211630116
1,25872999845159
1,26720415987721
1,27225151784701
1,3441642137306
1,25528270416477
1,28856286238766
1,18484685244828
1,22515309120928
1,19966944047835
1,27994203312527
1,21203211655581
1,25015073446152
1,23047979913233
1,22028344566138
1,17329496180109
1,24248236674649
1,1520999945659
1,22787265887128
1,18947197532845
1,15930123670864
1,17929864193199
1,20296973539643
1,14815409293662
1,19712027268372
1,19014143445761
1,20877002086209
1,11835047865048
1,18954984832239
1,16684016904498
1,16520332089741
1,15365230864088
1,16582873395712
1,12137140423381
1,22729523106892
1,11274466187724
1,14380167994267
1,11682373489091
1,10822690796523
1,06120615603807
1,09935368715882
1,06405960594617
1,13751272876067
1,07810400659318
1,14708704175738
1,07809604653808
1,0975973761188
1,10464674738074
1,08466893714953
1,04652109261709
1,07788282446918
1,01870795858464
1,10887341371703
1,07664514155169
1,07362792912103
1,02921320282394
1,05760361852087
1,019986979401
1,0511569673805
1,04484309803516
1,07900264887389
0,995751203609839
1,02869417279106
0,989086775692506
1,02293583946078
0,970275025189023
1,00213169419407
0,986691166288928
0,999486680364956
0,973796314793343
0,986246798970106
0,97293590820559
0,990870338006506
0,996901147395581
0,993693505702772
0,947798023890538
0,976926456381654
0,945990301387707
0,980428161366913
0,920421100602759
0,984636228488905
0,940848979565152
0,916398938584371
0,915741705717842
0,93176807644033
0,914086919725175
0,9334910535578
0,919100572806483
0,910935125747112
0,887126323455603
0,904429189772355
0,889168758814813
0,901868686289654
0,870201178380063
0,879024339638593
0,865312825700882
0,871357747137865
0,868768289685698
0,871807768546629
0,827822407040475
0,869827799406331
0,842630683072172
0,859439448124498
0,816844882627105
0,842773734473881
0,820396167275228
0,846743162380346
0,81576176344465
0,836806248257791
0,812027748179179
0,830242255610314
0,794589924561626
0,825995687023654
0,787135956433799
0,805719860290095
0,797802106283877
0,808546914409653
0,781625293584937
0,798450137033065
0,784615077433442
0,805067869124312
0,780407881158596
0,774122856986135
0,762481813409242
0,799021211435545
0,760452162271394
0,772913133956023
0,740422937445841
0,752584753112207
0,735035514588199
0,752536452677404
0,734390746312714
0,741742070509335
0,734920842268449
0,74685849392002
0,71997467107767
0,732381602004685
0,727253949937817
0,72536279477071
0,706095172139681
0,736354967667766
0,706881630872608
0,70673412695126
0,704157929673813
0,711572799095099
0,697173686543685
0,699688380101181
0,67386289536554
0,698701532337824
0,685312352987105
0,692334131926877
0,678677607162725
0,68113826700602
0,683192064921668
0,69044764928735
0,66132218094656
0,672418573992222
0,6540049703398
0,669190453473917
0,658695654784298
0,656218154276566
0,64066170397133
0,657398458695522
0,642998485998194
0,653687898223527
0,631108491774113
0,655084974813526
0,634254441372052
0,637469107507693
0,626819888355581
0,634141822967094
0,612591869507775
0,636338207187279
0,613925482840278
0,618231588075194
0,602166474543663
0,610509436428339
0,601973461969158
0,608029744995818
0,595527580307057
0,59902774802366
0,565565019608949
0,580617043869392
0,582938376093239
0,589052819875638
0,586028358675799
0,585894207132913
0,573301645930316
0,572212621110335
0,562376554310069
0,586089051424779
0,565155020447704
0,566401745332621
0,551609904671437
0,565971673621929
0,5494828341566
0,557367386970759
0,547404496950176
0,555956989373612
0,535708023641614
0,550356394517868
0,533997163530964
0,544257196653789
0,528422874181782
0,538597999900089
0,526680764857166
0,530024782352004
0,527821309000394
0,528609099193714
0,507940430761529
0,51425213650923
0,510739782859078
0,517622936056719
0,50028113994673
0,505882247648747
0,501556297237032
0,504079744249306
0,493479975687685
0,501621530662278
0,496819608258386
0,501971258865186
0,497863181498511
0,501886115966774
0,491139150663313
0,499856017716691
0,478430879990953
0,490121131004188
0,489143040028176
0,492491157522919
0,47931814177017
0,489475251984218
0,482022457271715
0,478797545088127
0,463064979622363
0,485196895223789
0,470207637579853
0,485999512554942
0,468151234104738
0,481381366245186
0,464280448401827
0,476080045110399
0,470318795816629
0,477935887236095
0,470246343673065
0,47754886915685
0,472159540220483
0,487613140967905
0,474805489147307
0,483955284116413
0,479899885017368
0,485422731778062
0,479488700258066
0,481168973830684
0,474517213291144
0,490960988715653
0,474831398022783
0,496048852692719
0,493033177409367
0,491914684077732
0,483904499472317
0,501367637962024
0,496413677156356
0,509298336893927
0,492046689314853
0,509759439823592
0,495588228533522
0,505576638076419
0,502775143222667
0,518169661204969
0,507272671320641
0,520451758573947
0,506162673327359
0,518443320595434
0,518406126423339
0,526507098085305
0,516517178366611
0,529678772316812
0,533359934541224
0,535353496871083
0,526244944193772
0,540235401470849
0,536854453196747
0,539749212625569
0,543194941653783
0,560772529174095
0,540912011658296
0,544762178604588
0,542193367126197
0,555016959472622
0,552892641879302
0,567507224939548
0,567614676319959
0,570639241940947
0,572596990693078
0,581546875437056
0,572760137323305
0,590762250926073
0,579663679272776
0,59090600018924
0,587424660736356
0,602536065029231
0,58880245192622
0,607794131970662
0,609144283229649
0,627965503541322
0,615902725364079
0,611105442312343
0,61653678598372
0,635835100001179
0,61349536292452
0,619184600169912
0,610294039379484
0,62565676689775
0,62214388720872
0,632561704006081
0,618985328907043
0,632212229957652
0,621062212262993
0,632340813289001
0,61747614426454
0,622550218110352
0,609834333506755
0,617192642710973
0,625322737598344
0,631752689282905
0,61350097689031
0,62695831890996
0,611126663640367
0,608059271896148
0,60035591537595
0,609211140769659
0,603054733292058
0,606779964180219
0,609640659052024
0,615009740729434
0,5989288449019
0,614874454256559
0,603683645338946
0,601468270761018
0,604433235855769
0,61469062507764
0,592998755740072
0,617185621241063
0,614807240254493
0,61489740142121
0,602916514852928
0,612863085077918
0,606129364115754
0,613533726273481
0,608168197382449
0,612881560796295
0,602844074316355
0,612965406193887
0,60279010428205
0,595118394525727
0,599762933019689
0,610286528964808
0,60053976197228
0,610026605284586
0,594541868057555
0,607433253120708
0,599960599024168
0,612824090948201
0,592660341863773
0,600540174862815
0,594408116613066
0,594659693808373
0,589798942638854
0,598613192757614
0,583089270547944
0,587130737309165
0,580091588691633
0,580969762721796
0,576290237370534
0,589833491967595
0,573404223801449
0,573210919539056
0,56361673262422
0,554101555932432
0,543986366050873
0,563891765109739
0,553189719900665
0,559850873738931
0,554043935649504
0,551659865131805
0,529548957044245
0,540843066552313
0,537062453124428
0,538733535461225
0,531543841318666
0,53139036210972
0,517011846189471
0,525886261823868
0,513843880122243
0,519255927947535
0,499896240154381
0,501914063550887
0,496363351130867
0,501182640726509
0,484983389481115
0,496646809502073
0,488142901470641
0,479730884541073
0,477868509824589
0,488140871211716
0,474969959288258
0,472937274952953
0,472130008564272
0,465963676771407
0,455181403110076
0,466851992783324
0,458012261199593
0,452769936012411
0,4455109052067
0,451981467877166
0,448805305000623
0,451419319288704
0,438153075177872
0,445725905573166
0,44095926239345
0,442263936420615
0,436127980454089
0,438776902038785
0,430067327277154
0,43231582594477
0,430221811603274
0,429611827893584
0,418930883130767
0,431545095840862
0,422389320923388
0,425950644549358
0,413711615062836
0,417843200051888
0,411094899393825
0,415409994589737
0,415526729913368
0,415405064950727
0,407223906431995
0,411749009851239
0,403087887637306
0,407388254655206
0,397733306716095
0,407144009677742
0,401883999744533
0,400594096584205
0,400990975435331
0,402023856364951
0,393825184978875
0,401562957222869
0,391522794889963
0,38852796547064
0,38445113546759
0,393267133136756
0,387885090620813
0,393092279955813
0,386138370687648
0,385746727908922
0,379234923948414
0,390394910394518
0,385070756422429
0,38737208436404
0,374049989005706
0,383512265168771
0,374314571763202
0,379778092890548
0,377881470242777
0,383007262580753
0,376083391260657
0,37378581693719
0,370623821019479
0,37205812124694
0,366290369999209
0,370431406466088
0,361096154518399
0,365280602620195
0,362904358450984
0,370442168605696
0,365490484173589
0,365554125096773
0,362809982188066
0,36420516673504
0,363967642450797
0,368756274989236
0,36263227375028
0,36637368296709
0,35975224292436
0,358511477668109
0,350504515440656
0,353181124017306
0,352464494149731
0,36170811129399
0,349119511264759
0,357591785387602
0,349640184704751
0,348745488858096
0,346806097705381
0,349686833931975
0,347170628294205
0,35204482707001
0,345127756875489
0,351515235048007
0,348446397718722
0,348925094392573
0,339909531821046
0,351977155632482
0,34335814480577
0,343323908581819
0,344267470360075
0,347232851081773
0,342734315519849
0,347156751999223
0,33962905853588
0,344162224871385
0,33722694302173
0,342901580756273
0,339153199045904
0,34200904089969
0,333142636717994
0,340865509562003
0,33858762509253
0,339378351633201
0,333544592054314
0,343803778831089
0,337365658551986
0,339701484544339
0,330313869581617
0,334920231021276
0,33515642123851
0,337760913891371
0,3328690740139
0,333958217997239
0,328999905709804
0,331431476646232
0,331566993756858
0,338389193140696
0,327719122813632
0,330478129031135
0,329597241868707
0,328166588508123
0,324910880719287
0,329408928691439
0,325120703446871
0,326741286896762
0,327357497769784
0,334733894887193
0,321308965268696
0,324156642146227
0,319303716725578
0,326432161129863
0,321281258240565
0,325659689559717
0,320949037752595
0,322500479329088
0,319298561926185
0,322824507121448
0,315666275096988
0,317469079198099
0,320933651809291
0,325075498716217
0,318103640396154
0,320880767130782
0,31115878672879
0,314367105798963
0,315141952108286
0,31453150108636
0,311510941416179
0,315346257978932
0,311431845670783
0,312438886329895
0,308921926882986
0,308532811292542
0,30491723949203
0,310277838184771
0,304796398070136
0,310454013311789
0,299443476002073
0,304672311544478
0,306839839147734
0,311488277825833
0,301654345463271
0,299983906053651
0,298624405387899
0,303815289281669
0,301251942301981
0,301175885904786
0,29741874446568
0,299748529544514
0,292386884986807
0,295721840444688
0,291650134801809
0,298140888698226
0,294271388505477
0,296382075614135
0,292806730771813
0,295080587980307
0,287862308129554
0,293920384517004
0,292296535581255
0,289899146176708
0,287782982806833
0,2887230072953
0,280896389512864
0,284306824381525
0,282235425067711
0,285787456382894
0,28071537782211
0,286349717193994
0,279200868296655
0,282056391344106
0,28168022915711
0,281618191205355
0,275681766835197
0,279383654201916
0,275354063024842
0,278856255492976
0,275544209024121
0,271369238108095
0,269630684181318
0,268967418427044
0,26772868372363
0,276162131772033
0,270423910679917
0,269549107915608
0,267264968017748
0,267578979125296
0,260559215639896
0,261966464856793
0,264030263739178
0,270897848241466
0,266123099884532
0,264308869229718
0,259664280412006
0,263909801832661
0,26047313900614
0,262616206789519
0,25871753857159
0,255565210234152
0,257605353771938
0,257140913312403
0,24824849701073
0,260061759361365
0,253102415730962
0,256739844891074
0,256104198284425
0,254799783124719
0,250635764284546
0,252003289814319
0,250811176795689
0,255369172017024
0,250298039227442
0,250408353904377
0,243766052318394
0,249249193019357
0,248279590769441
0,248869974674533
0,2433422180343
0,245985651759128
0,240915309606463
0,242439770706509
0,240571015812902
0,245720312592758
0,242994987946169
0,244694512605307
0,239359832312519
0,246216488386466
0,241359845370191
0,237497784653253
0,236193232623715
0,24343515395742
0,238484188073816
0,240337820880462
0,234016485049022
0,24005266625184
0,235491319795391
0,234270306489633
0,231368967750351
0,234951889390163
0,232262282485029
0,235173447502635
0,23400015615579
0,237732693552515
0,231813186045313
0,231519499937642
0,231868614134458
0,230504051901917
0,222702250871092
0,228461607409734
0,230686708222917
0,232991854537279
0,228416989332722
0,229348200377951
0,229201715725677
0,229924538342557
0,224856971920114
0,228216096586088
0,229010297729701
0,227094383826549
0,223735993809165
0,230353829249162
0,221447084228581
0,225902844673117
0,223603221197184
0,227067248703992
0,226003649731077
0,226630075904547
0,223469829259373
0,224717833804841
0,221916096095533
0,225533724146981
0,220110614388434
0,225229063626139
0,221044010674838
0,223349275660966
0,221405795436549
0,222667997748662
0,221371977355936
0,220915730195629
0,216890520099412
0,223020692245201
0,215854681137134
0,219755830741727
0,216495254850466
0,220013758956262
0,218090939681515
0,219398958104537
0,217113678028803
0,219121490101443
0,213764558621553
0,216832920632514
0,213052699737937
0,214501418899799
0,212125196921931
0,217053810011625
0,212626509602893
0,212234384668257
0,213428792878904
0,212918898431697
0,212174398036798
0,212450432234621
0,208894410238786
0,211263056620454
0,206509612822823
0,215225711979025
0,209711982574478
0,209024723529275
0,2066400419101
0,208912926640645
0,206938723908673
0,209845596218601
0,205200390807828
0,209423251223663
0,207107418265538
0,204901449635761
0,204722065342547
0,208707855041923
0,204301625816748
0,20776258085972
0,203897840283597
0,203368103978942
0,206749981841942
0,206932004412713
0,202788245811569
0,203277682348142
0,203219130760158
0,205831502672175
0,206066579948164
0,205072779848263
0,205020651125615
0,205223295659573
0,20168725155305
0,203160121461456
0,199143534653388
0,20108186992083
0,201755894923458
0,20674157216827
0,198458373769076
0,200843553276448
0,197334430645902
0,199998362171475
0,197614874812964
0,196187020775882
0,194626635174664
0,199117090591304
0,197859634127347
0,198323410119792
0,197047184341612
0,19557957976541
0,192206872535384
0,197354161194858
0,193900057168555
0,19392801654782
0,190894036220444
0,191073441968887
0,190538379994868
0,191905559646524
0,187736398184531
0,193112601389736
0,18866647910661
0,187698426752541
0,18651153101007
0,187249187141999
0,185529351764315
0,191358745414727
0,183208741310084
0,187116152138002
0,185500687786189
0,187762224944456
0,184439474184368
0,183687613746411
0,183259749590718
0,185018999910847
0,184136961152202
0,184955792344207
0,180964407419211
0,185302637807272
0,178850247521981
0,183715233522922
0,177038588053762
0,180041052211156
0,180540015939039
0,179762747560577
0,178511805840341
0,181297060045801
0,180234878276663
0,176719391022071
0,175564266069856
0,179505084124173
0,174069689759858
0,174749205952765
0,173122791342359
0,176174390473298
0,174158681334332
0,17686337638227
0,172785432583925
0,173564535145433
0,172811143683319
0,175645788046998
0,171363861127682
0,173669171933275
0,171245553900744
0,169858372938656
0,167817610813206
0,170059275565022
0,168411923707409
0,168908341182389
0,167793284027825
0,16976873922223
0,164798012076009
0,167854004259977
0,163573932977618
0,168241647542709
0,163968839341445
0,16710809599711
0,163658154644674
0,165406950502206
0,161216390295747
0,163755367663661
0,161173677007291
0,161302455983264
0,16116206213365
0,165630289857548
0,160597019672356
0,162669708876889
0,158498167553218
0,161718981194766
0,159408230059076
0,160263420891911
0,158658901063515
0,159802975871094
0,159259046046657
0,157515367314301
0,15481271391711
0,15667298280369
0,155306051259947
0,154997525160335
0,153237990787646
0,155513462020348
0,154202813510247
0,154714385671537
0,154708839582489
0,153752616890088
0,151067535812575
0,155779878640463
0,150521250174013
0,158776081947838
0,153162293188382
0,155347081902934
0,151963882279378
0,153784909345317
0,152918461982796
0,152666284176047
0,150317098865435
0,151854151795168
0,15074413514606
0,153236873580188
0,149042311072444
0,152741023080567
0,151693125794779
0,15437116249315
0,146602669538503
0,150815866685473
0,146798250643618
0,150047335514079
0,146601953732213
0,15295769216025
0,146666831229834
0,148060519885111
0,144883750634023
0,154359788177568
0,143539795929425
0,151177159653923
0,149864055571016
0,152226848879775
0,146543859395643
0,148414967881604
0,145751067195684
0,153946545556585
0,144256556263408
0,151174909807201
0,139749934635917
0,149717891883349
0,143164564648733
0,147085638593697
0,142674666785581
0,150045227079448
0,142217542173959
0,150558329619203
0,139537699256412
0,14847171538447
0,145189577729573
0,152175126433873
0,14210344883789
0,148587248397367
0,137566628800325
0,148483332495375
0,142845544977825
0,150254495091929
0,132896425835397
0,151113031519174
0,135237353676985
0,154600540757332
0,13346895561947
0,152979710032394
0,128816329396001
0,152571035900116
0,120959951881351
0,15652557881833
0,128222817738279
0,161336118649162
0,125163697783523
0,157977595862466
0,124798088023164
0,151357316799018
0,117316321851769
0,164086049553225
0,118768771936932
0,157647927330465
0,112639815630505
0,158564537641785
0,121926707358149
0,157339274140132
0,121897473967395
0,149880551477075
0,13280728426954
0,143517995709919
0,132519058321057
0,132295653560505
0,1431755657993
0,130157846402233
0,150441395546707
0,127469806775422
0,152187450498667
0,124115936213631
0,14923473328351
0,12361821461322
0,142381100083832
0,129084167188938
0,138248618496052
0,132953224246539
0,135861279678517
0,136829232680746
0,134804886310451
0,133844166866903
0,133831197375993
0,132827601238379
0,134957233005164
0,131317608114029
0,137775817160137
0,128859284810147
0,135142812134437
0,129994104369497
0,134134285123103
0,130995699254365
0,13197703972169
0,130805308543702
0,132187590317883
0,132533772457646
0,13288861125223
0,130076982044478
0,133997544828372
0,132557780521062
0,134123909242121
0,131199413484495
0,134535411199013
0,131602681172204
0,132498930628071
0,13064305865439
0,134368921194522
0,134269865331358
0,132541471931173
0,13237768540972
0,132421041608946
0,132395488150446
0,131382543666628
0,134108761594141
0,132711747284905
0,130612584687786
0,131125824097693
0,129294882625213
0,131428463550216
0,131239766738951
0,133642270067423
0,129200873355943
0,132771347676726
0,1338490331747
0,133420296168662
0,132022864944591
0,132119038699862
0,128925415328821
0,130359169215381
0,129630524224615
0,133670150147938
0,131226830382565
0,134615727626469
0,130784380732305
0,130879718097643
0,127721448639479
0,132882779570521
0,129995931934292
0,129367775289003
0,129478755558049
0,131759687989687
0,12842079636396
0,133963002229543
0,130799588799606
0,130744379194157
0,131729603618682
0,130647903171111
0,130203475192472
0,131275302543258
0,129267816348863
0,130634340095457
0,132746625412571
0,133904892711365
0,132232093976591
0,131735798027212
0,130322059559879
0,13196554304874
0,13187079464404
0,133000403132863
0,132706159062931
0,131716976661718
0,130200204361375
0,130105365137
0,130545701619808
0,130707183644975
0,129598533477768
0,132785537687981
0,133365223044816
0,131460870848063
0,131418506304571
0,133519553828534
0,131300157684831
0,131005188229298
0,131792672648458
0,133032392705745
0,132305438930658
0,132078139394053
0,131637373923156
0,131031552804899
0,13334570994271
0,13426487701361
0,134013180782709
0,134367842313626
0,130353464985073
0,133467829423602
0,133629067771568
0,132065415388973
0,131558060675758
0,13159166296112
0,130645618534279
0,133950580181651
0,135894572939958
0,132339118782586
0,134777071691998
0,132052082875838
0,133861844641697
0,13615279907221
0,136315257463271
0,136986723575159
0,135985805200367
0,134406966469438
0,135504612945277
0,135258316494773
0,1362621141473
0,135578215226702
0,133688320316643
0,13448814107561
0,131896047121961
0,135450747456232
0,133317183092733
0,134757756526392
0,133764453894183
0,133909732933059
0,132298047874593
0,135455251832244
0,135588398980179
0,137155488723009
0,136679071115647
0,136678098887148
0,134803974685008
0,134965912847252
0,135065415411131
0,137773465764019
0,135214926542863
0,135749252565847
0,135684560152974
0,134841108650359
0,135141689620831
0,137851655194409
0,135970279152238
0,13889348706541
0,136051094588699
0,13688274770296
0,139204958620409
0,138981686532321
0,136847132505731
0,137926966827234
0,139050585380319
0,13975229089989
0,139853710877546
0,139804355453044
0,138191510048298
0,138850493183296
0,138164636445505
0,139887700170545
0,137127893702985
0,137926096666425
0,137569922576326
0,137790454995874
0,136788606550593
0,136761913411814
0,140025471988991
0,139451490969905
0,133799497085274
0,137960663695505
0,137597208625861
0,13661168544749
0,13620098335413
0,135422768373433
0,136924274186382
0,134938577132526
0,133538140096818
0,136556931252681
0,135148197739636
0,134553096525163
0,136184650188097
0,135303770880622
0,1332552620287
0,132747683995013
0,134453057282356
0,134283016778812
0,132829895511712
0,132541839817313
0,133237445608091
0,133831717132749
0,134393132681036
0,132887132350959
0,132617202514555
0,132055450933414
0,134374100664718
0,132105801119726
0,131539749321586
0,133830796108272
0,13149210825691
0,132986387509729
0,133632203376045
0,133417257135336
0,132539774368318
0,131326323587266
0,130148466424622
0,132446554971426
0,129924701922084
0,1313112813039
0,131022954244948
0,130230925911919
0,130041952032644
0,130423374692644
0,128337135482283
0,128757200951829
0,130166098016567
0,129125396779727
0,128964503686974
0,128935754996698
0,128889054707295
0,129905367389657
0,127278811670452
0,131788545997771
0,129924898430851
0,129308670227348
0,131028234396501
0,131496119506725
0,13008490780507
0,130125239125009
0,129430508379055
0,127492175520503
0,126705489744831
0,126782406389511
0,127030689155634
0,126918647380575
0,127340477033296
0,128071487713366
0,126683261050827
0,127325842258399
0,123594007790474
0,127186777538798
0,128073971398438
0,126767894812517
0,124149965549163
0,128415202214747
0,12696799195789
0,128565008816314
0,124261028382054
0,128064889051741
0,123007968349276
0,126245203108782
0,122838945001381
0,127289827318298
0,12803741820918
0,125690671040704
0,125594437422743
0,125212155608818
0,123919991637089
0,124672856741797
0,124773330685393
0,123283682373423
0,123629942963204
0,123919107069308
0,123926237381184
0,122132280236052
0,120916229316143
0,121822176596593
0,123017045487995
0,123276754477293
0,123330887676915
0,122494476074255
0,121987651646313
0,120571502417399
0,121622464823447
0,120393515475804
0,121607480257479
0,123606883603557
0,118765682247275
0,123591539504376
0,120842883784332
0,122028237912036
0,11898993492817
0,119603592652009
0,118172759032705
0,119974978629914
0,117430165700883
0,119507923569332
0,118099068904248
0,120764727565524
0,116755119054439
0,116810798798291
0,11772140612152
0,116329809678894
0,117513834947067
0,118583538139866
0,114764459104179
0,116763596875399
0,113644908107874
0,118215626478696
0,113476226938727
0,11421227806975
0,110258945898368
0,114231383213468
0,11588040306933
0,111972546528458
0,109917098965031
0,112889879693054
0,115118474173039
0,113949470642903
0,110507823958975
0,108764366806206
0,110901479827571
0,109219781313806
0,109340335663388
0,108182440886552
0,107721380703935
0,108800137393229
0,110793293471641
0,109091865836135
0,106481293149002
0,10639288134919
0,10793184813806
0,107850811316262
0,106695907564906
0,106736310557119
0,10617652535343
0,106837862261527
0,107149297997753
0,10131193715651
0,111838388413642
0,108566634623479
0,10467067578152
0,105512070497406
0,106011312637299
0,107548649127972
0,104361252104926
0,103487928677975
0,10554044490522
0,103605866400455
0,102748815964438
0,103782029956622
0,103437866894486
0,101879341165098
0,102923113754155
0,103253797166697
0,102058751719582
0,104327069264793
0,10214080582874
0,102805956129833
0,102556669799863
0,101268202301485
0,102154638761015
0,101171435277943
0,104690085593635
0,100609353138735
0,099906190651877
0,102929589559393
0,103950407637346
0,101225668000904
0,100578840725989
0,101809812212703
0,0983395184715662
0,0973519279425392
0,0993190050768378
0,101193462463817
0,0963368900169652
0,0987852736925543
0,0955688743173288
0,099295095903582
0,0989363390109637
0,100649597477989
0,0989509709667716
0,0969381819161274
0,0968064391505351
0,0964613206361472
0,0949980121167157
0,0968327803026942
0,0932173489257972
0,0951893679131092
0,0919366989705691
0,0995514638246358
0,0870753369047256
0,0971893980324972
0,0971718954377712
0,103204530293106
0,0936460557428801
0,0960185058137837
0,0931726108155847
0,0947021523948687
0,092672800952208
0,0960486681366696
0,0930053878125693
0,0932148299929397
0,0926295912191068
0,0936834919881185
0,0934068197178477
0,0924661092069021
0,0917690034064291
0,0945865167098346
0,0928660097757725
0,0943108364065463
0,0932422160373064
0,0888491956450133
0,094249676947417
0,098293829932104
0,0910407877575009
0,0998450001863937
0,0876933899946912
0,0874047436801784
0,101989942136196
0,0932153797775343
0,0968735098765498
0,088449767685252
0,0944189582020164
0,0868655017241332
0,0942837494966595
0,086770416565422
0,0936182321293011
0,0898122947853363
0,0949436344445045
0,0910259555297179
0,094947452656981
0,0922374551292797
0,089500932976047
0,0907926643474757
0,0919377413131778
0,0914237961675466
0,0879132815720582
0,0900539417673185
0,0893486535896742
0,0870952788146583
0,089115379266649
0,0879280972977999
0,0911072028500814
0,0883725268300334
0,0932472530439959
0,0855198399877234
0,0925450048905458
0,0813700826032802
0,0929216137543462
0,0936710389020729
0,0914958019954432
0,0895010791601444
0,0914569736890085
0,0897199497202219
0,089260122672818
0,0903244947292893
0,0893725178852984
0,0902967853323874
0,0859103148239772
0,0880356510894797
0,0892676552405521
0,0895035193745672
0,0858696719683984
0,0882083238953538
0,0886558596902736
0,087927426990645
0,0871559225250273
0,0894745635510826
0,0873817713855455
0,0839633171725348
0,0899509431090478
0,096630905093081
0,101316742221039
0,0902229182974737
0,092801122444654
0,0871435368794219
0,0901207956283068
0,0849297898205522
0,086587133112877
0,0865274885582726
0,0872572700094554
0,0854051953855227
0,0894917130402755
0,0856839906381315
0,0891035893373699
0,0846852131909496
0,0890503409241251
0,085899288024938
0,0892055411818575
0,086693369815256
0,0874468598641413
0,0875171101873323
0,0841170704474472
0,0910011902532126
0,088394075538043
0,0914443705073406
0,0718305440020057
0,112106648283591
0,0914582554354964
0,0973321576513052
0,0868258685567814
0,0922211858504026
0,0858144612057216
0,0858034837871928
0,0858883237870275
0,0907865870309347
0,0863543286146475
0,090476819515401
0,0860984605846077
0,0899877158357196
0,0888938660247693
0,0815228476266078
0,087449206372747
0,108386140713037
0,0886292661562707
0,0978638633874415
0,0774787936460918
0,0951716486522208
0,0974246452042846
0,0909457973985809
0,0908615088205034
0,0878753091753705
0,0927404567335058
0,0896698275637648
0,0886549312969308
0,0863366886720634
0,0903064964043888
0,0872512970095216
0,0898587674271991
0,0890234249354417
0,0873258318221688
0,0907712230762191
0,0872461677052917
0,0982046937787096
0,0972146041045206
0,0902727038708519
0,0938193644139841
0,0901321346022117
0,0912418820746216
0,0909905541793358
0,090985538458122
0,0838038739368715
0,0972382402868803
0,0945870410096422
0,0932817373195258
0,10271791684282
0,0954212287495852
0,0926172560902251
0,0939554564708642
0,0947597737200042
0,105785257932195
0,0764186537649114
0,102300869587517
0,0928057203822991
0,107994424025109
0,099295238022706
0,0970759879422427
0,0970120525780627
0,097765359801026
0,091987996413735
0,0910950101711226
0,113461060537687
0,0913353734077669
0,107595744219488
0,0783814358621805
0,112344664021055
0,0986465005899312
0,104783400936558
0,0966368947002819
0,100163954999409
0,0921556278693012
0,121562787934573
0,0900193949113908
0,100659209205399
0,0981867855374521
0,113433202875967
0,123754842272686
0,0974416899354016
0,0931646191726918
0,122686285025557
0,106778655207889
0,11178426672094
0,09847947792559
0,112667154386625
0,090711720770642
0,107616167988976
0,121814939515636
0,108668468872369
0,112190243879525
0,10872013134469
0,101791770963794
0,126938208158486
0,115594345571485
0,118261997932237
0,112108405926984
0,125163498421635
0,0982541641439834
0,175810933568804
0,110078775527569
0,146248190441057
0,121768734247069
0,146015511348775
0,127677374665573
0,140982151603324
0,123594007306007
0,146120086343511
0,141391594471405
0,142574967948377
0,114967840732285
0,155004205267524
0,144008950474036
0,138830570148814
0,140407935332016
0,133086864071875
0,126349254020031
0,149080720499199
0,158479194347165
0,170505426812124
0,143977378656014
0,140773399945344
0,160902733214343
0,147782451113871
0,147960299431996
0,14353765741774
0,149540731989076
0,146338134519232
0,14315786624615
0,156374363490174
0,149866562613059
0,160758957651122
0,150824570499855
0,154749400799153
0,14528558970412
0,197671684762721
0,178921590885292
0,157455013286309
0,180810829720638
0,178359861122313
0,181497988121385
0,167239899800672
0,169449754174775
0,178907958517117
0,181152377266468
0,18205660137717
0,166062278092001
0,205454004601088
0,180280293819315
0,207275827463348
0,198832510697135
0,201279674369803
0,186921335777369
0,170201405223827
0,392447110007662
0,220761088053157
0,235147099315977
0,209966799268498
0,241565837526183
0,279482848311738
0,257468498691327
0,249735366021455
0,265147738210933
0,264361589480008
0,281358811879718
0,28145194954409
0,28888724984337
0,306147260240141
0,305493205348585
0,296766240431195
0,312286739979267
0,356634114474722
0,398036524633064
0,359756496719247
0,351631321993647
0,367873862479886
0,390913299654175
0,376242886030477
0,402835956427752
0,382081748126954
0,397203420212034
0,45353322487355
0,440484809145395
0,433543137445269
0,431014997679385
0,491082883829796
0,435744735003543
0,529774376275355
0,497683464044334
0,518910268890584
0,500818870726638
0,52283985071725
0,519353273032261
0,517572643447082
0,56962652872005
0,571376431833701
0,56926847648144
0,572326723951788
0,579805679702692
0,582459787869396
0,585766812326457
0,605775808928268
0,580749284234446
0,622541350664372
0,562573868679404
1,17560060229465
0,652722769499476
0,646415339952443
0,635713719846832
0,618765747285479
0,658553257316626
0,639077057389926
0,689687040807428
0,67711628887181
0,642984268956651
0,643604095211954
0,647559115549531
0,653395574608607
0,642709146416099
0,658545185684762
0,621711892472641
0,678204739993867
0,625996618101971
0,659015036928117
0,752591282443979
0,65597271603657
0,634020694119768
0,663726825806899
0,644443943497586
0,665462348755453
0,64116881864495
0,653254339792899
0,676475762760224
0,642468993273811
0,634299530797845
0,612153863196402
0,620102952652682
0,629693753567402
0,598144578955085
0,597352226924366
0,581429964241148
0,596418648151074
0,553691225183101
0,561968307870919
0,647016854904079
0,56481024851257
0,559418970183839
0,559810730968134
0,548317023847292
0,546544302596367
0,535524438090759
0,539080703753076
0,540894221463654
0,523804856181001
0,537535773719425
0,532000660017094
0,528709663050223
0,525616918795607
0,536175680270205
0,521678119653609
0,523087469658385
0,520940857606221
0,517444912673467
0,525042515613275
0,510842251398651
0,52094278923203
0,512593072206606
0,516075284067703
0,526382300473653
0,515531871095269
0,52334510986583
0,523752843070288
0,521926087646284
0,522847521801511
0,521342944603903
0,516181404363851
0,520934268570402
0,518884131513061
0,523899122650954
0,519881776642906
0,525207798365643
0,522586531965394
0,525134784506068
0,524598348219004
0,515918134306389
0,517386997086617
0,489985124806276
0,597732330631331
0,545007229115543
0,522009045361829
0,517449489890946
0,518302938028573
0,514686062574367
0,484642002129189
0,543250487652459
0,541642745417361
0,507872187676163
0,507453151035832
0,494059668635776
0,516596830494879
0,514810073965802
0,48754240380003
0,497678171151619
0,460411262912218
0,517560868072369
0,500778517004445
0,553137988815286
0,562632909191648
0,515067751179083
0,467258499572175
0,499628748929309
0,538400099867854
0,483383106364901
0,499063725096878
0,461173544195272
0,521096134952324
0,503390587267891
0,484323816941953
0,481977378760638
0,458412018135627
0,489842333536664
0,512360846223276
0,467187765544611
0,482660658275129
0,499754012384096
0,465936065544067
0,493087512179861
0,520744672551029
0,491982321457483
0,452492420143609
0,450806756683485
0,434086137090833
0,433240077886473
0,502201325018417
0,438051576811178
0,45246010226781
0,42400283246559
0,425146047837338
0,415974584835428
0,43884611322732
0,417717693232105
0,396111495165512
0,467352051367886
0,387956353609127
0,410437593705119
0,391324074955217
0,424043850203831
0,43334222901085
0,414037645702199
0,372542139506916
0,410272985078988
0,415318243169147
0,38465535422331
0,407469175210144
0,370520366945149
0,367948714209635
0,393057418526352
0,352791394047286
0,370562727430803
0,365425091129448
0,340613521323954
0,373686334793888
0,395927225114221
0,403498490511026
0,36081203142311
0,3462255011614
0,344222019101073
0,336627873663187
0,353367562784152
0,312222969882797
0,375166812979171
0,336615406004998
0,31791934091078
0,380042176224182
0,336052375477752
0,333000948259829
0,341959868374082
0,327463670141737
0,332532646993016
0,330331825245913
0,378646796786208
0,342913685805765
0,351484137528844
0,372312054879711
0,356002630380044
0,358397651473158
0,35246430587154
0,365333346755758
0,358276473890835
0,389127813062353
0,377446662462679
0,381637160904838
0,392444589427748
0,379289743515872
0,404125603969995
0,440619508823852
0,393327779612421
0,460449678982928
0,402371003910229
0,507017754540831
0,452716415661204
0,461053825056757
0,464561829074079
0,460273989923151
0,474814390059828
0,46988139522495
0,469590523249792
0,529233520766211
0,491044526302099
0,506786439546899
0,493772720047659
0,520885245628904
0,492045634096936
0,552614436944207
0,501073425537013
0,604933370094504
0,568026724975107
0,554677910869698
0,550153286849366
0,529895693392675
0,552639030830552
0,551302212641982
0,550457670659145
0,54680826174063
0,53756795045154
0,578326455876309
0,550171287316442
0,566228677030791
0,558446171925228
0,559943197736847
0,564513009378967
0,572587452953126
0,573428311530536
0,572867108413021
0,584472012860851
0,578645944204355
0,547759765379446
0,686998633463731
0,595406834824668
0,602405996518385
0,591919890321737
0,612739609065503
0,603376091319996
0,594458343471769
0,632108901350374
0,628876616678396
0,617215257499351
0,625318198390602
0,628885788424624
0,635422124475238
0,615365479635313
0,669453794466308
0,631484286429278
0,671863126658112
0,62621626488497
0,67126853898489
0,704284262903668
0,668507355818661
0,683233837295945
0,666176463330498
0,676284190784805
0,673830192835945
0,671812605688215
0,674689113786812
0,680032418139823
0,676335755080502
0,685008134732145
0,673750941195076
0,677050539766617
0,685702144435413
0,666085519751473
0,709395920957076
0,682287661003668
0,683266497116451
0,67696835833766
0,688180044440503
0,662842348719459
0,712955287388182
0,702717571076854
0,684740893297686
0,677902439490423
0,67492818236041
0,712426030662187
0,707729469154964
0,674249340276558
0,694215178764199
0,690489820937794
0,690096087664389
0,680328888530248
0,67483131361888
0,717109508163629
0,697752031347229
0,69976583472755
0,686577621686502
0,69893241231118
0,704021784310691
0,707791269882684
0,699746355286452
0,705668580173474
0,705116851440553
0,714277232943777
0,70580976643614
0,698137649758258
0,718017834283017
0,736073346457488
0,724233307093439
0,70513846695973
0,71407625095541
0,708191972460076
0,696484074349097
0,714135295806278
0,704608696020614
0,696428677256122
0,699816066213316
0,686236783167702
0,667229451781815
0,722796043634821
0,670116476944151
0,688020300341769
0,663486855629952
0,660076553704237
0,663086495317543
0,659079412955167
0,64984539897224
0,645527621060002
0,649019401756416
0,643999014145293
0,636729213807415
0,632108777093993
0,6339387385893
0,634026210758241
0,62619469053552
0,620606239085909
0,635575953219518
0,626307792374018
0,625852831700414
0,633534713235313
0,617731306573363
0,629621125437222
0,618419156057859
0,640527546251148
0,633876790953165
0,645543200390234
0,628215953555912
0,620004731294744
0,629217325331441
0,616832396716737
0,627171912325523
0,620295598796636
0,620668410559016
0,621494670933534
0,632307430337729
0,618482838848014
0,625901111795969
0,615186953460343
0,615446681492506
0,615192616153132
0,620270965957763
0,610279846903048
0,622988198480556
0,621238519555434
0,617643607466813
0,61516844421921
0,616947441108463
0,619826070716429
0,618788565220635
0,623352447153968
0,615469925496584
0,621168479626924
0,619694838226845
0,623234387012217
0,62002981500493
0,619666125927051
0,617871048847534
0,615961170533644
0,618944008095762
0,621879877765795
0,618674293653698
0,617604357642945
0,617044084369148
0,613889316241854
0,608347978897691
0,605641150898435
0,60317214974311
0,591936834946447
0,592224321252013
0,590344500059845
0,58778489065772
0,585463678591335
0,58022515052645
0,568887352471865
0,565601489291046
0,558783197748552
0,562440935189792
0,558126519720754
0,552202230893353
0,55458252448138
0,552835590726082
0,549242232239186
0,547107726953247
0,550722239801693
0,550130802085087
0,54530746166656
0,544871172288506
0,539341100870604
0,545213985567662
0,54616581243116
0,542973664950317
0,545107314602445
0,543097229364834
0,548311246306021
0,550138100584642
0,54962068849941
0,549315816815031
0,550499879874332
0,554787475380755
0,554939632719702
0,555343355924247
0,556845069007481
0,561648666490265
0,561348856060829
0,567054308281892
0,569235940278818
0,563015298833554
0,569020575946957
0,569879244164126
0,576395951672557
0,570012402444061
0,571175050136772
0,573157346035153
0,570549942359943
0,570566080061202
0,56952255129833
0,573333276246008
0,570155204841929
0,571689452245178
0,56763031781885
0,564251799027154
0,564852161297017
0,564195575316401
0,562389625633133
0,564685841875662
0,56288494115252
0,5599951519437
0,555994809407625
0,558048308861154
0,554230885900713
0,551288956687574
0,55020425457086
0,551887562155179
0,546190679953612
0,542071496968977
0,547702310385986
0,542585536198713
0,539529302125456
0,541228662555066
0,54015608354616
0,539468976388266
0,540860184081881
0,537223200872909
0,534078589947833
0,531057163571025
0,528410748073479
0,528468064131879
0,525228647171826
0,524528070714499
0,524893081328775
0,523194625135349
0,514725097496067
0,513516048104638
0,510613949221331
0,508414155027926
0,503130794772902
0,500871816132318
0,499674584818305
0,499485714448231
0,492939107667783
0,4888613016774
0,486029751938681
0,47822245994213
0,477291660329627
0,471622189655769
0,466282194261577
0,465247925397229
0,46412048494442
0,46567871242542
0,461275604571658
0,458162152268186
0,460084744005512
0,456264582426142
0,45569701570072
0,451572839769093
0,452486424670864
0,450716745336634
0,44457312317328
0,4444822126077
0,439816636885116
0,434573415230025
0,431018851282746
0,426625589414218
0,420204159895928
0,41182564425824
0,40536068575174
0,401398838402976
0,402571119395648
0,399540562648641
0,397433486844154
0,398386209615341
0,397967462151472
0,402039515769861
0,409374054205795
0,416358798322236
0,420446122467591
0,432282526556964
0,442917819524137
0,454750467756791
0,466227488314588
0,480974360639295
0,499818273369193
0,515686251246475
0,533526569626293
0,550448635140155
0,568856829066389
0,583773376104457
0,596368838879392
0,616766910369315
0,632181224890829
0,647284800321731
0,668262711868105
0,685483413903062
0,697408462351979
0,71523406948531
0,728256687306645
0,737051616369504
0,760065891627861
0,769172351049837
0,777334645114757
0,783406017708568
0,799076145748367
0,810351154761846
0,814210000101692
0,832702830238896
0,836856052600995
0,839660104884691
0,847885596576252
0,840485981601621
0,847917121109335
0,851584683881443
0,847532730885721
0,849293715083729
0,850898113640514
0,851281519368245
0,856901567528408
0,857940011927509
0,849750955932021
0,845647918622857
0,859606754299825
0,862255684204034
0,86684501976328
0,867790502134351
0,876014672929827
0,878412016871646
0,88081142086202
0,894038316869376
0,90218711706196
0,901989817436279
0,905716942887998
0,907891052524008
0,926590127954193
0,941067582044504
0,941762804403416
0,954636198738921
0,983485700339771
0,981504737636782
0,99339115743395
1,01296219420175
1,02034606283429
1,03382482100715
1,04229939458453
1,05077975647883
1,05482572839281
1,06468983552725
1,07671194832168
1,06942622980082
1,06287480027748
1,06810425294991
1,06935327761763
1,05606179798899
1,04356538235995
1,03815226062065
1,04170817188451
1,04894142661732
1,04344258194878
1,0484751479525
1,07419344590033
1,07012992323259
1,0794360685457
1,09293634869617
1,09582065813686
1,11758465328089
1,13873759298401
1,13737383447389
1,14745098189987
1,16427019547454
1,17658797317306
1,19657941356315
1,20093928717507
1,21139229951828
1,25210641140546
1,25574547093536
1,26735309657964
1,28560232061287
1,33204653523167
1,33242529718899
1,3397622567832
1,34914437909198
1,39710208631295
1,41611003112252
1,4181146035202
1,45649387862609
1,50157567822175
1,50011699985024
1,52001053259777
1,55002393137991
1,55641505913438
1,54871110635058
1,57106253509789
1,54374036153057
1,64066069795262
1,65165058749258
1,62075339615616
1,64810147212874
1,64649417593095
1,64626088608834
1,72752224680211
1,7005911831612
1,64924695751465
1,63892499436149
1,69895575425242
1,65321766354796
1,69091337989702
1,66178159057793
1,69305449472298
1,64932916367942
1,66092325159429
1,66933652211242
1,69821471389258
1,68575105657943
1,66205568391212
1,64873558663437
1,71589164681128
1,75483730082745
1,77733938969914
1,75335540505365
1,78693582668565
1,79614477514253
1,84454264211638
1,85736130764369
1,85376573750461
1,79754886389995
1,8659555141836
1,85954177761612
2,03531441116691
1,88136924100121
1,81304234726416
1,86846177697296
1,92263675835112
1,85865236015639
1,86125929772701
1,85532023784597
1,97428851491326
1,87635851165819
1,83635405934979
1,97978093029747
2,09950977596817
1,97299259871307
1,91825129306322
1,94153693358512
1,95218534883241
1,96382984938157
2,04796782585442
1,92160780377549
1,96888840719119
2,00525620907491
2,1524561628437
1,99072451542363
1,99563770569741
2,01142595081582
2,0541870673614
1,96413515987398
2,16255718081419
1,9108140982977
1,88400851169184
1,87453949102765
1,90491578819654
1,90375274109624
1,77951083369334
1,76493486299074
1,7466920553776
1,62052555001802
1,63851653541907
1,6716684182246
1,68073018964433
1,60615957613345
1,62438463972164
1,55964382019999
1,51431095418664
1,50397531553457
1,5712102360379
1,58681941441639
1,55107778476963
1,51760132379005
1,54259447760668
1,49363665505444
1,53031151079849
1,47603870685721
1,5058424938037
1,50543901951522
1,43650742141578
1,44218253464345
1,4618562481249
1,40071620272867
1,40726528856995
1,39012173627268
1,35561454062161
1,34574457252176
1,33538348427409
1,29659559381753
1,29439845032606
1,26570010780385
1,23547311673239
1,18367743286273
1,17127034167858
1,10910162283524
1,07608250737885
1,0311589051285
1,01739346317482
0,982576643496733
0,933381392890653
0,900998585384955
0,871332534692784
0,845657829819046
0,830175611394421
0,791984354533335
0,767712286625859
0,75124731708224
0,736012931691637
0,717349497954602
0,697533388630838
0,691412493553896
0,687183380178161
0,672276532708084
0,660404813470015
0,657670531080274
0,660398081292647
0,649546499475162
0,646959595770244
0,646114781049547
0,644381771542036
0,646331455341442
0,651572782093666
0,646634072846119
0,642282641559151
0,652796043675406
0,650415682513439
0,634629519009352
0,642506890596849
0,639929370705354
0,621134352303237
0,621127930866627
0,618986630021408
0,613419569986504
0,60970472046468
0,597955134616987
0,602267051219502
0,595454074195681
0,589537157019409
0,58864454489266
0,592883778295273
0,588008184297272
0,583544897153827
0,586061993354694
0,596929439722414
0,592043856821331
0,595092325435571
0,594746931949404
0,610654752250699
0,616402127199645
0,607639984466528
0,60353219573201
0,615319334663723
0,626756710176757
0,622773328194422
0,618464662750197
0,625297868785661
0,620667323257117
0,616155945909541
0,621128194186272
0,627977541528397
0,620072473270823
0,612857755760936
0,616679325279843
0,6241748928573
0,625883967147054
0,626184258136383
0,634479529700099
0,643140661974056
0,638578871650772
0,652936379292428
0,658616369361313
0,656533546704778
0,675417956775198
0,684791262159803
0,692244487589479
0,726803990692652
0,736071729446805
0,748566448101235
0,753532368471221
0,76855432101535
0,795161866228616
0,790611369619894
0,78946305053261
0,79090161277038
0,78991895725959
0,781324952960681
0,776395118652021
0,766010463648764
0,756494200298725
0,752970452125631
0,731420805718603
0,730940022084671
0,741459009922788
0,729871586279687
0,726516302426349
0,739751435148117
0,714575246103495
0,725767023871025
0,748479875926546
0,73556173323976
0,734291365262194
0,744601697234141
0,727516656790035
0,723414398235277
0,727980857236225
0,712724455868605
0,713243756055823
0,722020638301407
0,705514071962749
0,698822338370075
0,691104663104333
0,680209599632287
0,679477705593244
0,670437022643739
0,665726919565907
0,678011742572689
0,672511465194285
0,667840603691777
0,659704997621934
0,679195575451331
0,677461313409394
0,662804696348527
0,661606654571987
0,65794806710276
0,661971159186671
0,663056126678595
0,646140862869837
0,64268545678333
0,657215387639625
0,650910187182593
0,642089195937029
0,632769498654205
0,639537321554315
0,650438349813137
0,630701649856246
0,644662570427976
0,645536207159504
0,630783411717076
0,639717460299312
0,634525457941858
0,620479319016556
0,610811953620073
0,604875250713545
0,602989981953511
0,613740987938896
0,617393459537047
0,622238757739974
0,626681301770217
0,611706654002733
0,596867520378165
0,610212895777344
0,605828186651719
0,602486049188734
0,603917821644411
0,631266726627359
0,620438797952968
0,598911723121006
0,602653525298954
0,60739214281125
0,614174362308379
0,600266629535119
0,614031597800687
0,624925133291679
0,619709636665987
0,627599468078219
0,613234540991869
0,637746161086303
0,650040174044995
0,630768420751223
0,619600492728808
0,637541614009213
0,637906119220201
0,64040189683216
0,662848597141855
0,636197708144116
0,659523377387323
0,663717918949018
0,675488782972412
0,681983482650521
0,658550204730452
0,672141972294855
0,689212080944588
0,701628587799077
0,717705069135486
0,728123062175387
0,717496623968563
0,757075607802897
0,804163952732284
0,819014487405268
0,796560351138598
0,793814598207152
0,824524156106112
0,85324363182878
0,826909322075468
0,863280851982059
0,887461610967237
0,948714334945055
0,936692555356477
0,932395779766687
0,970355490095777
1,00249044061186
0,978182718509869
0,93630942157968
0,929659978788584
0,969740151961368
0,968745795545113
0,939843770006206
0,93232006569071
0,928981836367472
0,932756036422753
0,91822554651364
0,924248594144061
0,950581665685887
0,984207551706109
0,940157226399696
0,904178725172154
0,90055086057245
0,938586309675915
0,986322771884039
0,872056030126912
0,879547913410025
0,905269470286067
0,968688735300084
0,92490609656473
0,928361555707846
0,917837648769719
0,879171717213655
0,903674991047263
0,903469162029214
0,853759600277527
0,88790005010499
0,889329084842873
0,875122697001625
0,829800270422085
0,875551218823436
0,928864296286884
0,909186516706285
0,90103745816133
0,882575916608954
0,877207347876387
0,958924187737585
0,830195743690177
0,857823445633773
0,922674390510639
0,930170758573258
0,918368409289524
0,904415169857932
0,874659401908477
0,86622959926178
0,87134289433682
0,823546890527315
0,857004971486655
0,997247440218118
0,910189806030086
0,859547976707712
0,873916845083702
1,02958868747092
0,87989395743465
0,895332292615768
0,936119119356668
0,932253100982054
0,945993359831835
0,949212687518501
0,910172732883263
0,887509100178364
0,909665822149919
1,00548116372789
1,06729299457711
1,20256039593368
1,02377871152997
1,0112287063427
0,942099828961899
0,890229121969542
1,12754019018876
1,38929700921399
1,16672294468061
1,23922856985451
1,18023763502554
1,18812503925897
1,02192001607427
1,18691897960604
1,37881718479775
1,34415752973367
0,991760866031293
0,963037963048388
1,12167665402146
1,47091837893858
1,15347545035741
1,05231902882992
1,03190538731875
1,03610883829135
1,06274127903567
1,15952893382638
0,960509387629087
1,14275410938937
0,995048566216575
1,10605098038497
1,17208245457303
1,22078328131919
1,19440319117883
1,27552757784737
1,24474993540552
1,30684806291689
0,894881731307932
1,37974336430316
1,22038560904849
1,35643940156521
1,28696744258314
2,21418311315149
1,14063109231575
1,05560787276731
1,30010110702548
2,37274941499705
1,17726580947304
0,988104241310128
0,928346435312576
0,813791677577273
0,791137105823327
1,29136905388733
1,61519570288667
1,06953688665465
1,5260972203595
5
1,00356682926836
5
1,27874310012723
1,97770592901931
0,860786284029848
5
5
0,6957669225253
1,04523662464628
1,51219688920986
1,2988100984011
5
0,931389792744547
0,861909373770678
2,23092922318991
1,22288685096734
0,697844786911425
5
0,84436285459474
5
