3596
4000,36533379555
650,420452594757
1
2
2
0,0392005559259826
0,0277275824167835
0,0413367833929642
0,0379913787671135
0,0420820373709757
0,0391951591937177
0,0316245854809111
0,0303074949357019
0,0354502305920021
0,0381803136791532
0,0443110941889823
0,0382624623722768
0,0439681607963716
0,0360760477628808
0,0421173968578198
0,0339525698002623
0,0356822739956203
0,0436529746708312
0,0393105790919194
0,0367226820962632
0,0329685679687689
0,0414060358861258
0,0365573404980916
0,0347397757220526
0,0469461285354775
0,0305314401714129
0,0378757235933736
0,0391875303052935
0,0370290105149575
0,0333452222557387
0,0411814610572655
0,0414787402231088
0,0408215399492905
0,0322613065270452
0,0391397714536324
0,0334817873600891
0,035547397137423
0,0403937061897803
0,039496980917024
0,0269735006159631
0,0263166136106543
0,0355945802974804
0,0394742462384844
0,0359822683252043
0,0406039070194517
0,0347463594265599
0,037096921352386
0,0358409785966729
0,0307943135009755
0,026485747884672
0,041942759524174
0,034243575097239
0,0416798084171889
0,0244562248234106
0,0446565063032324
0,0357985220504054
0,0352386893515594
0,0332811304728831
0,0356071259878531
0,0334694706010553
0,0431638919122546
0,0336304861733826
0,0350075341334798
0,0328867852461189
0,0305115036510389
0,0327402156895287
0,035610298299853
0,0264824365482901
0,0399057143857081
0,0342805871061595
0,0340374839944738
0,042578290328392
0,0252936949499886
0,0297555373204737
0,0355032925002641
0,0317798299388365
0,0329031839966111
0,0285290234466214
0,0389871932038643
0,0404619974193234
0,0280221691540093
0,020363251234716
0,0350631177316742
0,0332139762655709
0,0304696582809842
0,0244935134485226
0,0266917261136525
0,0325392051278435
0,0348467810228587
0,0284272000006371
0,0340972277476551
0,0413939338425149
0,0305205020667278
0,0307833112871636
0,0306944424531431
0,0361755850766091
0,031691070206709
0,0324519840025876
0,030834361836887
0,0327789441697887
0,0333951945208978
0,0345987946715998
0,0263928116590685
0,0302786337525258
0,0362969106949308
0,0210411294245498
0,0477833229693576
0,0293572701919545
0,0343185201174986
0,0274383127904681
0,0265860596905571
0,0288324818474844
0,0316602772709609
0,0315623988448545
0,0256051366768057
0,0212781767364926
0,033509339919746
0,0324913106948746
0,0198535081387987
0,0262378787580843
0,0296199865572954
0,0353997711658101
0,0235574441635962
0,0300844723226504
0,0287609768806331
0,0213119064458431
0,0300596119336686
0,0253944788693654
0,0253350087004596
0,0298064344364592
0,0288535861634166
0,0214058991869262
0,0289831325548335
0,0238477066000651
0,0431359882029767
0,0257074931994103
0,0325990848587628
0,017987195864079
0,0370181252891538
0,0347433799389525
0,0211714002326482
0,0284418823639171
0,026703447354213
0,0235190185296335
0,0268209088189633
0,0208448290120183
0,0152290955325794
0,0279396694048956
0,0231780068667926
0,0215424897074169
0,0253543375603903
0,0212789203122074
0,0346828653968185
0,0280005780315826
0,0173097533611259
0,0482489766257296
0,0345456432810565
0,02140967134856
0,0265636437074425
0,0249646803880523
0,0430384871610757
0,0225868417731524
0,0281473517676475
0,0342646504875629
0,0318671263506119
0,0217348135283934
0,0301629688152371
0,0212684668602763
0,0222901075224804
0,0174951416123184
0,0210120064500754
0,0341479135302854
0,020932110398631
0,0262843767426229
0,0193962112952279
0,0185076316102056
0,0214743072942261
0,0236698331175282
0,020466136505454
0,0141880747690518
0,0183691359318837
0,0268727287302381
0,0289386747989258
0,0225962279889213
0,0315828054923019
0,0227628789966134
0,0208693406746483
0,0233044321218958
0,0294628044877739
0,0208589888230705
0,0321787588082985
0,0394413330603717
0,0412424057928134
0,0224635586871463
0,0230727088312965
0,0199737165315954
0,0426129819109419
0,0184205651990752
0,0236323429424018
0,023748824311421
0,0274099514941488
0,0215595167176505
0,0268444975232085
0,0247495203695275
0,0270024515397448
0,0243350074546256
0,0305241809027425
0,01496086010312
0,0315914635300169
0,0279759312893874
0,04473676282849
0,0250252220450749
0,0345413822034337
0,0136132852138647
0,0210178970022266
0,0348365721177416
0,0244602044227276
0,0256992465960721
0,0315785044045073
0,022892904449977
0,033504670711908
0,0264597903376363
0,0225693366864939
0,0237921655696341
0,0254215367518904
0,0210357534954874
0,0281010644204446
0,0275918904549658
0,0324203833697058
0,023487294401062
0,0258528787918544
0,0304322440029615
0,0308768385934622
0,023060341142639
0,0232560003769558
0,0275244887786693
0,0261205694634974
0,0303824729103578
0,0337446603515308
0,0164226481261181
0,0305221497397778
0,0288218528615929
0,0326963595645045
0,025299894163061
0,0323101158116017
0,0191195190631885
0,0225075822617827
0,0184250011198747
0,0362001591744781
0,0232378547698861
0,0329025737189073
0,0252113666075173
0,032709418578027
0,0240087116763374
0,036034998624204
0,0307187044059647
0,0344730213423694
0,0231896639841561
0,0298070538504506
0,0283077709276393
0,0366690908227434
0,0362118401191698
0,0346680276478375
0,0315402140343936
0,0392620632144787
0,0222839769855038
0,016932401178611
0,038509873746196
0,0519820202570022
0,00918935659566624
0,0238482042590767
0,0329832774098086
0,0436320627627488
0,0200871826694279
0,024035203571902
0,0257322735095053
0,0301576763137035
0,0221400886359042
0,0284113074737395
0,0270290565941398
0,029387725924759
0,0340125599652652
0,0334285216157788
0,010745170004966
0,0422228580275708
0,0189147727055819
0,0460096763074649
0,0272181044484359
0,0237246912449652
0,0223335716129623
0,0306714296844578
0,0232982768409371
0,0410628949866766
0,0321305410561115
0,0332161673532852
0,0338651260409221
0,0370702807547329
0,0343231875798196
0,0272554628791422
0,0300661782662672
0,0295764337491094
0,0334349900484144
0,0322238032381475
0,034313948998588
0,0308884420909378
0,0332057372306405
0,0347192631122738
0,0429394548631878
0,0407508022197526
0,0390624108052723
0,0374530444786643
0,0311203791018125
0,0320260762940401
0,0412544054033436
0,040611880430639
0,0329001973576899
0,0310071763812391
0,0322342014939848
0,0304550396958717
0,0400533378260691
0,0329508423840374
0,037599788229969
0,0387080426430389
0,0396342112179455
0,0361617531107666
0,0355359177340188
0,0398765436921399
0,0376180286726573
0,0417927541006858
0,0402098174244171
0,0443784186219
0,038933901696117
0,040020277900488
0,0334536131149106
0,0362813765817225
0,0369995958801875
0,0426740163184767
0,0448258529685157
0,0558883492184934
0,0473860636089551
0,0428389014223225
0,0438857505604237
0,0525103412389393
0,0444297108020744
0,0432740144082893
0,0425089730775857
0,0573284568553113
0,0575897023512277
0,0482024544176367
0,046809480139657
0,0490764327565377
0,045272071326444
0,0591475534196535
0,0538460580545078
0,0563239339007457
0,0580456972750734
0,0541469589511719
0,0627217414367155
0,0593750349518474
0,0614651647260022
0,0654686691683695
0,0657524511906977
0,0687283486908617
0,0640825842369955
0,0661946482248924
0,067642134381898
0,0715921180503821
0,0724987141836886
0,074740605795768
0,073705260864581
0,0711265734489872
0,0821086055315326
0,0841985816041521
0,0829683076422925
0,0899108318472165
0,0773407433038279
0,0941497705938703
0,0800127826370731
0,09381621922637
0,0870598257995093
0,0907176836753915
0,0870063461858218
0,102391282367962
0,0948211142757323
0,103495354726566
0,100977242177923
0,101998574167286
0,108947789958939
0,111142637367269
0,100461940426819
0,111380329595648
0,108827508444089
0,128661957279078
0,119186093206024
0,121449919507564
0,119500597127175
0,141967621505945
0,1463934971901
0,128087011486119
0,113453101896423
0,125384516129607
0,124326631542409
0,125921158789751
0,140624866089871
0,144996447885372
0,142577032733677
0,152658929227671
0,140758092706767
0,1463462208346
0,145690554055601
0,151614106399675
0,157950562205375
0,160528534510664
0,157828946224353
0,176007196200986
0,163153625171129
0,161896288261167
0,174252492629493
0,180592194586473
0,181075602727575
0,177541622296654
0,174272047384366
0,175979061890128
0,188278208813726
0,18097341924161
0,181583014110234
0,196826339465115
0,188997013416271
0,196611861169114
0,214899726498906
0,205648146764742
0,194208246144975
0,219191991687124
0,215086208992516
0,220102619776629
0,210053652783257
0,216249741285853
0,224964568771359
0,241205903380589
0,237119437721247
0,223171960391643
0,231260206640412
0,238279204880743
0,231916540649296
0,232354921825515
0,240278978056939
0,247529170676952
0,247753590628553
0,250061367767966
0,268804864190941
0,270376789517497
0,261926843184709
0,272922836257312
0,279550054679741
0,292716896366883
0,280265129008978
0,293793093677051
0,298152991036802
0,299170352434182
0,298861756580604
0,299350874527068
0,305755783176454
0,32184533818721
0,334624983503106
0,307203725087513
0,292441226137958
0,304484409093039
0,316063798527995
0,334922194195119
0,346400795474603
0,346348558153218
0,347962347949126
0,342075031684369
0,33906064444747
0,361007540736954
0,355819521821736
0,360927151103371
0,365215285376194
0,369548437940026
0,368613923246681
0,376054808408298
0,380750183284915
0,387302684329342
0,388101647647263
0,389531083669856
0,396191758782948
0,404117428238562
0,412365884256862
0,413548425386269
0,403193787994105
0,418433342870113
0,425488887454611
0,43571303778068
0,438640456386785
0,431698660690029
0,447669092131112
0,451860221211884
0,463371532089908
0,462355010927486
0,479593483385882
0,479415719023893
0,466283308861095
0,459872616417373
0,473420433496841
0,46710172277422
0,474586782387149
0,502180623102668
0,486936113085686
0,472300434049033
0,490186423689375
0,522008801795402
0,547662899822925
0,513854950714305
0,517189440370155
0,55129872619021
0,54702593622141
0,546099462152833
0,544717336428821
0,536128630862017
0,538920024611634
0,556294147479367
0,582267536640555
0,580856870091399
0,572917253806549
0,58499149462226
0,618115011067353
0,582115591673531
0,588929047465262
0,601063655744605
0,609363192853952
0,598213135034075
0,613350938540931
0,594355465787457
0,616723620733101
0,6341468505041
0,643195786737028
0,617320212652416
0,654243204887474
0,639362845558292
0,652191836227969
0,675499144521611
0,656219359612768
0,650958018246694
0,668073280565503
0,649088905883808
0,668643632122891
0,679953841426986
0,724470576513579
0,701093036329227
0,708571880400303
0,707216171352938
0,740004713875037
0,713621460147186
0,715444713072707
0,695610891145511
0,739260880603612
0,70588107640784
0,70919411715022
0,728984983215584
0,773879430047353
0,75115060999463
0,776785191907755
0,794775915478199
0,802428743381572
0,746248128106077
0,748983998238928
0,776137707533639
0,785929144561466
0,753742777576766
0,799301558193039
0,807537616836203
0,827826462888936
0,8102795250313
0,844895923276435
0,878676746244929
0,868499709046992
0,802859157462012
0,853301168691569
0,824375415948485
0,866797558324697
0,906618265283852
0,901712359311315
0,839453547889015
0,920774892012059
0,845052858775496
0,909751687921042
0,890513366509936
0,88696471987537
0,877050631132696
0,9321763092548
0,901343492046001
0,986781405322247
0,911805301434739
0,912183241569465
0,920354591560043
0,940402301494764
0,895369264250657
0,959433355416695
0,963554062056095
0,957254971469995
0,913215172335117
0,902986901997968
0,912142982221483
0,952001950333582
0,93402218073564
0,974415160942019
0,905084623322553
1,04558559085977
1,00041959579126
1,00421399332265
0,975163274692402
1,00574669806104
0,990932477014165
1,01438911148304
1,0119146669627
1,11706844197382
1,02514981543724
1,03010837412089
1,08713882155567
1,04768850732327
1,00008239497043
1,12191766870156
1,06038017190056
1,08407635767148
0,996720647938274
1,07942596391039
1,01184131463721
1,10743307246644
0,964696891652527
1,06847020011921
1,03360925931212
1,02268608809848
1,01384985028799
1,10415525701482
1,06470729221585
1,142378657366
1,07485953922842
1,12257942778207
1,07670562229598
1,16341144039256
1,0811804634945
1,09818065438579
1,10341855455795
1,16147118418272
1,16972630273462
1,16693923279293
1,07212399910266
1,22785033098954
1,24130811048488
1,19886967095782
1,12804484919206
1,22154204759289
1,1073366932288
1,28509438139063
1,12172383307179
1,17786724059595
1,17056313311593
1,18261103556287
1,10616407221864
1,22800210139872
1,13628137185322
1,27085582839323
1,26665081842575
1,18684851001382
1,14203480501356
1,30234149598062
1,20685656216623
1,24395973316139
1,18940023191525
1,25903909416739
1,1459071919538
1,23450757091465
1,28751029314394
1,32156742027187
1,11613548006437
1,32460105436902
1,22407339084642
1,3434873116077
1,14377739603834
1,23253422685087
1,31321711812624
1,34787353366865
1,16420402087528
1,29634000884987
1,22283237963918
1,22506450482107
1,3156875366273
1,34934993942607
1,27826618641336
1,35165658343168
1,31285330487033
1,193156168339
1,16448941290539
1,2847644403769
1,24714211015694
1,26575514716532
1,2514769652416
1,37751366093036
1,3007066406768
1,31048596804974
1,30994692502376
1,26430069660072
1,18213068809855
1,29654991625732
1,21019209583048
1,31505232437574
1,21621779188994
1,30428140936183
1,24452175035181
1,28386620777515
1,25417218532418
1,32472559217761
1,24053189841807
1,28032518753071
1,24990852704015
1,24941458098289
1,26227966447756
1,39015089886055
1,31634073840465
1,36961798704206
1,28797445811379
1,33537407518779
1,23691456819006
1,33355910117157
1,24127701425672
1,40151597061548
1,23598127631398
1,30803408376267
1,25739097971831
1,32975601673984
1,27766604279817
1,35050479358061
1,3783328597243
1,54301487578527
1,23203118138915
1,40036022859625
1,41704884669836
1,27012196378032
1,28378298919241
1,34034587702171
1,26864629357019
1,33402119690948
1,20948824036884
1,27640120147856
1,22085926726252
1,27554651982358
1,36288996475013
1,47618158698711
1,24338805990737
1,25140177756705
1,28976090600832
1,33400288566574
1,26476193623916
1,37826089450975
1,39067743348479
1,28838661379969
1,22803760083133
1,31008097642776
1,28709633979579
1,24678616171894
1,25316138678693
1,32052333179673
1,33079447203666
1,43347712435754
1,28416330839364
1,40347897702444
1,29464968698859
1,37475663020874
1,2785751243432
1,37905354512206
1,23520128859338
1,26667509563228
1,21140812205846
1,32502591316246
1,28561395150924
1,29238335915052
1,23805405722819
1,30295869737179
1,23896453981541
1,33038927792186
1,30163364215815
1,28776023813265
1,25672601294146
1,29957002313036
1,25518760010396
1,27788314160674
1,31235329460628
1,3500348433329
1,21282546824523
1,25714776364335
1,24473495390315
1,28172275181465
1,24105783738659
1,32999502901868
1,2631677446575
1,36626806704109
1,24385759351685
1,21001091065872
1,19981891114613
1,25286320479995
1,27826907797067
1,23900200201883
1,18650447851462
1,26339441739159
1,2146720774107
1,28262672202341
1,22551640639113
1,31987093717812
1,16348160903878
1,25529896177555
1,21104662446098
1,28810953213091
1,16502354893362
1,19480098508665
1,16915970784014
1,21899126773902
1,19286310309176
1,2585182336496
1,18005597778418
1,25779493283428
1,1513406793108
1,22675129885171
1,23865155034586
1,24623924491833
1,14299913190868
1,2179536951744
1,16255165208949
1,24792226896303
1,17742473090178
1,22052357891461
1,12551285724638
1,22994025038785
1,15255114823029
1,15346052094491
1,17211333034993
1,22582337196909
1,13283353290915
1,11752011414911
1,14805771608985
1,13462420738456
1,16829039919856
1,15419676607996
1,10318984315895
1,15531443221114
1,15177894078655
1,14913969707872
1,11370558827299
1,16321773645998
1,11011480761325
1,09755008585472
1,10704006767959
1,12663603348802
1,0969925283301
1,14922861714209
1,13189561911198
1,13544471982035
1,0564232764118
1,12206952601227
1,09052341401189
1,09229036170508
1,09883829269677
1,07850022970899
1,01487223117743
1,16675943872571
1,07865359379939
1,1279711640503
1,03608181161898
1,10501910213905
0,976125631865764
1,03254334605858
1,00435834519957
1,08213372753852
1,01590376324925
1,03091809490648
0,998143456841371
1,06342444998026
1,0112869918876
1,0011968899753
0,985245046028449
1,01319555206262
0,9896398984031
1,03970959627697
0,969642341231323
1,03364568109644
0,958662255038089
0,992741408316727
0,961311047591597
0,983135610290657
0,977178780674736
0,963953696309209
0,940784156873534
0,992011392427063
0,974221486978194
0,956525630791448
0,946981970175688
0,996389408301195
0,924613810559278
0,945900134698845
0,902666683273487
0,937275219971774
0,877903184454032
0,942619100375051
0,902448709126506
0,903956572609225
0,899243781076735
0,905031221633339
0,868341840267302
0,906182017791396
0,865024862958487
0,891561892263061
0,87079175012532
0,903998151422292
0,853595064270764
0,866872272698916
0,84410239833851
0,866277138797878
0,842675469105404
0,856259495432284
0,850944552978879
0,853087727162727
0,814430055524626
0,845278440162232
0,838479169518492
0,84766652137585
0,795531775296834
0,822416433166433
0,818467236109203
0,811171515862965
0,792749500497421
0,801595865927546
0,777505198614712
0,816339800310077
0,791478307194648
0,815603663041882
0,773413351088249
0,797393363918929
0,782222367619293
0,800234200354387
0,763006670643124
0,776594114580092
0,756905353609349
0,767603139553513
0,753665430101924
0,75150081234545
0,733004233436928
0,741717355433432
0,711985096688431
0,726467599790327
0,716439298756358
0,746007117049172
0,726104465156761
0,727573470059293
0,711808215355976
0,731070815637274
0,692482489859011
0,723106906472888
0,687215322054599
0,702457098895831
0,71227055466537
0,694018428596665
0,673606451504061
0,710905076421218
0,676363167026512
0,681888506426073
0,655140135753559
0,669207751233526
0,663127667599882
0,671322914120517
0,652598327265282
0,678482581417444
0,642491321353268
0,654762102965646
0,640406766984101
0,652329724954663
0,63266769542942
0,636143099241219
0,608265289986128
0,632180865034479
0,62402186247475
0,623801256490678
0,616928317131323
0,615633586307466
0,604590104482646
0,62002918868457
0,60290832946159
0,619155733989242
0,6018805227855
0,599131875051434
0,582562730358769
0,598920102035461
0,587826784984688
0,598193409241632
0,577598845347775
0,579869374020047
0,590804440301046
0,582587140369045
0,581831749015128
0,574916329429312
0,559030047377173
0,5756383948991
0,557331672328988
0,58069170750857
0,55391199896665
0,558208048009307
0,543571248027103
0,555827314777043
0,551044589553701
0,545141275175773
0,538295185285092
0,550914981077279
0,533866384000447
0,53435543927644
0,53229655774586
0,533066794841109
0,527088124841618
0,525295192357837
0,520500138657571
0,528759504876369
0,509245950230045
0,53669562910682
0,511748507310937
0,505033674665567
0,500234933976084
0,510239398969171
0,486283421308916
0,495236594019779
0,490637982674891
0,497316653409741
0,496303914308045
0,487504198514665
0,490038123806167
0,491041038357436
0,473328341015165
0,486520981853221
0,481689907634912
0,481235189081624
0,461592907708655
0,484060912906656
0,466812425696418
0,475998617632993
0,461205007002604
0,472102810710203
0,468231478430513
0,456274746283242
0,457038561293886
0,45683139682852
0,453016784316457
0,454489486375598
0,450450012791535
0,453659845314848
0,439633795505892
0,44563565982127
0,433128341267051
0,447764345453984
0,434566852305257
0,438782222288603
0,4383797961526
0,434266175249342
0,429857918455756
0,434258674987187
0,438233884367711
0,429070056216098
0,424247564692776
0,423118541837992
0,420332314737219
0,418102406307346
0,41424209139015
0,422551599624084
0,415503321206634
0,423648422459619
0,41018046254567
0,417391099260982
0,418518786864284
0,411067700662354
0,411107159483869
0,411050544651826
0,40686362194912
0,423119359469518
0,412695916193517
0,407358079738199
0,404049485439603
0,414831431315714
0,403676914122534
0,421300565811213
0,409965877808781
0,419313747166968
0,409213568496705
0,413088585007055
0,410735251795507
0,416665697269025
0,414327930952434
0,419106026656228
0,423301325554724
0,428581239371839
0,421395306211173
0,421033830193575
0,415141768587882
0,422925741472138
0,420314759464911
0,427656207928543
0,424489595610799
0,437743207855466
0,433369902225668
0,445404627017306
0,424519876288354
0,432566579591745
0,435180775540238
0,43819485334707
0,430843874104765
0,448350276680246
0,436347216503352
0,464029565915735
0,448076841853874
0,447923363843241
0,447693271738019
0,471636515241573
0,450214967254947
0,468359940527168
0,461427187059402
0,474237172111252
0,464712031438455
0,470856210599577
0,477376638725427
0,473007120392862
0,476459858945308
0,487489547548082
0,480544184171951
0,480320413814296
0,486414860730401
0,505536466218156
0,49943809149742
0,500909814589466
0,505874479423524
0,522526913976543
0,516085273016693
0,525496226591415
0,516265895000984
0,52546294538108
0,5192867359666
0,532037882411519
0,52178355170512
0,541267262582973
0,529031682749657
0,54421207496423
0,549789013143504
0,556775561602536
0,540061380992763
0,553412524231024
0,552569862841314
0,558510158617889
0,540892022775801
0,560663481143919
0,552924464390793
0,569480640733807
0,542797681632724
0,556880331899082
0,540956270260894
0,557078872245706
0,559315452223222
0,570362593484745
0,557186810306605
0,559347805795067
0,551686865210942
0,556707907215485
0,554423895330466
0,558057069830404
0,55188912369956
0,553434837530056
0,550222329069441
0,565212272489749
0,561340495606712
0,560118753963405
0,552465123397472
0,564284527483768
0,563632639867073
0,568015572009968
0,556110582782599
0,567191613228072
0,55721383068765
0,564922815919153
0,564632961641065
0,576680445728855
0,569653975998788
0,557768022137158
0,571568543949659
0,569508628368722
0,557850758067902
0,571614368080574
0,563279234244897
0,579002990813985
0,565274981279924
0,567560399700284
0,549441417861525
0,57549032204686
0,573400821152493
0,579473020853871
0,574306312697172
0,566150881435687
0,55475141987452
0,57094242738234
0,560548071060038
0,562928596459959
0,564416372488871
0,569132994103918
0,552271774184287
0,561411447848075
0,561563339677143
0,561412023951758
0,555447143669111
0,549144743229938
0,53726990697257
0,549847685347698
0,537690576839202
0,539354848888944
0,527653932532886
0,533686452063278
0,53413453616782
0,530804379115739
0,511403027915236
0,525775449243639
0,514938591575988
0,523448794072657
0,509004163006252
0,505005920417719
0,492693902563688
0,504115281317879
0,488419500094367
0,493237379016733
0,492468797344861
0,480516838115693
0,483383254877546
0,485819723379777
0,466749616544641
0,47346011521615
0,465546503560032
0,467224099666747
0,463148973218784
0,468951253030367
0,457111334499003
0,457656628598686
0,447678815796465
0,450291207606636
0,447375687245559
0,452612102432073
0,434614595373074
0,442594156471551
0,434083322780831
0,433688365902508
0,428220056638371
0,425699205627309
0,421666725502215
0,42334125302456
0,415314300968313
0,419637770351455
0,412266349431018
0,416521689166674
0,409413125897568
0,411194325593429
0,406789543318817
0,410471577898025
0,403393201598871
0,406622476939191
0,396541594604948
0,401080316927942
0,393235131725544
0,404701787109697
0,385821832579711
0,394184541949249
0,395896466048076
0,390024975531799
0,385075520047283
0,387694394179101
0,38526827704302
0,385012721319293
0,383168417481409
0,380745175508097
0,379085404376417
0,37466605538333
0,378167768480761
0,381761899602458
0,376571671195802
0,376459912324533
0,3674862717945
0,36806885110829
0,365857814654565
0,36998638859514
0,361361001509257
0,370787160192187
0,361567069770616
0,359133100000788
0,362549418525952
0,368436135401252
0,362682300293695
0,360275767152691
0,351460378184389
0,353838317658307
0,35618619973155
0,351307341701038
0,351033385220846
0,350354984950063
0,338442502022008
0,349760070339607
0,352448457498684
0,348673604146542
0,343449665265059
0,340698504685841
0,337878887058238
0,342509737283969
0,343453090659319
0,342702643700567
0,338132161479788
0,335058281677314
0,335552551346566
0,332943937713031
0,33107992689386
0,335239332455224
0,335040843373445
0,334323729679792
0,329798556923521
0,336174747623836
0,330118762984982
0,328525720391744
0,327915421347376
0,330095249791704
0,32719152659234
0,316003490503351
0,325420705433922
0,335398377564675
0,322137953573326
0,324050019481755
0,323281166452056
0,320847917188211
0,316296066587835
0,325944176057325
0,321761951578646
0,316314967755172
0,320194309947786
0,324051601111584
0,310890890336444
0,317474741915707
0,316086592815101
0,313136436188068
0,311929332881974
0,318513849699818
0,31359345869572
0,311636803311279
0,310096913245948
0,310916887171757
0,310931813543099
0,311406382744458
0,311998404471009
0,314775089978716
0,306988014216485
0,30983861617577
0,310895401652587
0,309443502659351
0,309440521659247
0,311407554027314
0,310989665629632
0,307497832843395
0,30347941492002
0,313468932933478
0,305514200783012
0,303492847348004
0,308511103830968
0,306228529129093
0,299915272537282
0,30180678795274
0,297686001515911
0,297285587257906
0,300700819246635
0,304454515650547
0,297758986858415
0,304381203756109
0,293861121541904
0,296006813391157
0,299423537228103
0,300556579876104
0,299847893310663
0,29721932502828
0,297076644955036
0,29615597359958
0,296748449246021
0,300593248070866
0,290432396962
0,293655831737042
0,295094166560194
0,291977316550572
0,287337316434606
0,288110349988433
0,292237302696626
0,291824998147831
0,285198493363925
0,289177312874512
0,286370662910461
0,28401075806366
0,285328650236052
0,283691557335703
0,284029186334524
0,290633050344121
0,286559232728048
0,281481672183346
0,28221239053932
0,286065516597676
0,280490031428626
0,285364995058759
0,282255590694901
0,277385536393868
0,277008125792564
0,280254251665366
0,275410456392152
0,277519517929373
0,27622569783605
0,273726780885169
0,27292251918141
0,277322701948922
0,276063549902529
0,274180219242019
0,271493113615092
0,272077431951837
0,268125290342942
0,271290196029893
0,272705778067766
0,2688809112074
0,267133552933846
0,266042612496253
0,264660558069255
0,266866643327921
0,262787548315734
0,262305542391647
0,263251241952747
0,259544725913213
0,260143408924291
0,261895827547452
0,260530516500727
0,262535671202694
0,257722998863562
0,25725561116055
0,258462388065099
0,255138389355514
0,253207532860481
0,255458478180892
0,250976646633156
0,251779480929745
0,245509809794936
0,245578401117071
0,248501489621737
0,246496246500397
0,24389038338617
0,250856386292219
0,244250190202008
0,244364885887351
0,242437578971111
0,235012731445513
0,239198287384085
0,246223521547638
0,239626421056467
0,237401475608773
0,239941528387146
0,238282651132378
0,232413880975942
0,23554659875113
0,231990723732067
0,231300983195414
0,230203846284975
0,230052930995668
0,233112877538798
0,231337737613398
0,227301605134262
0,230342017625556
0,228539452527252
0,2255210065692
0,221858181689649
0,227218123008501
0,226302200189177
0,221367016232178
0,2177593070457
0,22336311178445
0,219259852535477
0,217551677443575
0,21888726949122
0,21856110877403
0,218294857360912
0,216140513768279
0,215156522205766
0,215767632752152
0,213604953743372
0,21254138337116
0,211806420082963
0,212473849137096
0,213149463518746
0,210015320700684
0,210073547103583
0,209377509006822
0,204529170286747
0,206548381103566
0,20510901970327
0,205202605382938
0,204231018593748
0,206542243431592
0,203376651170706
0,204275020586642
0,203547180559378
0,200731175667517
0,203792917431572
0,203511051644934
0,202523213197398
0,203838451979165
0,192709187684658
0,192279789079158
0,198994354345894
0,195667301126414
0,194818406788827
0,193713955310153
0,192466900621098
0,197764139373743
0,193330510595764
0,192336683985107
0,193211032290069
0,190492830878863
0,188845931854801
0,191198583054566
0,190562734593257
0,187998488184536
0,190565992949357
0,192254716798135
0,187421529834574
0,185695941219302
0,184382280319049
0,184120164888463
0,183743360850313
0,18336988345219
0,185121845225005
0,188367703068363
0,18343902112828
0,182805528664846
0,186513658313918
0,184052631196937
0,181861366759937
0,182838414940688
0,183502618391142
0,182442109917598
0,179307377167571
0,18224864791739
0,182809835847552
0,182137788191164
0,180982785324138
0,179721309196655
0,178534029419585
0,176937463341591
0,178296790625935
0,177628453516443
0,173875317687929
0,177302608421274
0,177314635806621
0,178089849011283
0,178394001049389
0,177130596219099
0,175630784009611
0,175983497779546
0,174063345663516
0,17380184863993
0,175090029799825
0,173859588350614
0,170840111306385
0,17213353361724
0,171300004880576
0,171862481100316
0,169991355338282
0,169645550936643
0,168914595887051
0,169516947001077
0,167703638024292
0,168594067259461
0,168511602968301
0,16993255597904
0,169632159575938
0,168377564110347
0,167087088879307
0,16785383353179
0,167104707156352
0,16652826171796
0,163781360943452
0,165508806596044
0,16647064545011
0,163857208725404
0,165780157449716
0,163677444542059
0,163643218714732
0,163021182670126
0,161211227089883
0,162050822615731
0,158970458208789
0,163761035326748
0,161433300065298
0,157322250135293
0,160138114223325
0,159961413047335
0,161207863183407
0,161792523643506
0,158979829434603
0,15918020275893
0,160490696258901
0,159921840057115
0,159487941045391
0,159371679339574
0,158604315642312
0,155285069188397
0,15499453001062
0,155048720712458
0,154050031901406
0,1557325004172
0,151835348694146
0,153118809940165
0,15297795423232
0,149574358640639
0,155677547794321
0,153078222470524
0,148353943376922
0,152255932583482
0,154114346283223
0,15124183411564
0,149897998374449
0,151396178636972
0,151837310499064
0,148810793777034
0,143653607275435
0,145530450593884
0,147475754104978
0,145808435285909
0,143981767308008
0,146447398831128
0,146918784417313
0,148634811369196
0,145973592737959
0,144663239133376
0,142056315427651
0,142680435032757
0,1408142553603
0,137809522009444
0,138957426007237
0,140521639044426
0,139695899330137
0,137015427192582
0,136515414223428
0,137791507997073
0,135087951741136
0,136178439812542
0,138343089654024
0,134872266633453
0,135267790553097
0,136181670663915
0,130595939870953
0,131680076108141
0,135655127914099
0,13169101942206
0,131388363563685
0,13335931739841
0,130441971749785
0,13183007128086
0,132306908969665
0,127362751580496
0,12764941687157
0,128414829899026
0,126892602168038
0,127664588258447
0,125110764325285
0,127423589268769
0,126612285570003
0,121437707546635
0,122210010223515
0,125805112737094
0,124440384613775
0,122813949306511
0,121953016135471
0,11890353204483
0,115919246066907
0,120302192681797
0,121120533950097
0,119888383182878
0,11821245789686
0,119668943166998
0,121410506678854
0,119043902184141
0,119210030834158
0,116817944999179
0,11758642949105
0,117004437114516
0,116276838736384
0,115864835330705
0,112986254923348
0,11271590588377
0,112567319081084
0,112477908523764
0,111390308411202
0,110973760183147
0,109163511825609
0,111622337783386
0,112542301863657
0,11146019799172
0,110131070950033
0,109852226345804
0,108782990146446
0,108476767833925
0,104807505067762
0,10513730799816
0,109304831099325
0,103910132447204
0,10685223682815
0,106681579971395
0,104804190258703
0,105372673471263
0,10290148497966
0,103697939450431
0,103426986886002
0,103498933564941
0,101947497201446
0,102743225437925
0,103844677080273
0,104331217010728
0,101493853809818
0,104222622513798
0,104583636415984
0,10086027921512
0,100335835663794
0,0989075247294942
0,0977473723592639
0,0972239058803019
0,100550824281886
0,098035384775856
0,100725983993534
0,102480385418315
0,0995827211649763
0,098279585790548
0,0980780385807526
0,0974559437971255
0,0977773109632034
0,0958550182831894
0,0986459748682652
0,09529801079261
0,0963934557225957
0,0959143882483298
0,0962167042659427
0,0987153340560919
0,0964038507025203
0,0954796487983118
0,0967203144710769
0,0942818611038699
0,0945098573964534
0,0936170221420588
0,0915778683860881
0,0918724706826277
0,0930595037910191
0,0921991631730467
0,095067788304624
0,0951874670530706
0,0925070966904751
0,093148686549235
0,0901602456393757
0,0907767890659602
0,0942696990180669
0,0894727191691214
0,0897679324998134
0,0912416329335052
0,0906313197196374
0,0890385652212603
0,0904553210062701
0,0868089080556147
0,0936053719941441
0,0878104363834359
0,0893948988053837
0,0867406132313584
0,0908666090670697
0,0861406879912627
0,0881846760648433
0,0878497846292781
0,0889677428127849
0,0893095184958687
0,0909414497022169
0,0886976725704215
0,089240896472401
0,0893198933843386
0,0889455443737188
0,0828793993365515
0,093531570037713
0,0832215463151719
0,0896460576768437
0,0843717743049923
0,0899176410061713
0,0811754756860567
0,0902627851990167
0,0770437679836138
0,092127037496053
0,077959124737944
0,0945485061766025
0,0855484247789041
0,0887433340807967
0,0758938220219021
0,0932386312360742
0,0798936328704648
0,0887190456817176
0,0795647927595005
0,087487547895286
0,0839484336237271
0,0863047897685455
0,0808783740995315
0,0812192492848942
0,0856981902233128
0,0859397393176632
0,0878925255619598
0,0808368167479681
0,0856075457878259
0,0793401557983749
0,0870992507784557
0,0793380231507602
0,0825707241304873
0,0804525878866707
0,0827467012200581
0,0816384725108879
0,0834689681186367
0,0822549349084854
0,0814204476409641
0,0811512803423509
0,0835578604689075
0,0815325656865859
0,0813452687849628
0,0782831435627195
0,0810871411378796
0,0796477991033938
0,0825080343490561
0,0812656892259843
0,0834369574057622
0,0791780242329987
0,0810280710486306
0,0819145365677748
0,0814374764083574
0,0815759571336485
0,082169450828178
0,0802180289920755
0,0821153634620308
0,0809089625873512
0,0797627768543235
0,0802201609083266
0,0806476128880214
0,0781348879759243
0,0794126917509935
0,0786540828843929
0,082088935552588
0,0824894222810025
0,0792679867483081
0,0808238435962404
0,0804869783775973
0,0809455446034168
0,0800686782810853
0,0792381671554332
0,0824541744924264
0,0831177588996822
0,0812264835107376
0,0784473675833271
0,0788704179992005
0,080943435266708
0,0824853664461021
0,0809925687186498
0,0787157550599717
0,0802886389851296
0,0819386705407582
0,0829834025661761
0,0797288741731318
0,0770620530584365
0,0831543826351407
0,0803176305988891
0,080713213336475
0,0789090403119207
0,0804490603391212
0,0797686674193646
0,0797251365630492
0,0807079255392663
0,0779481639527737
0,0788600573384495
0,0808374627098069
0,079921357302495
0,0797398193614729
0,0785667104667088
0,0792257351891035
0,0792529372422932
0,0807904449009227
0,0781324179184049
0,0798377030269836
0,0810298112011188
0,0814610080974617
0,0829413617053627
0,0808627816408658
0,0814681644808125
0,0803055226908553
0,0748302157948822
0,0806580796304609
0,0794790849349798
0,0793385312431376
0,0805934187838015
0,0828599226010078
0,0806684152467631
0,0828163755208806
0,0816905205812203
0,0828612503006214
0,0822920878348776
0,081121756444735
0,0829409985893831
0,0817723999195146
0,0829292371181504
0,0813552955116406
0,0797372599593326
0,080942273738174
0,0800919196391366
0,0802659158098305
0,0811614972548002
0,0830181536077222
0,0825616913885026
0,0823426837312738
0,0831183606665275
0,0849204778523153
0,0798286969232668
0,081465273584435
0,0824009771437645
0,0829880570728668
0,084544292863992
0,0854734914787106
0,0838417452217902
0,0829365298560052
0,0820333726071373
0,0807762757277999
0,0816892531155569
0,0832806775273919
0,0836312451664576
0,0810304004631246
0,0837506734937868
0,0846567860130947
0,0837816748751503
0,0825503638190034
0,0816342442723334
0,0850391273096501
0,0854819683198666
0,0846357162395424
0,0824853243239011
0,0854962832010264
0,0848999464548768
0,0825698731772587
0,0856177105768036
0,0843442871584062
0,0830357023713409
0,082837017437151
0,0831096083510546
0,0836677932376767
0,0835282339948621
0,0872397952219091
0,0821009779607006
0,0863685539310575
0,0852919880131455
0,0847800787997144
0,0868869642833709
0,0861879191262089
0,0837410828248718
0,0858047278067085
0,0857955007683542
0,0871926271277462
0,0869213047053716
0,0842810965605477
0,0897485107967322
0,0877959646322807
0,0872799103830246
0,0867392275373233
0,0868367481117416
0,0876373447766658
0,0875130008309066
0,0866648359169212
0,0857839781562127
0,0876165925793008
0,0877908527279595
0,0875794084887211
0,0873958062454148
0,0900674406651102
0,0884818672778405
0,088681191547413
0,087846931283105
0,0884687144326417
0,0882559516751228
0,0896085565177365
0,0864978754450521
0,0871519432677595
0,0846713875186937
0,0897156736350828
0,0869190199645067
0,0885663289069668
0,0878277785435864
0,0860701376417433
0,0884304411025647
0,0882580771352589
0,0868046642507077
0,0837371976611295
0,0851569437318891
0,0910427253019254
0,0873291642194295
0,0831296012239682
0,0873988658638478
0,0867564344910493
0,0858361826034023
0,0832631713808965
0,0845042580469099
0,083982382732098
0,0857144211932193
0,083042675284969
0,084730517011578
0,0840443397713473
0,0839568099108364
0,0848108709109969
0,0875612976917891
0,0816849488586096
0,0833418757937357
0,0813387888141127
0,0836550051551399
0,0844076317163273
0,0856566267430376
0,0819876272801607
0,0812126161909847
0,0846080047542139
0,0804964811743222
0,0825522857773324
0,0833925527353564
0,0836994335046819
0,0829577350825343
0,0813143749172714
0,0808239228731173
0,0817780100552226
0,0827593974324947
0,0814426425062062
0,0816216192344735
0,0818841014038956
0,0840598078636143
0,0812677845017092
0,0805817742460025
0,0812939311180689
0,0811341227978162
0,0831961604744261
0,0784744381497975
0,0791872910829939
0,0778651971120279
0,07936227111605
0,0819878863626333
0,0800521100331451
0,0799130610795921
0,0803639068627758
0,0777776710295344
0,0799718191353384
0,0776596818611569
0,0841122879350751
0,0790703344200381
0,0810134256393925
0,0796486398324273
0,0804728209611393
0,0804250823094341
0,0806249536219148
0,0822288446968565
0,0796990330041939
0,0795662630103741
0,0802073486808299
0,0776182618177347
0,0814671708740713
0,0794734256074071
0,078090625946018
0,0779866094561673
0,0800803475581758
0,0802446039258392
0,0793288349251801
0,0801905399604694
0,081867042262963
0,0781965976644494
0,0773143961362101
0,0817893499732908
0,0804202341075161
0,0787159252345579
0,0767587789396425
0,0775994132239645
0,0775275685923865
0,0794722023669437
0,0795085113984224
0,0789263096680878
0,0772514615587845
0,0805240749066325
0,0773679010891083
0,0806015879692623
0,0779955355723393
0,0800003660194659
0,079424072313903
0,0787478635932799
0,0785962022365583
0,0800924122605337
0,0760731794451223
0,0802748932437253
0,0763538028234281
0,0754482924906753
0,0787449955451377
0,0785493058291223
0,0764844167012005
0,0745258058680339
0,0765576326724864
0,0779416521523914
0,0755269687778704
0,0767444823126484
0,0726620138375095
0,0752185936811429
0,0746354182048196
0,0766338626735349
0,0759778019958978
0,073517793715328
0,0732683483367077
0,0756215700270345
0,0750354840676028
0,0742621565808531
0,0728225802853717
0,0744146551634176
0,0748757200117519
0,0741176225115712
0,0730662935783602
0,0723582512870416
0,0759094720182211
0,0717403009926232
0,073010899203807
0,0710633313428401
0,0699260695699141
0,0720700450188219
0,0701752941415405
0,0685553364626233
0,0687905896357758
0,0721183252532234
0,070032864675159
0,0707712172891033
0,0706573538395169
0,0725061889205273
0,0689943662415505
0,0697320139519784
0,0688479039771432
0,0684490865907694
0,0679235169997114
0,0692148075693676
0,0669227484564756
0,0686023793182893
0,0669096305035043
0,068507871454446
0,0677419371463529
0,0692336166343785
0,0649388455588137
0,0659424781142106
0,0660115328675342
0,0648689823060445
0,0656238901357578
0,0674163113444129
0,0669395395890866
0,0651096978187348
0,0644208621196043
0,0648743996430164
0,0650200761678473
0,0656031989916443
0,0662631387131352
0,0651577238118548
0,0645032195848486
0,0662677493350677
0,0643433102765332
0,066997734804362
0,0643918963555406
0,0649299276964666
0,0648551571687801
0,0647104362818691
0,0652188568843273
0,0644522929039894
0,0617485391504095
0,0665779813835862
0,0649608202633004
0,063648271143121
0,0626520487723827
0,0637331002702117
0,0644909419385182
0,0631889761954333
0,0632427024017382
0,0622698727890263
0,0622729146810917
0,0635446507962407
0,0620683121296906
0,0649009308822605
0,0640338615808811
0,0625861334869972
0,0622679028005897
0,062742882186129
0,0632927943833988
0,0601981095257629
0,0653403563766693
0,0621629676370088
0,0639662365252082
0,0637101230340334
0,060336116653834
0,0625998749989137
0,0631291560568425
0,0610917684361728
0,0607393249126713
0,0612057659824495
0,061743720814806
0,0594200864063207
0,060576366596808
0,0616215090359678
0,0642776160786694
0,0598762536727723
0,0594850534944041
0,0626386458286883
0,0607872863246311
0,0624171650866506
0,0585401202746012
0,0609961078219203
0,0605898374680436
0,0590120801035066
0,060369997611677
0,0611318916716146
0,056608576851636
0,0594397872974857
0,0599839369840658
0,0593635078919866
0,0603914448939038
0,059643968812392
0,060870448049809
0,0616075023813768
0,0576969020623758
0,0599803565838084
0,0602466196878109
0,0619592478509758
0,0617864473954763
0,0621503473583912
0,0608641907985471
0,0630869627568051
0,0559173139438557
0,0613568166458096
0,0566429895822874
0,0590642239747484
0,0577687034051272
0,0609607276478348
0,0605306346561171
0,0628574915171023
0,0604466266987247
0,0593216593299105
0,0589856901129504
0,0601330793451297
0,0585299534798554
0,0619921078286071
0,0592321991352959
0,0618081527699759
0,0599873688016521
0,0615658402657521
0,0608459991608505
0,0603108259780678
0,0586779811046394
0,0635862096529441
0,057571396982151
0,0589713546070041
0,0572109046959065
0,0632231259810722
0,0590509545390649
0,0594352278309861
0,0569970768961134
0,0628189161440827
0,0588793409666406
0,0584946684430245
0,0602840871138274
0,0595166283746417
0,0615958788712091
0,0601595676697976
0,0594625784159832
0,0579747346353173
0,061935028653264
0,0605748601611317
0,0591438633511243
0,0600562854093298
0,0601893379946282
0,0608450324033032
0,0579589693411819
0,0595273297919193
0,0598504713703417
0,0601160097953447
0,0592523833702856
0,0613275292321573
0,0581644476109538
0,062640957398746
0,0615387565236318
0,060496629768236
0,059243521157438
0,0602443847676616
0,0602030204462751
0,0615300628713241
0,0597832303153431
0,0606357246408845
0,0607784230618472
0,0589981283103491
0,0605871897070915
0,0583445622679985
0,0577877548167634
0,0579273210454079
0,0604008901498734
0,0607435428943858
0,0600619240315943
0,0608672570676531
0,0639931237424649
0,0577002074443476
0,0601019831878115
0,0595259307986409
0,0606290482842661
0,0585445010578795
0,0630893550551066
0,0611638546599787
0,0697353616222544
0,0606690636292083
0,0625992639630122
0,0592078510098689
0,0631533013705388
0,0611715073314422
0,0602425094524045
0,0659430240637438
0,0661385409052739
0,0618213901674751
0,0619518865919569
0,0600766783161
0,062257673495033
0,0618006875546879
0,0625592633328363
0,0629169604293438
0,0652900502232144
0,0619052905827638
0,0653744053806799
0,064506334479001
0,0652285053101303
0,0659593029162283
0,0621185273646651
0,0649099676604936
0,0617049031382775
0,066770463092776
0,0650852436088385
0,0653539815397091
0,0624435230785307
0,0647063845401163
0,0673700137997081
0,0659553112714741
0,0636465327383487
0,0647699331189591
0,0654641149023559
0,0657000400171412
0,0653333308830262
0,0650860668879282
0,064268557828416
0,067591623525376
0,065206420725136
0,0683116088389707
0,0678079330522622
0,0675978126582405
0,0654896604812186
0,0682306877315324
0,069301151309057
0,0688468806932045
0,0693554311514117
0,0662082462019744
0,0667639777152482
0,0712794768575713
0,068395751967926
0,0699614548466932
0,0671243627642278
0,0738817574118545
0,0694016783766511
0,0682325052334446
0,0733672520641407
0,0691596455644203
0,0733966395926207
0,069417331054039
0,0744357730855656
0,0709228758130347
0,0774416799492289
0,0692721732650444
0,076742004838734
0,0696790905917365
0,0741700545651953
0,0732626048582239
0,0751264197613004
0,0747827166194509
0,0736126319582027
0,0737015415185978
0,0759833680892708
0,0724396872896411
0,0752817291090503
0,085090993094139
0,0759997234452617
0,0762252653555566
0,0767092303893832
0,0783666071100401
0,0852635966215998
0,0753666096284151
0,0809725089373604
0,0780206837078354
0,0789592104182533
0,0799959980659371
0,0787159542919916
0,0775677256075627
0,0782451365301859
0,0756988000483999
0,0804812253570021
0,0813677735768544
0,084887615298114
0,0802248691681677
0,082348356193194
0,0796999931410154
0,0836032330013264
0,0797329219375522
0,0959016417802932
0,0814808972450984
0,0869159752113611
0,0885301029673913
0,0838075080227489
0,0914089770285658
0,0894552162966457
0,0880426986380973
0,0899481844543471
0,0935008306776977
0,0886617460718847
0,0921880935206772
0,0945961386699074
0,0973852623388458
0,0924783133100237
0,100440568782563
0,0954621538628211
0,101755251659271
0,102755978836635
0,1103967584632
0,104677554578209
0,106501953602772
0,105078795014093
0,113064852301906
0,105171013046303
0,112062371950407
0,112388850417835
0,113818785072331
0,113591708315739
0,113567229241743
0,117998064335527
0,116982591814495
0,119112739528749
0,119793078045045
0,120175883307067
0,130731073113099
0,131290336414487
0,13272574276598
0,127471560163741
0,142216485946451
0,130548000715306
0,133495711735247
0,13404247859039
0,136156712401523
0,137343215189435
0,136001642222101
0,138095939954118
0,137636888363495
0,144276370985144
0,146265261891818
0,148156673161068
0,154995370624466
0,145691157140806
0,154335996810419
0,148454080126642
0,205628790044362
0,159524968111947
0,165893531321805
0,168471750525012
0,179589875239846
0,185686006763931
0,180680337374176
0,188965203189683
0,194497292482576
0,196306319927729
0,20209309589298
0,208854676543644
0,209583533277802
0,218930462543486
0,224114706491687
0,224706715186309
0,243921045987543
0,253149438514613
0,252970001917975
0,251386044092577
0,257963756034588
0,270290281369014
0,279633003979244
0,279694479233258
0,288662005330153
0,29025473499165
0,300291766486104
0,322801290277356
0,316694617283093
0,32571893929805
0,320472318303747
0,336994901777924
0,342925915618747
0,356148297346625
0,360368032741117
0,357071265260244
0,369041748381774
0,37433621031831
0,384561582977259
0,383065381195912
0,411216294482739
0,401482257176624
0,408293305403181
0,408761059185859
0,411867923243587
0,417715998569217
0,424261890530056
0,422184119035917
0,42641234263351
0,440659655758824
0,457517538677882
0,456520860959424
0,434640554146864
0,442287172617151
0,445790145364357
0,434001941995123
0,465611542285903
0,437059506012903
0,463904673697779
0,460155943106664
0,449418172892941
0,459279814291407
0,454523592374045
0,457807300154657
0,459354403084257
0,453949890291145
0,458133264921805
0,457837171880916
0,461855826222633
0,456242230536488
0,497348122102542
0,456527174294264
0,454666590382451
0,450089798985874
0,457081746612254
0,454314222462372
0,452088643226732
0,443761702331142
0,460644084256804
0,444842447777117
0,45185865997287
0,444724244072315
0,453838665831127
0,449565028166873
0,442987571497078
0,446139812047001
0,433918175851635
0,434659338246862
0,429598977333921
0,431220548528317
0,468598348172117
0,428908823688356
0,424586080194011
0,423160976283603
0,429086601593087
0,426553150958077
0,422777134823541
0,420539047776349
0,428316413613264
0,414674582099792
0,416552720995834
0,410784707941243
0,415538646298698
0,41458064236416
0,417936212381058
0,414625903619005
0,411974435852116
0,409460934043888
0,405231970752274
0,40459904280501
0,402239627306618
0,404611914208391
0,410072059034047
0,405655709537652
0,406045075570982
0,404857949591433
0,408681663057276
0,405599421912862
0,406483487120892
0,404779917140816
0,399463869816032
0,400392531558668
0,39886348262328
0,397953586673836
0,395015627834828
0,395052331105141
0,397387378463996
0,397008774363675
0,393086908689547
0,388945853649333
0,389354605888636
0,388933432821071
0,384861562514108
0,389518343018796
0,383377338931521
0,376471545781098
0,378160280235366
0,374916534108357
0,378658047701219
0,369659089723493
0,381645978305992
0,367821752274638
0,357419889592744
0,361280894606585
0,360172391286009
0,359871749845625
0,353266795409548
0,341172273199716
0,343521126077479
0,338340872453656
0,351302288785318
0,360799235378933
0,347195370682468
0,359724252871859
0,330687672537535
0,325534682374579
0,32720297243418
0,333063707198888
0,321536375290161
0,325047705073672
0,317078066733134
0,31514785721892
0,324450976815279
0,314089855300801
0,313518075215455
0,307708610508038
0,311263329536742
0,315208959566978
0,305789213700431
0,299188431358281
0,309707092363608
0,305121224563501
0,32498240932509
0,317287491157262
0,301655281032505
0,291088347939335
0,286537112905114
0,289576835458983
0,283284597543946
0,296944987934423
0,283852462398659
0,282981114876405
0,282663326193972
0,270281909605646
0,272328062997364
0,273573388476229
0,274523992351301
0,270860626352825
0,275932696749568
0,262044190090079
0,266406344521599
0,266801554952111
0,261239514855638
0,264849547900039
0,257887203714442
0,257863194233475
0,264020291677195
0,264104092576079
0,259116955155402
0,257707975659945
0,251895981626488
0,247972424707254
0,252075212928884
0,245995025359333
0,246445505564712
0,249967556698205
0,241533265268901
0,258295420286631
0,25554386473646
0,251285098183029
0,243748011968299
0,24196162255645
0,243439824730626
0,239961639157688
0,242014325538748
0,244616578512129
0,24472927081926
0,24970201720672
0,241072500434779
0,259727726739161
0,252860706138091
0,251471553030845
0,253859117806914
0,25718821230868
0,260106061154302
0,27087497606112
0,271954340079354
0,275138978058751
0,267973581372631
0,285478205114315
0,284103101811515
0,284861011414321
0,287479903185467
0,295606226736972
0,294436324640601
0,301970230699888
0,309807949760177
0,311783376970023
0,313437587032287
0,327961821028551
0,3241010393924
0,343608127771966
0,336017655215918
0,35408184281443
0,361444038654454
0,360880253914285
0,375051863133694
0,375861139696005
0,380838870596802
0,385972840872845
0,3903980203271
0,398056657675785
0,401214790749543
0,422491400462754
0,412509474197225
0,419986805559611
0,422771036234968
0,424685833630108
0,428435628175567
0,442120880626388
0,442768453824659
0,44886893707373
0,45543824465912
0,449086322600102
0,459233721204435
0,458978595679189
0,459458213502786
0,465744236473755
0,463472220174765
0,46974077321031
0,465509760958912
0,482753451631073
0,482666076596433
0,475286085307599
0,480193036201001
0,488273484833296
0,486350313786353
0,490011721054145
0,493880759695787
0,494811749108936
0,506364937210866
0,501850094497058
0,495158526508826
0,525396547637324
0,520389412654411
0,518670032903192
0,521706060751961
0,525769901825058
0,53831057428928
0,538971903399001
0,539251855027682
0,54021590023281
0,542849851974341
0,55132574308933
0,551567217484605
0,564842986335852
0,567057277105482
0,580928097783876
0,571010193424519
0,569811049884254
0,570192982039492
0,565517940027854
0,603732027938844
0,58737530165801
0,588631085053991
0,588706988306471
0,591632689534237
0,595792414153419
0,599524928056148
0,596569869854862
0,599045831941243
0,606980679041565
0,60295494380773
0,60350424982284
0,595478894080439
0,600394676009931
0,597062854227425
0,615462563884903
0,60593985847566
0,600681982336499
0,604102702299872
0,600908226251742
0,598322545015292
0,615090586746506
0,611780724228237
0,608331530950315
0,607717239707765
0,60383908739134
0,597448414256017
0,60632310844726
0,604562428700103
0,60764236419274
0,600125796587926
0,606310078689686
0,611131871009825
0,599560503630634
0,612765569394293
0,62636118241622
0,613177177043826
0,619196958151726
0,617338998476058
0,628181731456858
0,629466012768795
0,631195690654647
0,638369159355524
0,638532247904733
0,63559919477483
0,639646209565009
0,638267486518166
0,64393739545424
0,63972496677495
0,648772850779666
0,636252891882553
0,638175262677121
0,639493333921061
0,644008529561798
0,637518058662399
0,628592502978452
0,627258173516026
0,622663038139259
0,614256727019263
0,616666588222353
0,625163007405316
0,603008377586769
0,594578821337944
0,596322421062679
0,58843839332716
0,593102505866786
0,591599949110871
0,583020415681358
0,580785971847676
0,576957746608414
0,570857441009333
0,574716266473577
0,562924343593823
0,568341236871854
0,564639938499812
0,561891510540817
0,564355751129922
0,56595800133292
0,556606534327463
0,557656187560871
0,560205273922723
0,560399835980582
0,54796672708231
0,554126575168607
0,555021220272757
0,560977531762202
0,557924978845405
0,55670071444817
0,557303728615204
0,561969459614932
0,558457704075793
0,559849048185567
0,551964420740537
0,558791190430858
0,559523781451823
0,554626720986436
0,552225731242985
0,556668935973152
0,547655453213262
0,552504370406653
0,555757362792058
0,5535603097042
0,550162218304449
0,552927192922095
0,545819255550389
0,548970906693923
0,550335774511195
0,549492734287103
0,547745822483549
0,545911093031846
0,549609430079046
0,548543993958752
0,548545161102541
0,544873253620634
0,555568369457008
0,551067555548384
0,550666651343591
0,548728762431123
0,546674366814817
0,550436207041458
0,548698797538441
0,546685052633703
0,546189720831788
0,549807635263669
0,538618255858462
0,540654744522813
0,537732641455933
0,537892998376122
0,532150436238844
0,523204215533715
0,519985222514155
0,513981127685487
0,516216463664432
0,519132088434716
0,509218721785698
0,505720815460199
0,498607885304476
0,500159595295889
0,493552015590735
0,491239541736007
0,490783241211191
0,489519532975914
0,485271836917372
0,478774892744535
0,479303519211295
0,47827883896732
0,478148382512048
0,480605262466705
0,474712631015412
0,471766583082721
0,470894995645328
0,47652899586746
0,479856499573273
0,476593785676145
0,477494663170728
0,482865014087901
0,480666486880585
0,482160461273466
0,485080064388076
0,486210794170574
0,484003799631357
0,484669967701142
0,492569473159698
0,492645748342856
0,495263240796688
0,501638898040084
0,49845883831253
0,497560766374915
0,506353381879199
0,507405917513188
0,503938460829582
0,501932634095071
0,507392826176305
0,511015030243104
0,507092109243188
0,505391436026602
0,505285538546519
0,506700130571233
0,50307381334206
0,498900197114179
0,49759781052296
0,499075097348485
0,501809922976137
0,504391487478728
0,494431173248892
0,496959274594277
0,49248275117629
0,497662106911803
0,493579012222917
0,492372723521892
0,493722263113431
0,48846179530994
0,486151348599053
0,485813211067246
0,480388785185391
0,485630595984904
0,48251124026993
0,481476691482352
0,475104693784907
0,476608539636083
0,474774071049641
0,475195036423069
0,472522807586234
0,470574834605057
0,466180257920177
0,472020350799786
0,466373461419098
0,46994724459608
0,463875961801719
0,465781810443793
0,462547316132746
0,462251806286476
0,458048890536861
0,460431959985869
0,455371547811737
0,456161418461755
0,449079395837662
0,450787000213157
0,443573682827729
0,443918417652878
0,437883805638397
0,435355969570763
0,433021370926724
0,430178019993279
0,429541771050203
0,425159204854364
0,421341793068393
0,419280777983168
0,415893043772019
0,414625741178396
0,415764041524938
0,413093367633343
0,413170019490538
0,411630290824406
0,410819628045499
0,406147320377354
0,407081947373824
0,407517199805793
0,402389492575464
0,402429984924857
0,397940388829685
0,393656210364761
0,3894416223222
0,382851803843041
0,380395620055973
0,375452921515968
0,369567440552534
0,368117972278157
0,364292848477179
0,361991265868633
0,359401419526588
0,358068769322451
0,363279490604032
0,366046952871389
0,370250438617579
0,37753645005282
0,385103224700212
0,392097353471577
0,404755727554762
0,416951208479539
0,431025968678591
0,446143387422146
0,46077230383764
0,480684577309818
0,496408394825834
0,514816751000941
0,529369625197307
0,5474566257361
0,559983742032118
0,576525644080181
0,592653932992038
0,607847088173878
0,625660557560503
0,64396708644478
0,647965399766415
0,672309925549366
0,682188893989023
0,697544809777699
0,707260011045149
0,725167045377774
0,727898344311447
0,744116246150787
0,75084574083158
0,761624777994312
0,766810764621134
0,771290007643697
0,780658784355521
0,78685643865125
0,787833286057966
0,793335143805747
0,796563768195001
0,79446906897201
0,797075946851934
0,806192964096864
0,801153502395971
0,811915565178974
0,805770208263732
0,811282499720391
0,809334720675816
0,807997491922222
0,816466950648684
0,820458305648475
0,817342890062031
0,822276557471188
0,832693987074419
0,835932904859904
0,833926140008967
0,842407860430736
0,845842471819255
0,853729100376774
0,871399517774747
0,864296293307416
0,875185717874155
0,878592064788146
0,894395686144649
0,903978821643515
0,925456006240094
0,930671612792114
0,946364592807536
0,963130160335656
0,973620649880296
0,977929790263058
0,996650763244891
0,999592281962562
1,00270358775539
1,00718147452593
1,01630627024433
1,01689465285173
1,00942422628696
1,01788893670745
1,02494974631933
1,01328541601097
1,01535863326907
1,00366427705525
0,99108735864611
0,998620237134298
0,998073555452993
0,986448924015951
0,997684952147791
1,00115409874542
1,03817843480202
1,05840020619736
1,06280029803322
1,0682140258171
1,07224653215516
1,09497399901954
1,11077931719899
1,12611604641723
1,12466872986683
1,17116707756253
1,1815184418128
1,18397772414149
1,20274900121868
1,21053190613151
1,20167212291937
1,2411629437174
1,26111180709877
1,27673173093964
1,29181565422911
1,33283504747587
1,35336105854821
1,37644285031876
1,43551451816936
1,38099645742632
1,44137055724159
1,4393481283381
1,48153112443155
1,4799286917881
1,52503161043609
1,52105322257985
1,551650507315
1,56106034830477
1,60010648433768
1,55202273326238
1,60465466317197
1,62492759621468
1,66949191585244
1,61983755310072
1,63032106634347
1,61884587409236
1,65004473486714
1,6903092486864
1,70118502596648
1,62435587730485
1,65805048581435
1,61878578113376
1,69367548499367
1,60879784829847
1,72064025516671
1,67916163421575
1,72744757597657
1,60473930717996
1,73700051287221
1,63939412190644
1,69264865345152
1,74579907280397
1,73698355474985
1,71233667225519
1,86092172628021
1,79053004566115
1,83105447293985
1,75858101206509
1,82190559833593
1,65546487331497
1,80739914387274
1,83866573881222
1,86045416134658
1,85734121198714
1,98372400474843
1,86898794940806
2,214620263651
1,82324593900493
2,07314454751419
1,88796783629063
2,09327672608553
1,87313318215685
2,07273682773181
1,8802996192071
2,08613846595865
1,95850643477319
2,0237675477194
2,0117901428344
2,05858628877201
2,01350189465033
2,22169820408955
1,86014837052388
1,9879394312739
1,95428312049352
2,1306169156267
1,9787816474559
2,21045465164898
2,03670497742242
2,03189028340091
2,07587820868255
2,00973051748718
1,92948437250463
1,98634873497583
1,98158311945591
1,94671052055003
1,82864456093725
1,81674368238925
1,75410997755569
1,86341897047013
1,68243470151313
1,60446221022707
1,61337057634275
1,61919933943338
1,57876526710252
1,59527454194834
1,52524728289555
1,48503657853918
1,52662615925958
1,45609841430302
1,46252305261425
1,45930556015209
1,41144611713603
1,45081209423405
1,42284513829508
1,38364118063129
1,36789247226733
1,42280028404435
1,37017106162305
1,36899944557909
1,3021339560243
1,32061465996738
1,27634005760681
1,30115064276174
1,28318432788686
1,21185927871769
1,15150546278543
1,15143762240272
1,11446460706895
1,08600159222614
1,03516967162064
1,0023445974051
0,956832380884588
0,924194959338169
0,881836075882962
0,838552008936655
0,803127232494895
0,77794571441389
0,729239638266765
0,706373859573766
0,678404606389192
0,654593303230957
0,628749397503311
0,607085241851462
0,582507761508581
0,57353847045499
0,551125043722058
0,544493695172459
0,517667635790505
0,519659856358693
0,506216703955145
0,506627284939014
0,497703831858773
0,499992923413303
0,486336291714365
0,488558443102816
0,485005167663265
0,485850465309443
0,481227795216496
0,496362147693437
0,491174224825995
0,495605205508319
0,495463229579484
0,497303649939552
0,493357162381855
0,496020828381486
0,488352638557902
0,494200199589564
0,486682263547974
0,487120526117672
0,477620047368627
0,474703872988416
0,471511226166705
0,468505172245439
0,455678542506327
0,457988939313521
0,459377347481195
0,450117270842684
0,445123554111495
0,445141952778705
0,448996429051265
0,448695240560805
0,454014445218982
0,461702739758674
0,458767050851829
0,462551364380549
0,458340844450441
0,466044737535138
0,464647964170821
0,471871281590503
0,46944364415701
0,484175449718161
0,480723312573478
0,485127604026475
0,487953652097701
0,489619618266204
0,491174406759375
0,491801465683434
0,496496271891585
0,499794362936701
0,494276518355946
0,500090819743115
0,491824220567566
0,501248457834253
0,500720821273735
0,503511801906383
0,505418156258042
0,516482900628089
0,514856319558392
0,523837705621665
0,530923562296333
0,545115229489344
0,549481756381232
0,558745591541033
0,568602478472394
0,59624898213142
0,615508724707521
0,628215035728353
0,639488116982255
0,648978507930318
0,658029314784413
0,658090922562021
0,661479310595261
0,667435254644583
0,659377239041509
0,664247741271735
0,657784050943126
0,651899071293889
0,626633925915266
0,612723770927875
0,62020633460242
0,615921222789497
0,593718047840686
0,588533514875736
0,580598680671181
0,592288929027182
0,587258524445582
0,58906112381547
0,579541154133836
0,601080824641746
0,59132273865215
0,588883177956562
0,588260673941424
0,582856593660586
0,581627287832554
0,562192121070923
0,564290111769709
0,561656069408504
0,551552169932074
0,561020026802101
0,538479067305197
0,539762587925316
0,540613843266076
0,523842227142639
0,524503798579805
0,512724532415296
0,505037285567521
0,509050582676355
0,498202442106762
0,506794148124592
0,49322731090544
0,486643637455671
0,48895291189634
0,491771766400435
0,485711411071847
0,488132902273437
0,486214230898373
0,487222048777666
0,467937657693645
0,477423756445092
0,460978053212579
0,475672246115278
0,457764095759548
0,456043805330931
0,460684159133237
0,461590775460096
0,455463416885816
0,447160676929501
0,441151378123145
0,444461953847784
0,441055931527771
0,456348741445046
0,422668546854303
0,421738505810198
0,43274983739562
0,437055720736528
0,428465484261188
0,425510279942524
0,417454170485899
0,420345119204771
0,423251931065683
0,429798374576438
0,422156564761595
0,42416403595087
0,413185956199073
0,417981803384417
0,422020916199768
0,433954087048323
0,416067279987816
0,416702834830781
0,423822599770507
0,43970674228247
0,425259099541981
0,420861852966485
0,438355701910153
0,429397611511739
0,450616442633681
0,456643702167625
0,439418074457924
0,456081231634247
0,454531413425566
0,442813992447905
0,443529570579446
0,461839374342687
0,456672975829503
0,468429081455232
0,45680984246159
0,479063911583784
0,493616091376827
0,506736904965617
0,483982768486616
0,516508797099468
0,534624721461752
0,533092985216213
0,556052378309964
0,550266398384114
0,595814581251573
0,589758616959664
0,575337421302313
0,633036386310345
0,602168336651908
0,660456098036068
0,663856559795744
0,656689047305672
0,691220809082552
0,758817055702237
0,7338212520692
0,760229748378992
0,791946035854666
0,736568896448171
0,758460513067866
0,802153611007235
0,818092317834284
0,755301669055119
0,762788082904088
0,784191761157714
0,721635513751791
0,750445859343499
0,746176272231404
0,7884561308707
0,708925635896498
0,746797653874348
0,709743022228827
0,763671972709236
0,728533965695508
0,711834870766523
0,706768001931092
0,719265203955829
0,702838047364935
0,737150355892821
0,670337309301342
0,703306776184935
0,671178119484111
0,715761816296131
0,644672865106196
0,652692423871817
0,650782593077876
0,694212156191425
0,619646269715399
0,682366843513677
0,628858059103089
0,639659837337933
0,644285835005578
0,657258746302705
0,656227632276687
0,651490726270088
0,626187829429606
0,653141888920559
0,595456858530141
0,676911048246702
0,628842550137544
0,631201809903454
0,620121540284384
0,661778010139626
0,636826599900856
0,611738964532039
0,700567745717536
0,628193725413326
0,629595459820551
0,705168370427403
0,607500643177978
0,682290023647455
0,634534661774981
0,690060782136639
0,636823119737466
0,670862860436245
0,645497195033142
0,784595488554634
0,674792630925898
0,69326877373092
0,692735311423627
0,680212989521182
0,660935500463929
0,74887646858581
0,677680349894586
0,716377067877833
0,68359343761542
0,724975177523785
0,758403529811717
0,802363883379584
0,782237731060565
0,822759512317361
0,774733152797045
0,841160876510541
0,787631318917198
0,856850618687928
0,819080093525115
0,944844531211941
0,83679533283331
0,805671808410632
0,908383110743782
0,883667445635833
0,906193888395491
0,886915602733537
0,852368115137729
0,974469490499272
0,804794177581111
0,883415957921499
0,897424635895612
1,02872659477065
0,874638925386572
0,924714977783312
0,859670750377149
0,933506580753637
0,857288002265126
0,787661252267009
0,715463404213107
0,76053726134672
0,810808403447253
0,697610060397147
0,655397589747682
0,982048073883425
0,794916936599522
0,940484850680312
0,79814885783875
0,837899901143183
0,734229811000482
0,924743326304014
0,875199092936219
0,748605153405216
0,796169277237109
1,0020620110598
0,72353458776621
0,928358630952899
0,957965829962235
1,04860054544749
0,953752845974914
0,860094800877787
0,7362616004444
0,971644485633358
0,747324933686845
0,887826857672801
1,41408410281785
1,29494771476688
1,48119988571312
0,953094872659175
0,807180852742303
1,08965425921787
0,715144116759325
1,06584084970082
0,865091378305667
5
1,01187328485058
5
1,33549901079318
1,37442032085393
0,857438102019005
0,751524926169839
0,848538079579435
0,522055973818619
0,468698773081023
0,774229891220737
1,19819118230975
