3596
4000,36533379555
650,420452594757
1
2
2
0,0441807168255316
0,0533825578116932
0,0451050637061242
0,0512893255253084
0,0524449513769203
0,0522846493558752
0,0397575112188312
0,0513028911135504
0,0435349003694371
0,0551098578662272
0,0480845423188848
0,0484450690664865
0,0498955921246714
0,0486957198516004
0,0448403725834923
0,0585950263125029
0,0489528202273134
0,0533267870859576
0,043559494858154
0,0578606245879682
0,0442526591678406
0,0555984386351095
0,0497974484445587
0,0546529224738795
0,050899984408169
0,0536689734985915
0,0474185287711184
0,0474909652441271
0,0482039385712588
0,0562111505561204
0,0434697838732313
0,0507609946281698
0,0469972386624818
0,0527667752494489
0,0466366028807875
0,0495529601782153
0,0502931243094934
0,0547937259132263
0,0474273591078493
0,0580974096353057
0,0424779141452548
0,051694210548913
0,0466702981393807
0,0550888993851784
0,042988634712472
0,056008000147677
0,0466206638315527
0,0461399916769509
0,0446109011543637
0,0550992222696065
0,0511016174299385
0,0462450584825088
0,0430813134729873
0,0654127701289843
0,0435454687772494
0,0591808626352046
0,051594978152784
0,0539903985538493
0,0511565172763916
0,046851533681184
0,0600890644995034
0,0693831055023071
0,0453215295357451
0,0483395463050864
0,0471241352918247
0,0508443475408355
0,0407377374960176
0,0473755828353261
0,0441959418858788
0,0538761219855788
0,0443191774778373
0,0535344916588842
0,0595884460763086
0,0547719486862228
0,050348919915231
0,0578145826412053
0,0501644574357975
0,0419656520081305
0,0406853409307425
0,0467250493537671
0,0550119046177769
0,0577497640024022
0,0509650884193646
0,0366939152179096
0,0454185678170443
0,0671024067892278
0,0417203692573365
0,0424105806048158
0,0642152579263232
0,0630976822137188
0,041278273326169
0,0445728190618838
0,0533099612698571
0,0489496883126856
0,038010836417398
0,0510142771449473
0,0443458198562236
0,0521910805412851
0,0461355124889608
0,0476353211020934
0,0299169556386655
0,0516134826397195
0,0668283238609139
0,0412759854407774
0,0558501547688017
0,0590839831496743
0,0344067059200574
0,0840637033372619
0,057736617895304
0,0538419351139316
0,047824833311574
0,0404587998547739
0,0465006155338797
0,046198006175455
0,0320731203029731
0,0601025082944206
0,0807520285877061
0,0544129587845122
0,0474495451558721
0,0493875525395739
0,0207528515826048
0,0504594403375159
0,0744943279646354
0,0419238269611113
0,0530108045725153
0,047397280305551
0,0211446448917163
0,0734348945819152
0,073094162439522
0,0485264632113628
0,0421993569304283
0,0490240866257994
0,0340540646187421
0,0325741631580538
0,0868349159997297
0,0714132025462575
0,0393235513960012
0,0294272367944062
0,0336123297033177
0,0906239127804938
0,0613324973410912
0,0420606694561091
0,0312301680426791
0,0395946888548481
0,0768522681011516
0,0558173026094716
0,0268122849070885
0,0635018301438874
0,061408247354843
0,0431002998901055
0,0392724027214267
0,0379180371224769
0,0456414089341391
0,0538235693105938
0,0181278139670943
0,0493034463612527
0,0797482730802607
0,0673349372491496
0,0933459414367609
0,0682186666073585
0,0502420844319327
0,049369073506848
0,0358895299721597
0,0504002184286185
0,041854717177191
0,0363474317018967
0,0361700792307167
0,0655805522096505
0,041231167698681
0,0527609475658843
0,073675466522223
0,0445218437935558
0,0266923978385565
0,0882145971524129
0,0606361640649014
0,0367408839210441
0,0694705248143038
0,0575794213162002
0,0260616316338623
0,0499848901700034
0,0698527348696227
0,0481975972943434
0,0371380852629548
0,0399998589965738
0,0400707458097441
0,0582007872036529
0,0518732417552571
0,0520563119792028
0,0433136165632927
0,0225331457892078
0,0290784232205918
0,0783229462400646
0,0614541031944906
0,0645172757911426
0,0409424246421935
0,0287275251477448
0,0415189883700016
0,0814375150302441
0,0464204932391161
0,0428023222551332
0,0413776386043845
0,0452278859762373
0,0437460393404625
0,0514311849881653
0,0309252049465497
0,0240638009342033
0,0674774667454038
0,0691102073989207
0,0371775381677003
0,0402671563574854
0,0268733487123276
0,0280571329434104
0,0785510005680374
0,0770306531330663
0,054600254801474
0,042687653734666
0,0337296997943527
0,0667035800020446
0,0625450443488484
0,0516698966476999
0,0474573457542749
0,0448600881687306
0,0390377648721669
0,0425055345749583
0,0471827325859174
0,0443962838132162
0,0402391514740688
0,0443209185824735
0,0381945455445738
0,0437384901905443
0,0505150163384862
0,0471106180275266
0,045200681016465
0,0456680520150026
0,0346434930382302
0,0481519711906721
0,0600483338002752
0,0537744760360868
0,0415675616734444
0,0457701908872902
0,0396453978251054
0,0461131700765816
0,0437947922280405
0,0424952595471386
0,0316806818545977
0,0385041218159464
0,0593117154890546
0,0622986640171479
0,035798876282486
0,0400249692654024
0,0532051477998735
0,0583649036164043
0,0432681964248566
0,0477689397749529
0,0463797170892113
0,036944098509302
0,0336929287886778
0,067856287921051
0,0588323372965713
0,0461220467062339
0,0582065312537438
0,052354527626026
0,0487464604052566
0,0277903579156674
0,0271924602273063
0,0922795800248124
0,0478526047914281
0,0395597328755479
0,0969054716263527
0,0655529680134807
0,0592688862061158
0,0398292214114043
-4,56264607651331E-05
0,0980176434325073
0,102914608928896
0,0517152978214405
0,0407868016751975
0,0518431264868175
0,0458692854461515
0,0454776048184052
0,0494908709646881
0,0551555822516508
0,0534319819348468
0,10069292555845
0,0748923195036723
0,0366484790861542
0,0468223293093606
0,0817936982835006
0,0520906366396104
0,0523443680410831
0,0468012677416749
0,0415180320468112
0,0536063171159654
0,0569306682480334
0,0614973870982151
0,0484984213650969
0,0482866379935227
0,0648319260523722
0,0613438240905289
0,0332109348471477
0,0503080749464408
0,0553017100259511
0,0525170081463425
0,0442540223044186
0,0490631788880141
0,0515474349311535
0,0328933952469047
0,0313420892038116
0,0906842906638668
0,0628346597199731
0,0547307691696277
0,0638894159742319
0,0564323742272661
0,0452655480436675
0,049761315570962
0,0483507888951481
0,0499785038543206
0,0359327886849855
0,0394684178564827
0,0712767137608804
0,0603461325553381
0,0480847053712784
0,0537844063359113
0,0449967442095804
0,0508818314655693
0,0566985995578594
0,0495548778381779
0,0538615037488796
0,0548436941835159
0,0342376949734527
0,0559472755832527
0,069478613724795
0,0416253588894187
0,0655944500849266
0,0880007386102448
0,0581746831661275
0,0457875418925165
0,0520119749198381
0,0548794667839366
0,0477509305715746
0,0513973289408017
0,046483222325572
0,0504667119654899
0,0682254551252631
0,0575443679601915
0,0485071966425095
0,0420195287742979
0,0978604128776943
0,11017520691414
0,0812089086507299
0,0542991116678468
0,0387607022589025
0,0888252268943242
0,074943382515651
0,0838929133824515
0,0844663712766453
0,0694759319477531
0,0562356931451132
0,0650969940512097
0,0614072682303977
0,0607910155811549
0,058476217287234
0,0660637164177051
0,0652442353104613
0,0672139943950119
0,0654363637962097
0,0581097821094603
0,0572420147556338
0,0907936952769515
0,0809998675905425
0,0695539116274965
0,0662274414714583
0,0583093536128544
0,0780292423393071
0,0942633013154195
0,113854894900715
0,0865836044880475
0,0872879038760044
0,102517389961434
0,089674442423027
0,0787247529061231
0,07043603893909
0,0774721213207743
0,0882525835056848
0,0867111617026488
0,0865892755099562
0,0784565562057281
0,0893719638173311
0,0890893090951731
0,0977528177879938
0,0823029146268259
0,0875872038986179
0,108118355114961
0,0972616727310192
0,0969905641305883
0,0891764931452061
0,0886607098087253
0,144348402720294
0,134383468926944
0,0958629367016901
0,106377806402659
0,101915425194671
0,102563878361691
0,0984255954719629
0,114519906516539
0,108536074091342
0,10913348507111
0,121222016687146
0,118309858693613
0,128402863098721
0,120829452089599
0,1151484305905
0,140714345936334
0,119098699449659
0,123038211638945
0,154392532470812
0,135424237904382
0,116283274712797
0,152310560045876
0,133463141541615
0,14659992113839
0,142936694175843
0,141014286883196
0,126529859831053
0,141097039302024
0,138656267420659
0,132281721214862
0,147569402917083
0,157903189034691
0,150188934223114
0,156000838447158
0,147836712015309
0,158200485683756
0,160772377240487
0,15741795175413
0,167655497390696
0,172792563996033
0,167487615695173
0,17163580643011
0,148396019364483
0,18832556369734
0,183453517563492
0,209346520243991
0,200533074064159
0,178919910228218
0,177543108125722
0,194727992277501
0,169873863582127
0,181129156818442
0,186768312468129
0,204197581545698
0,192164010285371
0,202204706052581
0,194250454461411
0,204679091002531
0,199745961165989
0,206912879149126
0,208331151912124
0,200966755464175
0,204494615846008
0,220622080175065
0,203595875740316
0,238679486624179
0,228681346427172
0,246181791335821
0,248382040199831
0,238499242213315
0,217719254577046
0,247120903570881
0,226014611019132
0,231748648344905
0,233942536998665
0,245589607961054
0,23861308920562
0,255125792524932
0,25015923824591
0,265202226600548
0,258248241426675
0,261701885159949
0,262148297434011
0,288674092213946
0,264778637757839
0,275632315880845
0,265155932982872
0,268508355096751
0,287013953646689
0,290212688412264
0,283865833695753
0,280238419470461
0,27169027761918
0,283931956833196
0,288810113904756
0,300707875392202
0,297965133455235
0,30954272245864
0,296700275455492
0,313522397103853
0,318089859104916
0,333378395985362
0,319353013441175
0,321925515336508
0,324027349641717
0,330921728804624
0,318395993305239
0,341402376726305
0,331091143854474
0,353540358495532
0,352580547031324
0,361486336787523
0,34192456069217
0,362256839522213
0,344133083701562
0,366273973530889
0,357444040239636
0,373516735499474
0,370572564570454
0,369220242476884
0,372563100072109
0,37564208542898
0,384761017775891
0,401708974852592
0,372409042810775
0,410084822625508
0,39460985870553
0,414652871051989
0,41666865650513
0,433688818682263
0,424429610737156
0,416870085787442
0,40403482266059
0,431326154557213
0,426467753297234
0,43670024689657
0,443655975469686
0,449711277118628
0,410275406928813
0,450220439760085
0,449516407491541
0,444579962557509
0,454382988817016
0,461702044444951
0,444034686185338
0,472942894815516
0,464671736796139
0,488667816997414
0,473455125401219
0,494003764666443
0,46972093772199
0,488388957046508
0,47043912279771
0,501367092792423
0,504918864675739
0,535786965966439
0,494756254690674
0,517763627942286
0,491458626078977
0,521076564194762
0,512882416877628
0,515210639152493
0,512556772680387
0,545924738207435
0,510142650896341
0,551254786518973
0,542524511815699
0,547658921778303
0,525605013912333
0,550572644492119
0,541333545360595
0,555847383690309
0,532789223289392
0,568651122487902
0,537643121957765
0,576844653816
0,581171262909632
0,572904744079906
0,57336780057858
0,602883814527376
0,576707093986068
0,588634233753663
0,590191142868373
0,618905645544148
0,615127385653057
0,619740299398563
0,586165528325389
0,614618513384546
0,617283314181595
0,600540602307999
0,622063298926713
0,627595397733133
0,607860204030085
0,659314382528328
0,621481778865735
0,639694790603199
0,616301214260017
0,667776169897674
0,61781141939729
0,64782024290179
0,62643695856534
0,699056420936095
0,649388342237881
0,676546235240412
0,613650247228362
0,662999562478154
0,646237095532109
0,692485240239412
0,675074024007348
0,688957378259255
0,672443618448605
0,715223424532199
0,675304777527302
0,687891777200171
0,684451900854998
0,682270419486233
0,674517662309505
0,713377484072286
0,721360379307311
0,7325185715405
0,691168277916063
0,716366440837909
0,698247233749839
0,724624494499135
0,718371746790887
0,758034628304583
0,718164064274285
0,758544360424314
0,710260455246358
0,703035428724898
0,72058955614338
0,76472099526355
0,727381589994468
0,780745275488648
0,740344050138778
0,761378962141519
0,750550311572126
0,810093214026792
0,756223257505342
0,780406432358217
0,74718867099584
0,811457176614894
0,748850772606822
0,775816673753144
0,74052751893861
0,760336747896386
0,722374977963475
0,802542697060964
0,771632860644832
0,830582660995988
0,773757462323587
0,778002377930587
0,780556256007913
0,828021486680969
0,768910360156006
0,838169476316928
0,784760784549779
0,83937585293193
0,790705087637271
0,845366575215453
0,815776247016658
0,849631286013553
0,78640486118689
0,839935831836485
0,789749414127344
0,818626578893056
0,808376192828878
0,835406774933926
0,7870274888183
0,839591025240045
0,812785120203187
0,869194976574974
0,841582995195754
0,821832246910158
0,779421367139267
0,860007353038493
0,813571930099428
0,823658448043663
0,825206748603805
0,862975007582332
0,804817910496142
0,853087979821909
0,826711133777713
0,877430705816086
0,844135107322363
0,899998819715517
0,805077682600607
0,844224471679934
0,806053095944332
0,867601480191387
0,859030022695977
0,872974928522778
0,854491060222197
0,879449206917252
0,874549000496092
0,868618001799875
0,849168597984536
0,864046426097066
0,813191649621529
0,846263238953936
0,843814565676715
0,893722868219518
0,871878504016564
0,903035178431086
0,834592138755892
0,881408958638836
0,822207503357014
0,925151233158597
0,85706198474647
0,926939037810626
0,846403869882741
0,873201195585067
0,877453001571231
0,890596748118163
0,883137241776391
0,918991594626827
0,874251306556937
0,89655574981675
0,872198505736552
0,893900512727334
0,86249371479912
0,888363873671234
0,859107531765598
0,916866225524829
0,849366430149035
0,881179117949934
0,855382077712788
0,86147651711058
0,866974938840976
0,902308267555497
0,862533153371355
0,900049509081299
0,865950894732523
0,893876769269239
0,85718782410241
0,895532837367812
0,859833246728886
0,878886526266165
0,872258337920967
0,912342743743579
0,875147966171747
0,875292145481291
0,860701922448334
0,876476825478604
0,88476095476447
0,882847972456502
0,874562659691373
0,895416662556789
0,860798956133704
0,902554475483832
0,875973578761535
0,871382240827851
0,881299221814966
0,89714169936048
0,902891844180923
0,920025527317987
0,856621058207624
0,885882630699566
0,864223022444109
0,877321464680817
0,863713521263891
0,880685379570127
0,868222992657678
0,90265956641445
0,871275477221182
0,885308500961247
0,846992629825748
0,861604874056944
0,862113776455807
0,895473339048118
0,860180562926834
0,879719799316119
0,86427006248044
0,886942031464325
0,867811988830052
0,87418118744167
0,859281964414151
0,883957719581458
0,852993044617686
0,884645797446716
0,876060170950003
0,894353393013784
0,839646036724899
0,856591019723405
0,840903034629511
0,877293187052501
0,848092191179278
0,871791996683602
0,83527230171241
0,865197496319392
0,86093612690601
0,888209271718367
0,85288205884865
0,857781039810355
0,856942316015938
0,857319108011672
0,838449082635585
0,86977892820448
0,832356891640665
0,836877950045083
0,82090044046758
0,838056391563578
0,826172107589282
0,862047527111215
0,812089307497695
0,847000380940217
0,797372704884679
0,826822600740118
0,807963677177491
0,846443543401443
0,79350355402671
0,865667858328545
0,800345601029943
0,821644057611612
0,797820900553074
0,816964276472275
0,807463209929119
0,835148568955159
0,807115160044843
0,837176148336138
0,781273371209536
0,813259073832964
0,788012558147115
0,804251312769495
0,779142459894182
0,813687433860339
0,818038498928155
0,814953343794965
0,779634643047301
0,815651383377772
0,770644046380627
0,793953098884599
0,785909735705363
0,789536334008869
0,759543279229309
0,782370002111135
0,770222266353659
0,78311683329858
0,754558972584175
0,77218256023367
0,764151957229084
0,789842645244862
0,735616653829631
0,772880947009826
0,730097396615845
0,76624632543229
0,746549884263065
0,750587477590402
0,747767014672191
0,75651421056754
0,748182955803081
0,756347532032701
0,731220927652646
0,735312916132077
0,704211567995215
0,738624168950037
0,730803788332194
0,746472718412151
0,705821778932084
0,74323284331062
0,709640956161467
0,714748854081448
0,715507928237649
0,72263314796318
0,709870543522684
0,724307853528433
0,684897426069964
0,706979632199879
0,691614389487869
0,713580662795905
0,683865830403333
0,707929900882343
0,683778414049847
0,685267676595569
0,649082335022696
0,691807074172129
0,671551843512669
0,67159762559066
0,66625732828239
0,699353909146523
0,650647743233301
0,66091579289287
0,648879350500218
0,668267975919687
0,649972312631964
0,672629952598723
0,64337882750711
0,649170505209454
0,630319557687593
0,657456350920053
0,618097958723437
0,64107667530744
0,621146858546482
0,629610662619144
0,610943599754162
0,640255996234087
0,605284487096839
0,604033120071845
0,610752113131365
0,626356104867949
0,595150005183479
0,616656385041529
0,601635022621566
0,611795921302713
0,592570809951544
0,61935674065842
0,593654718952643
0,591971080818409
0,56989221346996
0,596112117179528
0,571392026367519
0,581738259558215
0,572337899168772
0,58325022124961
0,553954468614681
0,583104107718397
0,570420583438892
0,578771528759329
0,553222833066967
0,559395032070879
0,554131828150548
0,555304863889375
0,558051692039064
0,551958788844631
0,539977635361339
0,553239325776681
0,531778712152385
0,539504954411757
0,517335642579129
0,530556314112857
0,520663737763875
0,534691934011823
0,510464639925202
0,528604549854914
0,515102374719194
0,514707539108762
0,497073352933927
0,51451662233071
0,509138300659272
0,511610572308958
0,492839623925529
0,500247638493503
0,484597701630282
0,492136806707088
0,48319623454426
0,489610548015073
0,464886959303868
0,486075359735871
0,47556276066347
0,48463425842366
0,469502602579553
0,491414024382788
0,464867237150624
0,481225647838194
0,455498551242232
0,468549943607443
0,461334666111251
0,466658623933132
0,457555964217895
0,456701695034522
0,454521297654679
0,465251544387339
0,441723754329586
0,455560734864602
0,430238011311302
0,445938924647562
0,426702313915666
0,439384412827482
0,439655763423364
0,452553295524531
0,427948900855953
0,430001911516428
0,416695758342889
0,421614402706594
0,411347952762045
0,427027991011045
0,410659755550666
0,419661133331151
0,403532356909984
0,41167079297163
0,396388811347628
0,415822460927073
0,390634647286595
0,407824923524175
0,395345921960822
0,39985064907117
0,383122094999656
0,397476158869647
0,38462772558923
0,393844570207895
0,378845724751827
0,384410572156007
0,370335971959569
0,381892472669701
0,381182572784483
0,381060831655505
0,368539187492058
0,378686274200034
0,35736533299191
0,368062949958761
0,358572250077476
0,366891059271195
0,360936175879875
0,362947408692048
0,352329521850216
0,361197950069563
0,346490427167806
0,362976625478365
0,349293053850873
0,355057128600568
0,345361779244973
0,349617849894868
0,342252300478407
0,351312799512488
0,331741974531496
0,340684284464813
0,329552172586547
0,341907528866478
0,332953049950722
0,33987875140729
0,327454468323583
0,331644914584664
0,32171074392255
0,329926085737537
0,316051286536773
0,322981407866925
0,312653142976532
0,311481791752309
0,305318861336204
0,31430530818903
0,307953320568352
0,310038632086565
0,305599758449736
0,308228328704565
0,298774229284447
0,310119483521477
0,293201824398952
0,304885672082368
0,298627312952041
0,300370061064624
0,287355878297304
0,292583425300325
0,281010198210998
0,296422272938753
0,290955123963282
0,291650461617446
0,274256400374185
0,292312499387363
0,277212123262477
0,28388521621466
0,27998400512877
0,290327308365811
0,272615998675089
0,274423063452306
0,267755559333437
0,270970955321115
0,269633638882333
0,27704916284261
0,260295730734881
0,267635576572194
0,260521165624401
0,264925994390129
0,256811730497084
0,265830718601822
0,261699492261701
0,270450213181495
0,26061747966219
0,262794523950966
0,253413929796409
0,265013252138406
0,248499241338961
0,262756990883141
0,257556396178335
0,251418814052285
0,253539290249157
0,253312675203515
0,246718067950529
0,255883957112484
0,244017244290987
0,254203138706561
0,248306136864612
0,26523472047848
0,250250923428898
0,253641682755094
0,249870871880392
0,258203964025706
0,251898779298614
0,259062852601975
0,248814715685652
0,258340090630799
0,256191702384942
0,261675881452758
0,253607381363264
0,259178871836553
0,254794258107259
0,261068848681283
0,262829144401276
0,263630431388068
0,262307159378863
0,270593104286553
0,263849289961326
0,270782511029547
0,259508867180428
0,271553374356805
0,266322784264509
0,278102435573527
0,267936192429412
0,283021823319069
0,267999146843252
0,28428165247603
0,273090621429603
0,285271013041092
0,280511984096366
0,287282336916322
0,276484638716955
0,29247698609059
0,28071863428788
0,295716100170035
0,291126486127859
0,302776160510297
0,293695462949684
0,297858235630533
0,292941719783907
0,302941333000969
0,302216051780904
0,30933052340113
0,303824233187517
0,31456352296304
0,305929563848424
0,316242355486315
0,309235900483591
0,322132576759897
0,320439831309552
0,328016180672317
0,325472441578011
0,333505533914914
0,327488443776298
0,335808180313771
0,334390806962055
0,342407738000721
0,340099461948315
0,353101528145729
0,337476005541679
0,355283661797477
0,3447044525833
0,354587587121725
0,356831148099496
0,359699196383418
0,350751393901895
0,3699702877529
0,357742055962687
0,367802185457672
0,359720296719112
0,377671208536555
0,357785818993841
0,37079499733765
0,361274607482985
0,367595946940763
0,362977894161668
0,371619093757669
0,35922316053781
0,368220934956719
0,361059594380122
0,371648158833704
0,358315957553959
0,366898143140474
0,360437977636857
0,360757715068395
0,354124864618791
0,364707141274664
0,363177219090057
0,370706910659716
0,356493690036584
0,364901823937232
0,363484641502013
0,369350442737823
0,358203397650659
0,368612110926634
0,359190133674104
0,363419654100927
0,365542174103565
0,36784860735991
0,357658698159762
0,369747759615255
0,359754932171082
0,370068077044646
0,364193706136586
0,375466106519375
0,361779347320968
0,365322092021949
0,362945799730416
0,368270538135369
0,360367031535826
0,366847818041398
0,365909787923494
0,375100952512059
0,362858086822795
0,367182271712097
0,35941505488737
0,369638364306128
0,364722246791109
0,370068536984302
0,360366124673965
0,36838765175266
0,360402526462241
0,368538377240772
0,356756301059188
0,368274327045963
0,356853527601705
0,363713443308982
0,351867069988204
0,355898702242601
0,341940378222633
0,350416384317279
0,345767675667614
0,343421407309412
0,338908160943021
0,3440913285484
0,339574795365984
0,341874010606403
0,325873280510761
0,33614513167928
0,326383020737145
0,336518228823091
0,319802288315276
0,322203750755913
0,317347249477654
0,322875698658679
0,310361738684696
0,319170351876294
0,306524493706765
0,311207233544471
0,301015924456159
0,308500302448774
0,293632726190303
0,299901958658579
0,288798808478595
0,300086166435013
0,279930096182764
0,290987282940436
0,28632010392023
0,288900742129152
0,274717042994383
0,284243317718377
0,273108818326144
0,27745410211407
0,266790216160585
0,273323955303197
0,270156347817696
0,273413503276014
0,263198952658789
0,266090940057857
0,257026407473283
0,25916891719811
0,250592688955776
0,257962228117916
0,246956342632828
0,254926440464261
0,246912318326932
0,248889432760811
0,244212872877553
0,250223233747311
0,241393657020698
0,250788714583706
0,239041220406664
0,24166728340554
0,236653403276887
0,240610129110514
0,238513024177289
0,238532342009726
0,227519814619378
0,232547934296523
0,228934490523896
0,238269279376155
0,225830559347165
0,230966515066322
0,225887792671712
0,226240663045838
0,218088205254509
0,227541899666575
0,219531936825268
0,223808796123313
0,21718284727385
0,227282881531522
0,213600664566724
0,216730618834942
0,211409472857005
0,21837970944581
0,214540090274607
0,216698358811979
0,208895014419811
0,216211359058208
0,203247184832432
0,20638731825936
0,205013191090697
0,213800726583379
0,20472726000859
0,205853078376789
0,20317506501466
0,206878888352052
0,198225205950031
0,2053976872105
0,197860185602778
0,209712514515222
0,197739892109162
0,199482419611664
0,193195928818876
0,200540659665754
0,197020954698245
0,201767227975586
0,194701794070784
0,196224413925193
0,191830519149103
0,195756543199031
0,192021133768919
0,190060489365745
0,189453069603684
0,195163907867644
0,186607981508149
0,195059439484167
0,194792406985062
0,193971069589076
0,187920621817329
0,190611153065464
0,186755624491488
0,191090938373596
0,185761881097019
0,193553661597472
0,179908757230103
0,190964157792062
0,181730657929493
0,181270447314582
0,180729640931642
0,182967735305677
0,177137603037564
0,183616830531811
0,178733431835736
0,18255172459935
0,180012635333494
0,18325598898117
0,176960502829937
0,181849712069085
0,176196906565499
0,182303893120968
0,176329501157057
0,182162190926242
0,17375689416754
0,177382779764471
0,167704161265715
0,174314970744664
0,174614603732145
0,182453122553198
0,17116285450673
0,178180309908649
0,174107776505898
0,17619189054303
0,169587221128372
0,175226446919136
0,168257869654442
0,17737873297115
0,165646401458851
0,171597148167192
0,169958701258283
0,175665133079404
0,164465098456663
0,171449781147583
0,170673487370789
0,174423056186792
0,163246096185566
0,174888038425395
0,169607798779665
0,171532675672893
0,165563402667787
0,172346084650434
0,165698570438586
0,167745187853372
0,161150544217235
0,171509970740041
0,166746239061041
0,168079510153538
0,166650089253616
0,164057221441471
0,16676799294121
0,165530015069094
0,157507823089667
0,167806269329853
0,162853104333617
0,165637351001525
0,159325157897137
0,164465643561768
0,159116871545624
0,165240716847606
0,156476264715663
0,160600119941132
0,158515439510882
0,162452552145426
0,158990704760517
0,164234246490721
0,157911494749395
0,16017879954027
0,154407754903043
0,161799425974855
0,15301343791856
0,1592667562209
0,155192745207798
0,160190707174595
0,157318353614726
0,15409967134129
0,157002569640902
0,154451753018833
0,155122507719878
0,157380933671931
0,150154369100645
0,153950855621596
0,146205029078556
0,156301328345944
0,151650227148312
0,149852826756938
0,148296455173278
0,152124224129402
0,147985230242697
0,151531104134834
0,148257492035276
0,152211539140848
0,142577518276278
0,148908536925836
0,145019963057268
0,150246900603639
0,144587727908642
0,14624814098577
0,138983730730757
0,145943642628637
0,137375230360731
0,144439532978707
0,141096779298316
0,145326254056211
0,139494066691106
0,14709618001089
0,138671716643748
0,141380646623965
0,138018009191435
0,140593060339672
0,132196863507897
0,140273581160513
0,133280165900878
0,138171507715287
0,132348581709976
0,137032671569105
0,131996130246181
0,136638133416654
0,13138651452261
0,136342425265217
0,131686306841771
0,135598272439825
0,127595319539996
0,133209593733744
0,131025357209543
0,133716371235155
0,129054872044481
0,12764937185627
0,124496941353105
0,126897697367708
0,124976684072494
0,132608897610691
0,12423736392315
0,122873125117704
0,123018915963586
0,127070460319251
0,118457096970762
0,122056541516547
0,120794916258937
0,12489931638333
0,120377617195215
0,122510214733814
0,116561295187212
0,117114603805355
0,119248189478531
0,120506984940407
0,115331767564343
0,116784675571116
0,112682008511249
0,119120004667996
0,111391393072001
0,117781189033367
0,112199366488455
0,118672134727703
0,11461464934375
0,115498410912864
0,110964646086484
0,114326918875446
0,109815882085369
0,117202560637592
0,112476565274075
0,111842484075112
0,107577409529727
0,114983379345325
0,107614035012532
0,11243692315689
0,107403181307747
0,111875976287252
0,106271055986921
0,111648424851531
0,10824688035183
0,108753467517617
0,100379142761075
0,107976520267211
0,101283754309302
0,107697201191054
0,101939133530828
0,105356200862502
0,101555618293684
0,104171600935407
0,102414710589446
0,104871419884707
0,100289645819354
0,103213699092739
0,0997291845697274
0,103209181931263
0,0986643241869806
0,10422799282303
0,0970999808800356
0,102941133913853
0,0979755127883386
0,102763615542186
0,101799260700305
0,0987008977126103
0,0952856921638286
0,100102855526976
0,0936174642330184
0,0960317523731222
0,0970909809751474
0,100588204000332
0,0975090412658793
0,100660774144265
0,0972239498258424
0,100073367505598
0,0953540035840048
0,0981179825268036
0,0970433446986691
0,096964528669354
0,0939069296664776
0,0973693159006157
0,0898347594949147
0,0955766371173063
0,0894529036900878
0,0966416999947679
0,0934059466004274
0,0976244019245758
0,0928003450500305
0,097745271457606
0,0945044326633232
0,0957097963897409
0,088785393755272
0,0934142675606596
0,0889094148111281
0,0967489282965582
0,0929987719658908
0,0937202188922033
0,0926757844083049
0,0951320815539005
0,0886916967279169
0,0940084065019286
0,0896689868581688
0,094593247127483
0,087912036780918
0,0911964328348575
0,0887142609675958
0,0912993277065145
0,0893668181597067
0,0935536855735508
0,0875781518218329
0,0908386668112095
0,0894987327380732
0,0907997213377277
0,0887341871844066
0,0888075860797332
0,0849031191537129
0,0896696188763968
0,0876301895146199
0,0892793818217815
0,0851743928694617
0,0886685920848867
0,0841570730142703
0,0888293748546552
0,0812499897309008
0,0876942779027869
0,0845647577446915
0,0872159687305143
0,0837613273399261
0,0850183939733021
0,0830910505157934
0,0858671308947733
0,0819089350333541
0,0854245786078396
0,0830886037102059
0,0813501994384457
0,0818919488894127
0,0861714276671801
0,0798369112310205
0,0844019089556143
0,0815176331345558
0,0810740249590337
0,0822355751193331
0,0869849090309185
0,0826754738713861
0,0824159245840212
0,0828963176942268
0,0827290481491837
0,0806441236237647
0,0845012885906884
0,0830332023357517
0,0845924485731193
0,0806166141722436
0,0813120057402978
0,0784022607855918
0,0840237037656676
0,0796018620203234
0,0823308950793476
0,077686020520476
0,0795396185288818
0,0767822151562811
0,0800414523314558
0,0782239988153622
0,0793866545265026
0,0746140524805859
0,0798910799564992
0,0791646890232429
0,081893217306973
0,0778257651988273
0,0772600052932324
0,0717193654060077
0,0784729289220566
0,0749875989776825
0,0754757623724714
0,0736415448379182
0,0778919091923362
0,074026581215338
0,0765172409621289
0,0730350816061734
0,0759756680930407
0,0719519990274307
0,0778474293811898
0,0716476334471966
0,074445344518286
0,0709052399854034
0,0743251198623364
0,0667496599721021
0,0727415397391925
0,0717318923979288
0,0726568862074946
0,0677306413896632
0,0712636145868214
0,0684934687916795
0,0699404025506125
0,0672632355904136
0,0698965918409152
0,0656948487161603
0,0718943868261797
0,0672843719952776
0,07081934994781
0,0658336450786222
0,068415892996131
0,0663375135330036
0,0700586731836445
0,0668684704945571
0,0684052712838455
0,0667233263522804
0,0659018199342283
0,063918693129124
0,0654510424319657
0,0638466903475849
0,0667128683429346
0,0618250125221323
0,0660560258079679
0,0622047799381348
0,068073401999667
0,0625217008837031
0,0649043734550231
0,0608634215790719
0,0654816096589364
0,0604033783545177
0,0624195852777799
0,0599110385853415
0,0650161221929248
0,0618081655646249
0,0606644065126827
0,0621458935224743
0,0629151558944375
0,0622165392808044
0,0626248697993039
0,0577092094175945
0,0619502823424367
0,0568807116327103
0,062059711401628
0,0569397090616963
0,0612959404575567
0,057895371060128
0,0606807917630716
0,0591370564553581
0,0601144722369402
0,0521630429938269
0,058028718576848
0,0572707710130803
0,0593515328729505
0,0559076278233834
0,0607842221337899
0,0536700132254151
0,0558839068975789
0,0565818566125974
0,0576786496603062
0,0540717403264603
0,0554925697760319
0,0551170713978614
0,0557025538618426
0,0537985181218672
0,0564555617778322
0,053857202590172
0,0556177567630867
0,053975835315322
0,0562676359132985
0,0560982184259276
0,054573968446478
0,0530870358095476
0,0551903914433544
0,0513350029974762
0,0546415688706541
0,0493822375106631
0,0531813502672027
0,0496051061649226
0,0551206727869801
0,052109489948593
0,053059818119616
0,0524134443164046
0,0513029259674685
0,0500256907739709
0,0536095749640322
0,0509371011526384
0,055408933774445
0,0515095498441001
0,0534571570365332
0,0518752412387429
0,0532727869299378
0,048377626906497
0,0527683854963393
0,0471046907108487
0,0538815662832207
0,0504541179275088
0,056308104076492
0,0511123689704415
0,0515795680433668
0,0463322247340454
0,0528726914330983
0,0443756598571331
0,0535823098379425
0,0554284534877128
0,0615236003034036
0,0509238178773594
0,0536274903908632
0,0504309121522588
0,0600905092323389
0,0493146725202381
0,052923673896613
0,0512578349905476
0,0525721613976681
0,04815614925992
0,0587602899174215
0,0496456014237122
0,0564576662664215
0,0472764609396498
0,0599315608086041
0,049120692667181
0,0525952130015925
0,0544523578737894
0,0543449746876819
0,0466724825284301
0,0520874891310645
0,0483633269840134
0,0535840718283002
0,0531575939544488
0,0598847330662306
0,0425016205377312
0,0579558940748161
0,0456369033777554
0,0618397221613224
0,0439817264934078
0,0616146575146467
0,0396913004479073
0,0600214039056114
0,0334862320695656
0,0610822370955768
0,0310965730414591
0,0678024772529569
0,0371200444911553
0,0697653425604006
0,032193155669967
0,0662742464258335
0,0166981675405681
0,075057408250131
0,0255263506766901
0,0757967668611929
0,010994007429248
0,0776954565929644
0,0185981973432197
0,0805778313888094
0,0131288894277007
0,0717622464593627
0,025171259157382
0,0738010895207702
0,0236070769711146
0,0574627553879463
0,0396575850119899
0,0511332677545842
0,0479626247267941
0,0450856626693542
0,0538446403333553
0,0380537104470289
0,057811635281128
0,0357100155501349
0,0554995642160028
0,0383923869827259
0,0512418502434085
0,0441091121085887
0,0426034296717823
0,0488050205160583
0,0412226509681686
0,0467325197486771
0,0395109132089352
0,0449674451797464
0,0432672395259519
0,0433277477446284
0,0451638325174003
0,0424134889080175
0,0452070335749939
0,0415078162034446
0,0434507029814608
0,043665828128031
0,0413673016750071
0,043962211704862
0,0421713976833195
0,0434628452634061
0,041990114896713
0,0414571240517848
0,0430517991505626
0,0436030764657705
0,0414491104859779
0,0405856003078395
0,0418080860581338
0,0419528533115152
0,0418819575586605
0,0440421876637254
0,0422730544898559
0,0422698213679164
0,0396451500027484
0,0425441691358333
0,0412469746203892
0,0417736788926378
0,0409430046897847
0,0421330771573668
0,0412165371603312
0,0427458096714798
0,0383073059204588
0,040992579933517
0,0395906266048688
0,0413856567028673
0,0417688533336587
0,0421444818766936
0,0415847668497528
0,0435062477196784
0,0425684506280174
0,0413006954289155
0,0407488595557013
0,0423849580655044
0,0403844223641911
0,0400486082798989
0,0431290626755339
0,0433010852019956
0,0434971874649274
0,0410591735345079
0,0404840416621534
0,0396321221669303
0,0427412057408142
0,0438077701783129
0,0395970967083219
0,0398064673423551
0,0413274076671321
0,0407555784482964
0,042509004133546
0,0424510835690699
0,0409039060466675
0,0414494580475012
0,0397178709612897
0,0404739658557261
0,0399731780832039
0,0398840415840465
0,0393701544951608
0,0419488542118119
0,0408023158388331
0,0400032171610482
0,0388168518173976
0,0421925828511078
0,0404081751296797
0,0423756231844329
0,0402634216093782
0,0409833630793609
0,0409230419753665
0,0424724953320002
0,0399636369369414
0,0415294449827117
0,0405105512511388
0,0390377211586607
0,0403807186821839
0,0436915995592497
0,03995704328722
0,0431935526000428
0,0415710079478808
0,0409171547489959
0,0405876999663804
0,0423648103499668
0,0423155137454864
0,0410700315651674
0,0409514940388994
0,0425470111405291
0,0393667883205596
0,0418852667260196
0,0393109888088198
0,0419620541245499
0,0419724849321105
0,0412204396775011
0,0418083963026325
0,042166582726727
0,0402025093375303
0,0408394949424773
0,0410292074559225
0,0427848312022364
0,0400929275413723
0,043828272783613
0,040934347648341
0,0432127360953721
0,0411028936431057
0,0411532752925927
0,0428850376835262
0,042972436830564
0,0414271777043179
0,0430930471135564
0,0415132141054052
0,042877901397097
0,0426018147266359
0,0458716304358598
0,0393559654277402
0,0425071608884191
0,0421498543857604
0,0418368198412401
0,043812703499552
0,0414376046496621
0,0418298127707014
0,0432131760572574
0,0410043784708886
0,0415161444108443
0,0412744846799407
0,0425423398836803
0,0449330482999291
0,0433809907442901
0,041909490874577
0,0412629125809264
0,0415231525776137
0,0439414051656579
0,0428553981190668
0,0444151097747224
0,0424292004572006
0,0426817193274779
0,0432453533095936
0,0441979557118943
0,0444908152604652
0,0454638218759479
0,0447165160372686
0,0438801750179411
0,0420160074959201
0,0431659712401977
0,0423351234134585
0,0433642729873961
0,042894075964407
0,0444302535166885
0,0421841897791105
0,0451081327149066
0,0424542055532807
0,0435119927497905
0,0434429585190532
0,0440762080606509
0,0440666844908804
0,0447058336158125
0,0433877013914796
0,0437772677155118
0,0410564847451687
0,0407295081650434
0,0418087693918203
0,0449656005649017
0,0434329098348819
0,0416700536515568
0,0436226234829409
0,0453947416715451
0,0420623144414626
0,0414067375395928
0,043501090809394
0,0452198443142276
0,0406366215093865
0,0416166373309266
0,0425506630724172
0,0395561396719557
0,0413279330545931
0,0432118818147801
0,0420125201839223
0,0417535083935405
0,0381468009758428
0,041368834694839
0,0409596554166101
0,0419205507886844
0,0399661426363288
0,0411754177538752
0,0422932423224106
0,04245935542977
0,0386318021973529
0,0399383139176017
0,040079279838534
0,0421598211627698
0,0411490940419454
0,0422737908906986
0,0423701043562963
0,0400643469018085
0,0421452732571156
0,0415248857281753
0,0412927816342986
0,0407091257560072
0,0414104854834893
0,0403157960112104
0,0378281219586616
0,0394039612520524
0,0386519574385648
0,0397083484241591
0,0374691296444951
0,0388895486010911
0,0396597267781644
0,0389710332189803
0,0376802905334449
0,0398514849096201
0,0378112369981014
0,040750578067507
0,0395135016042632
0,0411537693013586
0,0390858104879315
0,0401226647448638
0,0389781657383441
0,0393565093228783
0,039465345609801
0,040934339630907
0,039708068422766
0,0403501042973207
0,0400127306312716
0,0383833529392098
0,0394856270532671
0,0385715414912647
0,0386266792353643
0,0408438831092531
0,0363095511645064
0,0381131903575817
0,0389023193432178
0,0372129968580416
0,0390612085708459
0,0380171710032726
0,0377704682832092
0,0391158528677041
0,0394897397534169
0,0385704950114786
0,039354968714547
0,0407110395598884
0,0378006233861642
0,0394363565176583
0,0371221267478963
0,0363482713690143
0,0398049132077346
0,0380481650987123
0,0387866743708679
0,0401284553942835
0,0373297349660004
0,0381189109216252
0,0387511965083156
0,0396417132148809
0,0375963093097399
0,0402006815898824
0,0378720449098691
0,0397232851458678
0,0376288068685057
0,0388140637269776
0,0368561176828322
0,0383638940319732
0,0370286410459629
0,0386665560227895
0,0371796282356279
0,0380977232599573
0,0374762740581348
0,0386702405144806
0,0364711342336633
0,0392794166072
0,0362946336498482
0,0389223971092528
0,0377190336815516
0,0392066707416248
0,0401859985575893
0,0362667760790079
0,0366543299132378
0,0369486733455895
0,0364156608211236
0,0359025904584463
0,0378695148364314
0,0373293308300049
0,0364855362499349
0,0366506720936845
0,0368575582008833
0,0354942636611787
0,0361320168319519
0,0374401393851183
0,0362696790231797
0,0364547214863956
0,0367548361008732
0,0337200412348395
0,0363342818761461
0,0359708586632724
0,0390143053034537
0,0350800610619391
0,0366894146521935
0,0329659652657935
0,0376058382878877
0,0377139133782914
0,0374064234551223
0,0336267415939066
0,0347875968590495
0,0376086930923011
0,0345968145906769
0,0341349243594906
0,0342074095396143
0,033797668061219
0,0330651149164486
0,0338764062449912
0,0336243059680904
0,034149323760289
0,0338278132887217
0,0347671148120536
0,0331593775119842
0,0312462772331331
0,0328170099653438
0,0333762554280218
0,0340372080510128
0,0338801550845776
0,0324314876405102
0,0328644382240672
0,0352706372866564
0,034391364553179
0,0289563963972837
0,042603699431128
0,0379992483729384
0,0353133768443206
0,0322259269388791
0,0337207111036426
0,0303711150177613
0,032432304207806
0,0301418257985389
0,0350268118034764
0,0309661958021143
0,0324731766507925
0,0338096277608218
0,0321706464550537
0,0304307657047434
0,0321369038776361
0,0316913451299668
0,0314457879459488
0,0322029445396343
0,0323878941849693
0,0317095793954968
0,0330671549650539
0,0300570921759068
0,0332024025537834
0,0286124540721898
0,0340009231970643
0,030853746880457
0,0337065984529903
0,0338718722030502
0,0369406805060015
0,0322250932602274
0,0322871710554192
0,03145455183955
0,0327370553369582
0,031079547614589
0,0320977214763888
0,0303329307818023
0,0308351190040411
0,0297924864811476
0,0299146869497914
0,0318189475655251
0,0325300604187556
0,0334137524197053
0,0320554224920911
0,0278605803647842
0,0307106278357032
0,0282723588373206
0,0304158436950695
0,0321926296351618
0,0307954122134473
0,0284248566758917
0,0290420342865554
0,0336985999934196
0,024024698374394
0,0353693608027261
0,0310906679204815
0,0424168886196119
0,0279055813121882
0,0329302872380211
0,0286840380303951
0,0304458905297462
0,0283098552068695
0,0313561166883615
0,0291336038028348
0,0305221503210867
0,0307818307244386
0,0327597857698656
0,0296975057067597
0,0304051498032194
0,0277474709820788
0,0306682759392164
0,027286980426574
0,030445858227078
0,0318510008720917
0,028867402937219
0,0298421295849264
0,038470877457899
0,0287330742722558
0,0353478022552107
0,0214455998286534
0,0331025394583567
0,0347799277507036
0,0356460310370083
0,0324057005910524
0,0236930520641176
0,0330603858672213
0,02756316777606
0,0316345016475676
0,023199090832805
0,0334855487176085
0,0274545989817306
0,0363994756780654
0,0283142027049444
0,0348902154484069
0,0294780316584368
0,0295822319633232
0,026983412680912
0,0327235173757238
0,0281445646717216
0,0290748210057185
0,028729619162323
0,0284590870661895
0,0286810957861447
0,0272527744098612
0,026057608581627
0,0335700018999782
0,0288992936333843
0,0332962767348137
0,0263639421988731
0,0334213894485334
0,0218515896218335
0,0357125183928502
0,0275168046378361
0,0375018059152541
0,024550674275601
0,0331054609988616
0,0296084747002046
0,0319658680982671
0,0291596969003111
0,0310235662787016
0,0277642257059585
0,029675786817824
0,0290062073745924
0,0293149553400678
0,0303404025933034
0,026312597899055
0,0294137820315344
0,0297102905405514
0,0302648021422145
0,0268880091360309
0,0324867535665539
0,0272573610746864
0,0292234049761045
0,0338665201910173
0,035297114266468
0,0450272105086613
0,0313167793994348
0,035820363522748
0,0245665206682901
0,0345700315099327
0,0244149685306089
0,0320452391023006
0,0272973763933313
0,0313793123472427
0,0269234646508892
0,0357738801562691
0,0259922997726071
0,0315742923557233
0,0275117537211848
0,0343945656768792
0,0245636494774105
0,034694137958243
0,0257315086161103
0,0329814621593137
0,0261791137845848
0,0304175207654077
0,0313988818766202
0,0343597950250866
0,0300378323280119
0,0213147973516228
0,0494728932244186
0,0369629606512568
0,0464278407583086
0,0270970086390504
0,0356382936645192
0,0254877876993235
0,0297923444324712
0,0284044529218936
0,0308165158107723
0,0290809725013586
0,0318186436233234
0,0274690139360888
0,0329912509946752
0,029743415925848
0,0256329788872744
0,0339163860051523
0,0480081358974532
0,0382108340585321
0,03818064025538
0,0194242346739568
0,0438690566998335
0,0364535591693343
0,0384474331252621
0,0311437935902956
0,0329956363127111
0,0326085896565972
0,0326396549187211
0,0303880151617993
0,0292601038557436
0,0364892177871577
0,0284082115910233
0,0320506576639224
0,0255725426948183
0,0329655552981476
0,0312098171857902
0,0309888873426693
0,0374099522966511
0,0383244109789467
0,0345805101008302
0,0355655369116448
0,0336635481012684
0,0336898897155191
0,0298162227453104
0,0357974800914229
0,0261605974149784
0,0414591949790297
0,0322819287358214
0,0379285139793866
0,0393707693873704
0,038521816179967
0,0352857792757008
0,0337602158669687
0,0352456705259337
0,0439017884364346
0,0167371883933506
0,0509656078201728
0,0266800557760707
0,0655108372528099
0,0330933231623291
0,0479603652594825
0,0297919202390366
0,041834651063765
0,0260187477430241
0,0388173188029539
0,0471266134903941
0,0346938826154908
0,0415398897393517
0,0241938728886764
0,0490259435664042
0,0374090142278274
0,0446205389774144
0,0333532333437587
0,0369203312716862
0,0298852080203423
0,0582054025845628
0,0277820107557571
0,0420353073110689
0,0317582420480408
0,0550429505126745
0,0618969235874317
0,0346566630726316
0,038478300141571
0,0471188575978927
0,0476910782010029
0,0444507457642581
0,033307104946128
0,046104616617692
0,0247505058951035
0,0470730773153896
0,0519551933180545
0,0440193586241057
0,0465601242190001
0,0353975817431238
0,0380351654730785
0,0527312543606981
0,0446555197987817
0,0428629645863293
0,0400970688165455
0,0421502509617696
0,0249254011653488
0,0916767997719672
0,0308471320318777
0,0741141885085348
0,0309219172724428
0,0703071289088711
0,037093281081623
0,0596926181886463
0,0343083583764028
0,0626786431358532
0,050502798370092
0,0596787654536357
0,0271201825840126
0,0732859716265768
0,0480259289336904
0,0611607663494055
0,0492334982602811
0,0508571024715034
0,0385210205215587
0,0650322851250573
0,0765775693633473
0,0864171922982019
0,0508962430914473
0,0569622486299298
0,0683799627995194
0,0577997311743584
0,0574564371448823
0,0535945877670803
0,0617606633180033
0,0519609263878637
0,0539570122865823
0,0646735333575577
0,0572136356080268
0,0700943215775078
0,0519205225267152
0,0661469569644258
0,0501047927613077
0,117114292328165
0,0788469708910456
0,0736385971529314
0,0786509131231756
0,0819376377595826
0,0821394864836932
0,0651364565942325
0,0663879669045772
0,0723849874965074
0,0785245408863585
0,073849797364204
0,0647215821328044
0,0949673772611382
0,0679072565177374
0,105882970960223
0,0758626107106219
0,0927044229194078
0,0624529005149696
0,0789151528921658
0,193097192230388
0,102505892708912
0,113672918438665
0,0768544052273399
0,126645633488838
0,121494651064939
0,116877539316018
0,103322046500555
0,109873262776539
0,106518159536572
0,118713843106472
0,117961840534762
0,126868246606218
0,133982446707916
0,129034526255532
0,12466779606246
0,131257524468628
0,142845506591288
0,206573754956469
0,157277043070823
0,152618288567124
0,162807084432966
0,170370159730184
0,161068127558977
0,179831039198413
0,155155623160121
0,197839994515387
0,183853805819983
0,20240204807239
0,180505767723809
0,201738174155064
0,21440964657119
0,185608880810981
0,257601499127946
0,207912481247127
0,238405017701564
0,207663089370078
0,238232818473014
0,218036117566963
0,230417603261326
0,252236426566598
0,249029337516136
0,250736620506305
0,245468068262443
0,249853717321423
0,245903938419272
0,257306720347274
0,258065515147711
0,247173648190816
0,272074954481468
0,230932414906975
0,56490390622443
0,269313739473646
0,287049624185349
0,254371815724585
0,277436255022007
0,270962701693711
0,269494927822673
0,337651206264367
0,275347538593386
0,270427154838105
0,262599857094942
0,270298977105133
0,266613314397725
0,272466984143752
0,278180445627
0,257641094399985
0,30635569738706
0,239237514571641
0,345586314599673
0,282722283727938
0,288003506953895
0,255902852849445
0,269525103371729
0,255579251238839
0,270678138485183
0,247426871156097
0,281543839727307
0,263431375039748
0,266500374691329
0,261266590968769
0,244832767892247
0,28144922642108
0,259857170100161
0,256557971381408
0,249248596909394
0,240348141533385
0,260155301040135
0,215273468687993
0,266059608328893
0,266736583615947
0,250107443579231
0,242284234558896
0,237709806945898
0,234061093850981
0,238919483795141
0,228948612198478
0,242176527198872
0,226405593698942
0,236876463181444
0,232329682907075
0,232696368053027
0,23082342515021
0,221953706737918
0,229621327796
0,227212205182608
0,228325933137773
0,226017641785638
0,227527796545914
0,229934610304484
0,225090271968144
0,224129126739048
0,219039749845138
0,223708033865744
0,225579830205949
0,221928982444084
0,22899920284686
0,226715206498573
0,224553305542972
0,222125607550492
0,224503144651276
0,218624750309672
0,221884146824125
0,217208380501808
0,219192350582176
0,217328429929916
0,223712102894505
0,21656866941978
0,217833737368054
0,21506783905481
0,215076084881955
0,216096512766435
0,19788922404739
0,285189645134221
0,213262545808083
0,223073556510398
0,204446836835769
0,215921347922523
0,203331331140046
0,190720834166021
0,232605622517192
0,213669924838592
0,208896319771704
0,19525441114443
0,184339529468359
0,22069098356149
0,197721721754929
0,197066252277547
0,194555353018521
0,170106942429207
0,229649391304862
0,162393148608777
0,315231340567157
0,221675385656727
0,215008991415565
0,173274065415533
0,212978897533831
0,199714605126748
0,185929560941776
0,188370155183089
0,157626649925787
0,233911088248423
0,184801099567553
0,190451957252992
0,176131936347647
0,167728093874954
0,197355642709315
0,200431940234023
0,177034489588751
0,200516392860035
0,190376309434011
0,182874881974407
0,215454436451288
0,208975895310329
0,193450017953448
0,168964757331733
0,178001672352883
0,164037233287272
0,162354163240234
0,216085349979878
0,158526520358133
0,184379483049105
0,150897080409277
0,163577255542003
0,144905501373
0,180218468286225
0,146675382146655
0,162252660601552
0,189717089834878
0,140260021738579
0,172010283234631
0,134910189628089
0,190325642970233
0,181040312392379
0,167689133972072
0,127861565136754
0,184950400613656
0,165103669699818
0,153558600966633
0,165391421046273
0,130974737423114
0,146413945568552
0,161415906708486
0,128425267130103
0,162603608108587
0,133636085651155
0,154563940925935
0,146870689534881
0,195109644762583
0,183508571697959
0,149628370750935
0,133807660133653
0,134592450476951
0,132015133853128
0,144331192051721
0,114744802811063
0,189657113425667
0,122176640357032
0,13839878295629
0,172812426967781
0,144945724994795
0,137596384616201
0,145237817244203
0,134653963417056
0,142486013229618
0,142141326036765
0,195415459604051
0,13930815489557
0,175511751956826
0,168851902423417
0,163512399065511
0,155978099237772
0,159942679702607
0,165251355401298
0,165547015300124
0,182667952743221
0,175094812979785
0,172234996495743
0,185872420066215
0,164976793303278
0,218037028488121
0,206509553502917
0,182837823146238
0,238586031543458
0,182939328437572
0,285878020542506
0,207279326073436
0,225581158363911
0,217436005465778
0,21997908979788
0,233047536640922
0,216890361078365
0,245945169800551
0,262942271101387
0,235945534117507
0,25105597761164
0,238133865687284
0,253307657684017
0,238870573437204
0,294717488960383
0,221373537742669
0,338038525880098
0,272533971173157
0,292600980426318
0,268800375965542
0,261618075582933
0,28129326334138
0,26899889918911
0,275388962833669
0,269578098984279
0,271504466869427
0,297626698987918
0,276406916259226
0,286292607056723
0,275363570159873
0,286564276518706
0,279147244872622
0,295422045684372
0,289525594977696
0,290531484821812
0,30138314718874
0,29090289548249
0,277211814624158
0,37078421332724
0,307262214175257
0,319155239440981
0,301746664445331
0,319946206333712
0,306766618072573
0,310830298288392
0,333423369508938
0,322613958995517
0,325456953334971
0,320866513458346
0,324057651088367
0,322422618020782
0,330710748113655
0,36496698209714
0,317522049723721
0,365184162021884
0,305632355854212
0,391595598553448
0,353180783474905
0,359638646035773
0,35924676814546
0,353485021635572
0,348547551484578
0,347795854408333
0,352407116445425
0,355327024149992
0,356824144141369
0,354140286382763
0,362227208243386
0,352338444597667
0,358268126892796
0,350083363445965
0,349970301955267
0,376332962448335
0,349422528405878
0,359149086786526
0,349184502016259
0,358864065863977
0,332170825531871
0,372836285687238
0,354399386249611
0,363555757129337
0,348924113856342
0,358467700316226
0,371271616548799
0,361544249266263
0,341746686657321
0,361188472663433
0,340286459588492
0,36010305741424
0,34070962845454
0,366057900105256
0,378352271010685
0,361925034598324
0,355983094392699
0,357383161398567
0,360425212497784
0,36390816481969
0,363529170143381
0,361595727511258
0,365552623609035
0,363829273667121
0,375527409670558
0,365374833784372
0,368953031507276
0,373751904309459
0,385334914307422
0,377569376938081
0,359791291745854
0,372830276238821
0,358225683598537
0,365565686242897
0,362137959158624
0,36263852680672
0,350070070680168
0,357369647991541
0,347735581966396
0,340718413735429
0,36843502552656
0,330413226271751
0,357354724533962
0,330584725777094
0,338332882736293
0,326198404230251
0,328441003681601
0,32324922199209
0,317803050169149
0,318165046377891
0,319209254049246
0,319402767817909
0,312499736459967
0,31443357666312
0,313643667531334
0,313125650043799
0,309459109428425
0,309265050105004
0,310393478277102
0,308588348992822
0,312180878563974
0,311147742887862
0,314300923995592
0,300812271941577
0,320846817434728
0,313794930285054
0,329254284377878
0,310391966556156
0,30956495005488
0,306389547918543
0,303194046645969
0,309057168356579
0,303060558618216
0,306641205630565
0,29945611445943
0,308508332192799
0,304051814626981
0,306755582363874
0,301465399512045
0,305982775691755
0,298135608663857
0,304215111163165
0,297548446586001
0,307956511956472
0,298272526118062
0,310793677066648
0,297063002287536
0,310931456379771
0,29919884847605
0,305750111350616
0,307318407792594
0,298591809611038
0,302099018792302
0,302494148351092
0,308057186571895
0,302440751654055
0,30135128877888
0,299754155434078
0,303653659496694
0,304095662614194
0,30172281500053
0,300920627784467
0,297735339259872
0,299823870496482
0,295061395436848
0,295426180727091
0,294710186317626
0,291234038981805
0,287159914629928
0,286409979211252
0,282852525063153
0,283041066464123
0,27874087579085
0,2773976584397
0,274308707589094
0,273162754658696
0,268871685724489
0,26587846248134
0,266823081171796
0,264569454373338
0,262336186690609
0,262588736125307
0,259334735378702
0,260809091918942
0,261239999529393
0,261370901228861
0,25712117067608
0,257485842766308
0,256501515338516
0,254556320473522
0,2565394228627
0,258190996723818
0,255959821730063
0,259501623489177
0,258326219931451
0,260675132494293
0,259857578582893
0,262528739678641
0,266257179703666
0,264878977189652
0,265069813735578
0,263316036911977
0,268015262287896
0,267678707387757
0,269845906628514
0,272175919966811
0,273240419447376
0,269860610153141
0,27620067439581
0,273076908163282
0,277264281781108
0,280188713515345
0,275167402356114
0,276658399645441
0,276546367162956
0,27713922672571
0,273829123539413
0,276499861938893
0,276821186714692
0,275863509720631
0,272974004022141
0,274248613974401
0,273264474497828
0,269781561692621
0,271191729541184
0,269684815786344
0,270110833177538
0,270113614963776
0,267568603529872
0,266438439188791
0,263641802253538
0,264301479656361
0,264194986467186
0,264972204627851
0,260971836373863
0,261129713250148
0,26089044725643
0,258502395633254
0,257893681763885
0,260511994581659
0,257114534603791
0,257624417256526
0,256466961088409
0,257634796243001
0,25483063050989
0,255268382251215
0,256450817471862
0,25159361758971
0,251999935263446
0,249812544478547
0,247713724997128
0,249838037071806
0,24848431838983
0,246824928338078
0,243817701078434
0,245903666959268
0,242420419151809
0,24232389591058
0,240971428513127
0,239323397385404
0,236654159020779
0,235571823078205
0,235226231014587
0,230881639194942
0,231061842372122
0,227992099695688
0,224327162682427
0,22547997366037
0,224206114143208
0,223976472159071
0,221409873003151
0,223295677170545
0,221955294006523
0,221187196071817
0,219843826515812
0,22039530524745
0,220536954091806
0,219718438980552
0,21845046327054
0,216955409872466
0,214925864000461
0,214784838747971
0,211391842072248
0,208094553139094
0,205013039015259
0,204145788077488
0,198717672686764
0,199479773689488
0,197284795682847
0,197648397900983
0,19509994016741
0,195396806542522
0,197331953875754
0,201670862696976
0,205833963059188
0,211132832263752
0,215076191374804
0,219999475926301
0,231283750931248
0,239478594133717
0,246200033366946
0,258375165035256
0,26674701710808
0,278831380238015
0,290722469500522
0,30049802441214
0,311398080761667
0,323584986128247
0,333935239460354
0,343847091030245
0,351640807992186
0,363106048999212
0,372666283377753
0,381833300298103
0,39098616660666
0,401279062003186
0,409056301554116
0,419988951485873
0,427503795021594
0,433412313043403
0,440223007817035
0,446446626726878
0,451970259683675
0,459060423359026
0,463103316187807
0,468053320148584
0,467109572404316
0,472527292607981
0,47723078681702
0,476139929592056
0,480479963892255
0,481182439008325
0,481916510918214
0,481902677751103
0,481096331507011
0,481115190802708
0,481144299317912
0,48670138175853
0,48567182226759
0,48707288503885
0,490817561018831
0,492514226314292
0,494376458130626
0,497776793348283
0,500179866974286
0,50786780262223
0,513108180836141
0,513698248307871
0,517426063588454
0,521900951055553
0,526839433160028
0,534035265380119
0,535202529176345
0,54309760954002
0,55124099393091
0,556342001276377
0,569487613721375
0,575784744471001
0,581074261432996
0,588067760472005
0,598947685438189
0,606533254815383
0,608997868961515
0,618744466276518
0,618163722458258
0,624417099101012
0,626065426588992
0,627210263508589
0,625816932814922
0,629355195686774
0,626397446420985
0,622637623483142
0,621822017569661
0,617577018794488
0,61576398212856
0,62097043467277
0,620708419350444
0,624812362494746
0,629918092061426
0,638090444995239
0,643598992511774
0,648591169643193
0,661675050646652
0,671835576695067
0,685621557087039
0,691263921794832
0,709593527683374
0,721664468203661
0,729854253646152
0,729899245411119
0,743316066078294
0,766667188339764
0,767753235604374
0,789441505387657
0,794554527823997
0,804107456294229
0,826214312488892
0,82797914908517
0,850520271420958
0,860194277919084
0,869828298493079
0,89237922963673
0,911652175764943
0,933643213106502
0,948732542602232
0,964347491111526
0,970473613229471
0,978966352885799
0,996723935748597
1,01526076551277
1,03132790261001
1,03990951333456
1,04402444127313
1,05608022388185
1,06833280043809
1,08606500108581
1,07993322060027
1,07691408815047
1,07539282328967
1,07985991383793
1,09396904890189
1,08687337831487
1,08242568970845
1,07887416869354
1,07240741065335
1,06689264535194
1,07071382649281
1,05781510294289
1,07247430214217
1,06360857960508
1,07098035748268
1,07326004969556
1,09221500738257
1,08371085625546
1,10158674659155
1,12836280919973
1,10308535766219
1,13612648901146
1,14300656897498
1,1446500041341
1,16047129609003
1,16621806708637
1,20096633412598
1,21159022993974
1,21331192677783
1,19836625132552
1,20780997981383
1,228357072938
1,25708203813613
1,25618033032888
1,24002649538366
1,25978765809099
1,24821223997346
1,25126463667796
1,25618491192284
1,2576718098711
1,25486870784762
1,26930662208138
1,26905557367787
1,2633560027201
1,26466374560347
1,26801130740416
1,26992296999928
1,2478636368989
1,27276082678047
1,27220831890963
1,23968375693203
1,26467512275254
1,25070568425177
1,24798283904689
1,22759116079802
1,18997790844214
1,19087583596797
1,16335640665903
1,14770589313164
1,10882925913641
1,06992615081602
1,03637814045283
1,01167055464475
0,961729987659657
0,92533243810605
0,893085505588209
0,845682332027855
0,812646138165931
0,785420911141335
0,757178050944047
0,739431271852406
0,715039698359543
0,70421531115778
0,690197336675726
0,680271799991491
0,674358062194733
0,670157084083818
0,662907259943096
0,662108111132656
0,655832631690515
0,647111794974686
0,636870917642814
0,630707274338056
0,623787852272315
0,610057948343192
0,601327119883836
0,592017466838704
0,572108308439142
0,563738792669431
0,54662380724972
0,538432755557237
0,520465309498886
0,500217278727304
0,488812866554079
0,466086903054101
0,443740274140544
0,428810740118662
0,407583657063529
0,391391848549038
0,370499944953909
0,354098470353645
0,336814287250782
0,317018766689057
0,303885913136072
0,289114037160621
0,27690237747435
0,262001623405469
0,24855111766158
0,239161472597295
0,229138007753819
0,219621631649291
0,213319944821604
0,20683954926313
0,20227657651232
0,199163093530085
0,194421682901946
0,192086262289088
0,191380121511652
0,18801172108704
0,184762789036314
0,184328240995821
0,18475204683384
0,184780626981083
0,187137724791467
0,190062702495507
0,185924440305633
0,185161628572627
0,186810644617209
0,192104004491024
0,191261326002682
0,191217630569057
0,193923925948729
0,190546787398596
0,1873437692096
0,190882642063204
0,190612952587081
0,186658545318489
0,184066539933026
0,186988277435157
0,185121179286337
0,183496503174965
0,17717488160814
0,175555919346844
0,175744904694809
0,175394994888799
0,173977315740719
0,178644190538297
0,180689403492648
0,17616651087502
0,17475108729365
0,183433833334673
0,178942651699549
0,181692419409949
0,185035425615966
0,189860691702382
0,191851120575836
0,19344691504559
0,193487350801633
0,195853853317441
0,198020644841382
0,197973594811155
0,197453039651662
0,205041589014619
0,202058238600952
0,199950148582681
0,205081971297258
0,204008208034286
0,200106638644313
0,205686689271817
0,205950806480338
0,20689893712287
0,209913117208734
0,21255869864405
0,212194802175256
0,215229001926489
0,219240479887629
0,22266867106053
0,228273174848262
0,232039261019046
0,231504628817223
0,243989689680077
0,250304988205536
0,257375077092534
0,265467484923224
0,27170758373137
0,277361348668872
0,284994865955667
0,291637767100676
0,293498764758441
0,288178901414273
0,292166676892216
0,288699774310754
0,28562686414876
0,27356339311745
0,271648013560256
0,267114022690106
0,258959174998705
0,253503889431056
0,252021661285804
0,252825247056386
0,251790214232431
0,248658398674382
0,248347158221512
0,245751407318369
0,244487697330808
0,247237928314189
0,251894788780596
0,248223434458529
0,247599167593097
0,245358342121778
0,244287683338541
0,243396915024233
0,241133448871031
0,233635189590881
0,235638481098045
0,230461580385603
0,223664265792432
0,219834117676562
0,218042144008955
0,222506068813226
0,218616702925613
0,209905677210408
0,215168344257985
0,210232590354587
0,210993134790045
0,204089052120265
0,204832517364961
0,208208278302024
0,202811717830562
0,193532997738058
0,196838955679318
0,192701084811426
0,196630333992065
0,193074994331294
0,193820170002554
0,192154114406993
0,188743036806824
0,187401111155367
0,19086962117082
0,178791907503678
0,184980611125261
0,187795931612225
0,180938281580539
0,177565735523313
0,179680630360925
0,180765340947931
0,17252765002055
0,172172945175065
0,178360325894782
0,174804387625146
0,175283621000937
0,171966655549761
0,170891619153121
0,165400554571632
0,170337496999129
0,162035678383189
0,168290892789813
0,175650204107758
0,170062942616743
0,16346139035214
0,167063792806017
0,169564748868939
0,174479201750801
0,173325195294814
0,17017667981141
0,166076346359714
0,171127522453933
0,17596600275728
0,175023602591961
0,173131151006507
0,169918302496766
0,173834402798729
0,175350591946937
0,187686264318439
0,189513747427422
0,183150596587223
0,19263143632587
0,183485124034545
0,192012698303137
0,196590227137468
0,199696125328671
0,196191381543181
0,192708894142399
0,201915358034504
0,204541444122188
0,198081759687888
0,212378268741654
0,218811802934407
0,221474732538209
0,231212730998502
0,223621625570859
0,234674136173661
0,254173321528579
0,257073444398431
0,258265694951929
0,262345060614799
0,276867932790793
0,287770088777955
0,294437158923057
0,310952156858962
0,314664960583764
0,327364428678369
0,338127453060366
0,332066319425355
0,346009684900117
0,330005279435718
0,334838150464923
0,344876559691602
0,338592684752276
0,328158666140518
0,347723000731742
0,340335897458303
0,329154148170095
0,32932369959964
0,336004836913547
0,313954813032395
0,314238539239327
0,32154869825984
0,319890903663681
0,31777232658388
0,318876158730887
0,320144953570939
0,320267109573755
0,306359542432201
0,302219237937713
0,281163455940163
0,276372550987553
0,299164601948265
0,304362282301982
0,293441771592658
0,287961317218669
0,287103499951225
0,291137752687256
0,283182784301755
0,277498005501335
0,27492231363502
0,271381160875519
0,255158835053677
0,263216633675036
0,284029132435484
0,267113563881015
0,265060254956116
0,289084372475727
0,272159614523458
0,253713510096238
0,254518501762003
0,264209427242595
0,264370613411388
0,261693788324983
0,253585918529465
0,273463183192348
0,274257574859832
0,299613441371566
0,276440089517851
0,282505423009345
0,276863085913324
0,294254779515583
0,277038503503523
0,272233107339214
0,296484461390455
0,290264915303102
0,277198582737388
0,280153785992477
0,264705723183014
0,279610976166154
0,287580474163925
0,312649442186246
0,304289612204518
0,319457307713736
0,31725356423912
0,309127763337082
0,300727194808782
0,309214814164754
0,300258769317567
0,325068888869826
0,325393444845445
0,316642024714076
0,345253331087841
0,381855053338531
0,359876346907884
0,348963393677912
0,341433851521948
0,385743994283981
0,397749849479526
0,392861796948664
0,40884186675189
0,431418151925712
0,397360041248378
0,365383905576648
0,372589572875968
0,395908891156369
0,419498546668918
0,419658489667829
0,452879272153504
0,430155112865444
0,375214981745982
0,388644935793185
0,384983107539793
0,381920549347942
0,39928808344457
0,386889306490971
0,384993293736554
0,407894344636296
0,41132708228763
0,394732553295751
0,390419001573121
0,41337062139271
0,370579125787046
0,391391907493645
0,363997668117755
0,358403604660744
0,327081551151523
0,334943701041185
0,421573940950008
0,375704574583339
0,382217909380184
0,3725661715235
0,319934012531182
0,428462350168529
0,387637954504097
0,361639855316252
0,395931349270464
0,291651918706266
0,357541095633168
0,433863764903025
0,443890421428107
0,410401363030093
0,341532113354144
0,25948005900212
0,342220147410933
0,67673285011768
0,537931025851233
0,44907107277358
0,379035942137906
0,468237364979022
0,334814276019037
0,210114458534391
0,139142085904987
0,377011787384335
0,477691367949182
0,362518959160882
0,457121760818601
0,55070371762206
0,466085521586294
0,197987970949243
0,132084135633221
0,26948028230024
0,475870444099457
0,372554220116917
0,467030042520558
