3596
4000,36533379555
650,420452594757
1
2
2
0,0220727731580679
0,0247856491386209
0,0153937837651294
0,016348129327339
0,0183858970286451
0,0128852321365618
0,0171631624740781
0,0295814164938919
0,0235108732692945
0,0293440541862539
0,0204869291303613
0,0221177383139596
0,0238988235047597
0,0243885461568382
0,0205796728656043
0,035114148901155
0,0258804412425577
0,0175882809145614
0,0224293148586579
0,0250069568744389
0,0225169035097395
0,018054530604528
0,0158093493981829
0,0185567875242676
0,0191835259311558
0,0102343849058252
0,0115394216378938
0,0281910715177046
0,0155660278309869
0,0188222147153099
0,0196542409037499
0,0225992455645198
0,0250631082011693
0,0239208496517091
0,0147637137671555
0,0183438448550628
0,0177582314681627
0,0237491614035719
0,0194236036040136
0,0224991500447622
0,0221439119452286
0,0255466901293163
0,0196899131381638
0,017523139005191
0,024060193701378
0,0228217947875293
0,0163924919487155
0,0227435230765407
0,0221238332525121
0,0217453912016403
0,0186577158006568
0,0161569504388022
0,0253123125770134
0,0250090321012832
0,0162865175814246
0,0156368327028365
0,0163242667582682
0,0109689795883931
0,0116579853923144
0,0236855856068383
0,01836920613943
0,0147184557549051
0,0218940010243443
0,0226782427337055
0,014637972698167
0,0222771995707997
0,0226057795069694
0,0169275909974541
0,0185492954701279
0,0243496315457749
0,0134803346377745
0,0253333228173623
0,00397647933813271
0,0153835350079887
0,0192538936210618
0,0196904339496847
0,0159101975502941
0,0147205557852025
0,0151181285724335
0,030472815638503
0,0225042337026556
0,0236950808098442
0,0265666856102615
0,0231487446595628
0,0213620654102394
0,0187535165661098
0,0113979493899413
0,0275642185001028
0,012721700365347
0,0153948617703741
0,0110491844095906
0,0239973684067946
0,00576561237499543
0,0160827570040831
0,00897612856461457
0,0224101456536692
0,0102847764904221
0,023010435693653
0,0117384685144031
0,0321688714378603
0,00650172247133781
0,0202192924128409
0,00948436945769128
0,00832441171187125
0,0515033188400894
0,00502203053584467
0,0210295670210147
0,020541125260707
0,00683913798230559
0,0138577933254915
0,0112748897437592
0,0190928809537906
0,00885864426249744
0,0280959894248045
0,00597164432488328
0,0217398923833026
-0,000277987969150144
0,024530095294442
0,0117670151755095
0,0243937577550458
0,000155153473200138
0,0198288667288361
-0,00464411505857451
0,0146367064892708
0,00853723246540458
0,0124449263095011
0,0111480895534045
0,0321017719187387
0,00191798160834657
0,0173872587296637
0,0124970043037192
0,0206697366919902
0,0251166251057037
0,0180397011568615
0,00703454931740427
0,00897317531589949
0,0227761016063149
0,015073094317649
0,0196157727249373
0,0100213331157875
0,00336158458353347
0,0177714057508266
0,00779205086910717
0,0275739994082954
0,011148126055111
0,0146279517676401
0,00285610029759296
0,0150042835030229
0,00700865766064335
0,0188074008849535
0,0114331172169004
0,014252578843925
0,00935751162830765
0,0079816761108768
0,017680269455476
0,0473873816100231
0,00320019117300171
0,0261203304029495
0,0244378833915736
0,00797365973949819
0,0205461539116136
0,0177865694842878
0,0193272960916085
0,0103025453869993
0,0200369425673883
0,0140577829752079
0,0146696954935353
0,00918354192549314
0,00683149009070691
0,0241314009710136
0,00562342873380721
0,0120283386810535
0,00219364223275195
0,0221198945657871
0,00162481383236148
0,0213700860163567
0,0159196825007465
0,0160542281544258
0,00609614552011986
0,0157066997018448
0,0141649281260055
0,015969204286657
0,0138285663905461
0,0063297616569814
0,0103240119241805
0,0141841303987754
0,00244375778232132
0,0152283440615515
0,0130720913732151
0,0137433001467788
0,0110465013833643
0,0238543934144842
0,0203237905794563
0,0073259840081479
0,00696990950906131
0,00736446584625298
0,0335617512234789
0,00613296861104562
0,00869791106730744
0,0147212474110072
0,00539731485759424
0,0189830944784094
0,0129764951027775
0,0144755253530764
0,0114488301244029
0,0155365778251468
0,0244336978641603
0,00940823621730007
0,0144037414559121
0,0036148031472453
0,0196840553261952
0,01383681765499
0,0167343460443051
0,00817690354197767
0,0105034419526637
0,0168583177961496
0,014239697655596
0,0168019576454148
0,00670110870429934
0,0145749190296633
0,0123335901400883
0,0155182888958275
0,00388093402138462
0,00645133870106797
0,00689834794103876
0,0134365364713642
0,0194659904068031
0,0178923493458987
0,0178776191061726
0,0189761484002753
0,0146649661395994
0,00954106734911808
0,00984405515327489
0,0101955074412643
0,000986600752487472
0,0253869537212612
0,0151541377357392
0,0134813698226025
0,0111095174278585
0,00724211240194652
0,0121763527541406
0,0130463401275465
0,0107548777488335
0,0109663683310251
0,0161078708658832
0,0075133297772132
0,0246312222584201
0,0063826744252441
0,0242040339103864
0,00960869720966205
0,0198173940258144
0,00796645289364543
0,0128390354367858
0,0109096109168336
0,0131116126648401
0,0125725644471095
0,0224398527464565
0,0223195176909678
0,00734078075346667
0,012115758052941
0,0155968845528395
0,015626966082775
0,0137599000647606
0,024852778821728
0,00909751672666011
0,0292191572912913
0,0094295349983366
0,0196605374850085
0,0267224418249555
-0,0019371140721908
0,0123937729872867
0,0180130757011792
0,00979626331836891
0,0270323395411983
0,00569952581318697
0,0127447351012952
0,0107634253741908
0,0236807343404879
0,00751411157852914
0,0179940111442484
0,0140965452159984
0,0215959764126109
0,0119380772550287
0,00613419429335339
0,0306173663634563
0,005491538274065
0,0291336776162861
0,00878568023356266
0,013576663102675
0,0118836991638791
0,0168348397266906
0,0159173014267358
0,0239921811029087
0,0241633740040648
0,018115476656446
0,0136009938351302
0,0109158506016881
0,0248054417769211
0,0106574335762742
0,0173890395804967
0,013739958474864
0,0197245195301242
0,00968245372543973
0,0237876243550792
0,00981061377475695
0,0292394600968454
0,0195715925550623
0,029560601175711
0,0200731784939869
0,00809417862393899
0,0149937703957709
0,0279066266259223
0,00898151658526356
0,0200681648229123
0,0122875552008993
0,0250024335741913
0,0121317894448709
0,0215580097127716
0,0126048169462637
0,0337529853006296
0,0155493565704647
0,0249515525558023
0,018885061865118
0,0158392255948495
0,0170679193692178
0,0187579924946306
0,0162145113372487
0,0204570241815012
0,015503315575534
0,0212200341024726
0,0137756937559414
0,0353434149443479
0,0171318549124296
0,0358881298248728
0,0128167112234146
0,019845341595245
0,0211636458943364
0,0265093361679205
0,0225059901315812
0,0203066518055311
0,0233284193112526
0,0306075270215716
0,0253681197507607
0,0251937977357716
0,0241301535091615
0,0314487952067724
0,0243125612596799
0,0122015554091393
0,0290435924282228
0,0162358858944357
0,0200292586186395
0,0319556460601999
0,0425519334307216
0,0395443692488661
0,0248677641302208
0,038236297437806
0,0233855240747246
0,037490612692081
0,0222699367106857
0,0435938633737332
0,0268655214086008
0,0327951005482647
0,0317943818850255
0,0375769023873437
0,0322240658193031
0,0411862562254525
0,0390075977643593
0,0478110738525502
0,0451978197416188
0,0433729665666091
0,0374426592038854
0,0417866248823198
0,0320953989423083
0,0607763780902395
0,0578106885057515
0,0564686037789595
0,0431345561578002
0,0431881422133226
0,0463311071950542
0,0353568379745461
0,0476683759215543
0,051845843119757
0,0526638699028143
0,0558142244463624
0,0527919072127623
0,0533743970324796
0,0596180599759011
0,0572042761368184
0,0600747672961293
0,0625567065596261
0,0603396088108374
0,0559904486681531
0,0655242004548482
0,0589705747814384
0,0707548192937059
0,0776959170678911
0,0910248169130839
0,0763866408756287
0,0637241731310894
0,0670752505288179
0,065990300770859
0,0752510808239259
0,0740512702588209
0,0872675319335949
0,076291368513939
0,0887751421676115
0,0891286535226419
0,0975353379870854
0,0813496343535254
0,0905983819664189
0,0924343356504069
0,0872419831494741
0,103553261527229
0,102174362603846
0,0921886411216319
0,103862595833313
0,102367125576725
0,104394313744262
0,0960208101717595
0,114684131268626
0,106701744814623
0,119770436162377
0,10464637946603
0,118344955813445
0,104451323290833
0,115985951847288
0,118668764856592
0,117246618965398
0,120756176406798
0,131400123327023
0,111825391594358
0,13062536126529
0,145574191926523
0,136444277098334
0,128712563812643
0,147770645663026
0,138113550259088
0,133382845752568
0,148785062064964
0,146112149223484
0,142410143467282
0,160485756571122
0,152129615957347
0,154846809150076
0,144380841022823
0,165299640971871
0,156889638320615
0,166604704857118
0,153409598121875
0,167321319693059
0,166655052337647
0,168819697084934
0,169855041406947
0,17366938777242
0,170590351340178
0,184851460389536
0,189858425420475
0,185077850836569
0,184803766354639
0,203050503778387
0,190761262642362
0,201192873995418
0,213579448150898
0,210694071447682
0,20222968437012
0,2085192320547
0,190563654000053
0,21875493944885
0,205741203884773
0,214332493249277
0,202870536200837
0,216281456372314
0,214395015524138
0,234422412585379
0,228551350097377
0,231700782218175
0,23787762418097
0,241316138295613
0,228313528161531
0,244543848225795
0,247808342635717
0,246879925564898
0,23262412375593
0,247581157185
0,252316500620259
0,260979472085415
0,260314771584966
0,272860607991195
0,268779459254788
0,260823185841189
0,26816622589241
0,291987838614245
0,269730234744501
0,279628767229337
0,292851967759368
0,289262468037291
0,283453856143549
0,296747982955282
0,29294546742891
0,296905009253545
0,30481207064479
0,317805688515046
0,314355786450519
0,314093530504304
0,306864869360755
0,315992789897947
0,314995058324823
0,342010785544028
0,330755276439655
0,3409398800751
0,336025204941025
0,33843431364585
0,338108133070154
0,35704561778023
0,338316010933834
0,360203543755299
0,347167384675609
0,368162422949945
0,35443693921972
0,344661261538953
0,350741596993272
0,37965181197002
0,394100827529482
0,40312412754551
0,411569868264531
0,394670919011363
0,368041100343079
0,362786260214074
0,391485942298546
0,420393630997629
0,40458683266419
0,394446060181623
0,391827792598584
0,401089161016904
0,394601915484451
0,403043651713574
0,408798015087702
0,436892091975457
0,423010381045524
0,432831584344924
0,438760242355307
0,434060692608935
0,442304673426687
0,461716284912405
0,434465627048596
0,436175555935092
0,456031910609033
0,449976297314672
0,446129830218603
0,452406641405286
0,453290937478962
0,476007689343234
0,45811284683403
0,472943813618908
0,488259342728936
0,481205912097244
0,467033093660749
0,493660113147687
0,496689122863663
0,491958517399249
0,474058868115417
0,511417521209816
0,494073478553359
0,503030214700216
0,533863653723854
0,511425729574094
0,493754115448741
0,529236441717605
0,517617216309263
0,510329016684181
0,547177345067493
0,5577070038235
0,530959801822586
0,545300873297205
0,558957857633395
0,569619461912029
0,543667343996633
0,543927093350975
0,545480425971621
0,552077133953691
0,566968913346994
0,576774922244613
0,577096353670181
0,560280672079346
0,592885667939343
0,606265261012717
0,590404100325285
0,587770921929916
0,581649459095882
0,604086192007703
0,587437309904002
0,593229036497877
0,591501179136366
0,617086449661437
0,606962026079014
0,619526212925555
0,618421069516863
0,591158662348604
0,624660503619309
0,636434608066144
0,614093636066009
0,609382305341305
0,611784124306669
0,617110039623922
0,62276471737866
0,649389778849146
0,627789344843571
0,647948615901539
0,652657674752512
0,641499961370058
0,636203307534675
0,665538108668583
0,687548023303161
0,681249795446736
0,673261465339757
0,687708255222765
0,701355123640218
0,67951271925306
0,6726822148026
0,69487200677583
0,664354006289945
0,679831614076494
0,690675581385233
0,721482358489027
0,704945206561708
0,704035462150492
0,716845672337581
0,692515957537817
0,672454069590978
0,678731562707576
0,711524510031914
0,707858207000854
0,728751613890954
0,723279688524201
0,688445709534674
0,697555099063149
0,716869340965816
0,738526321952412
0,744634538656907
0,720476877498622
0,708806621576669
0,692988506885334
0,734099147648875
0,759721282746954
0,722755284052812
0,748579903413431
0,761891859635871
0,744136086996414
0,75033573377215
0,773427085702028
0,782213632987674
0,759501346828693
0,756383011666368
0,773916387965413
0,762406085158335
0,767992962772983
0,782822185320475
0,793622622676638
0,798198059979588
0,780103215414481
0,785956959471552
0,770626796909234
0,78405870867791
0,800156422146942
0,76079399206497
0,773193307676943
0,795432739624373
0,788512795970893
0,798256375098817
0,801875735490345
0,796078095341133
0,776775920334405
0,780046375448667
0,768447859752899
0,790461986423521
0,787034264673251
0,771270087806243
0,779610286319172
0,815233946400487
0,816733647775773
0,839091636954988
0,811466322455589
0,814665680717334
0,832745212487902
0,8421090675596
0,824182811927591
0,847123184428173
0,851008699975668
0,863404433779346
0,841708302482858
0,83301785652811
0,871351490532028
0,873225393137338
0,829800919303837
0,826330815563322
0,828946550054836
0,860950114828205
0,890022925388629
0,856472393739488
0,811930119766441
0,849219297528824
0,850780983959331
0,845163228784204
0,835634734445862
0,830394806669085
0,863911450413917
0,843854389716136
0,811111302390543
0,819698270441894
0,830548942361314
0,865820083188524
0,876020828090576
0,866507538808617
0,831533264695701
0,850360760840186
0,858299994091631
0,861950138810852
0,861754396544036
0,862494149551352
0,877621812100046
0,858724808172239
0,844002629579272
0,869979860114519
0,85876311453662
0,871861931873359
0,8601495648382
0,882662662172823
0,863321632874674
0,851145148414221
0,848693770683553
0,888395577170099
0,862668038762716
0,857880852484452
0,849424545082661
0,867704811673483
0,866237151623202
0,856345328093253
0,875224544714477
0,830448187866559
0,826461175653605
0,846647797752976
0,84516119504868
0,879320840091291
0,861772217282823
0,890098306055092
0,883380525823111
0,873553208633101
0,862612720429539
0,862366453626291
0,876212021163956
0,851958209383031
0,855040999140168
0,854472298934414
0,841976998125944
0,874048494159832
0,865568495176451
0,871626755363291
0,859170804544137
0,851927840317104
0,83288251627334
0,876630212321576
0,863060365931428
0,828424839191265
0,849055352848191
0,883861102441784
0,85578488945467
0,872151552574906
0,864586119602669
0,881504561009319
0,862924206487898
0,869796165380137
0,841066408633503
0,846246220379892
0,850893437809643
0,83518007934446
0,858397301039505
0,861970252720128
0,84825523300564
0,864869884407899
0,849749446613722
0,882324791820721
0,875898392794801
0,847520379197761
0,839028077795162
0,891631826229061
0,818177494936208
0,853351161361036
0,856044955705529
0,880755373613481
0,867686559432606
0,839849535160211
0,878204452220998
0,871052396597796
0,800553530649829
0,843868657034445
0,83880419062096
0,827532734946684
0,858861015265471
0,844155038242297
0,819384396901436
0,829132427421461
0,81662935920442
0,844388103138959
0,822791711564042
0,837674926912455
0,821306647292934
0,841642832589976
0,822355571467332
0,828092046994064
0,819376906630232
0,857173469302514
0,841255352964894
0,830777003243244
0,810765266789452
0,818659454343817
0,813879745627854
0,834414807988524
0,814963872489307
0,819629669904315
0,811952166856761
0,794163283818964
0,799851037113933
0,815462510416545
0,797890709604676
0,802953435904424
0,827289339080113
0,81905670459046
0,776940815710545
0,785489529481045
0,78640380493972
0,817074645212235
0,771848615263704
0,793072469622242
0,766693774021185
0,794472600304629
0,801883593171003
0,794343589016699
0,773696531306773
0,792767478618028
0,794369276833249
0,80062135825838
0,754006031947384
0,784376540236892
0,762990459217481
0,755498131807345
0,752787961423929
0,776361747356298
0,772159138008004
0,77348098838011
0,733814858517672
0,768296339058471
0,749888257725977
0,753220506559
0,755136568835575
0,76045307704387
0,736040728807068
0,748202552075797
0,748125269108347
0,735341101377787
0,725432246298185
0,768192171829729
0,741884473847551
0,731337596073917
0,727475057935555
0,714964246394621
0,731608856275078
0,719450056205337
0,719010364292936
0,72395201135534
0,711737725868689
0,711936388781887
0,715247916387408
0,71352038639984
0,704603283042438
0,704620703384727
0,687442408625929
0,72325995660494
0,682523534747789
0,68075117322166
0,68267277979403
0,678923693203158
0,68168946762595
0,664717294098337
0,675328518928331
0,703233823175655
0,671358038338892
0,684534042537749
0,686112769271383
0,666435248367911
0,665074388956332
0,658547327798881
0,650073685745021
0,657789860141969
0,642622455859571
0,657615786665183
0,656240785176103
0,646472028563651
0,639413619460113
0,642658285150876
0,624857710269132
0,617627928830579
0,623987754230867
0,638203077668933
0,617018225378368
0,624058807390487
0,616370902968494
0,618161993074814
0,595905034426244
0,611373909892125
0,608627984956326
0,607881873161918
0,603407039531877
0,614363787054988
0,60158130947444
0,596748219798863
0,604659418222348
0,60448083208005
0,576815555611135
0,590672540203378
0,570247013821986
0,56641766781365
0,575669087769738
0,579677954422375
0,563642762059816
0,556090823407163
0,559066855328672
0,57163568301757
0,5544308343256
0,562646002089856
0,562537584055848
0,550674315521551
0,54963287764853
0,543344030333542
0,537431875858249
0,538995039147218
0,537558790641134
0,533779574017316
0,534358426690506
0,528855748380725
0,522659594830337
0,537282473058127
0,523665838154551
0,521374390168937
0,509907942590051
0,530851834693025
0,515809914411338
0,511564895488141
0,507011591526809
0,513989223962189
0,504832870862398
0,512103345043521
0,487137609466769
0,493569059603912
0,487487240851831
0,490771818937752
0,49002963108802
0,491705777893318
0,484452432408
0,479463874872477
0,475186156401517
0,484270183767151
0,470337839145385
0,472755263280747
0,46101248567728
0,471008459803668
0,466130497387682
0,471003877670371
0,463334252384186
0,460772981267513
0,469830232702005
0,460063033452766
0,447353498134581
0,455713599237296
0,453157190025425
0,455099611901239
0,447886053143819
0,45046485447888
0,441882951540323
0,443323743388707
0,440441463359043
0,441906960412911
0,429012994594528
0,441839676727622
0,431980537408305
0,424143759847954
0,418845679977968
0,427554120365603
0,417602541996479
0,42267619834247
0,41744395311727
0,428430324433099
0,412187484482516
0,415894060097207
0,417689537284996
0,406317980297799
0,405204655279451
0,406950348999965
0,404381451635905
0,398376824620573
0,404242333888858
0,406291854793264
0,392722516060934
0,386867072529222
0,385506263432676
0,393824274498809
0,383325258035585
0,385608523140855
0,380312781290811
0,382803268526378
0,371654878485625
0,37963595546981
0,379950151651575
0,380328866933091
0,373191952522097
0,370240884690479
0,374780143218528
0,371840397892357
0,3689757154766
0,369540494890987
0,360502388249441
0,361438771523494
0,356905053293172
0,354619069951764
0,351708123506992
0,359330309593167
0,358460665930392
0,354813362030607
0,352014067573933
0,361824067897596
0,344282194051466
0,341409441520335
0,342728263660654
0,342207592247849
0,333128481466736
0,338875304660262
0,335728294529903
0,346065944528556
0,328790710276824
0,336401011136867
0,334204478871626
0,333589598287347
0,330830532857487
0,327927358639276
0,319531142368697
0,327479719419937
0,320516819936796
0,31860748303615
0,32035917854924
0,312819456102866
0,311138009766954
0,316029528545166
0,312737278043695
0,316194537618586
0,309928695961472
0,314798721773562
0,309563865466826
0,302333423157077
0,300985709361145
0,312949873086807
0,299603330070016
0,309855263178309
0,303420327394281
0,299220319542894
0,299287193838782
0,303433927022024
0,297304229851392
0,306602345834657
0,291590356592167
0,290361096383745
0,294685908056988
0,295317991268204
0,291111864443341
0,295572699819038
0,290023514339323
0,290946726639489
0,289920044628678
0,290971704283781
0,287079721600541
0,285194418979579
0,287129822582526
0,289605148581897
0,283675431527677
0,293867292807484
0,290241009398518
0,287570728742228
0,289619620026479
0,285483831224556
0,291070047782791
0,28649017260951
0,289956598030271
0,286895000602091
0,28513600661901
0,295026478142603
0,284183432514498
0,289435726975991
0,294195435887139
0,294698724716221
0,295302437644358
0,292538116647704
0,298725159243809
0,305223182142861
0,301706156886662
0,303779918992382
0,29590452541052
0,307479621315703
0,306745709690544
0,312233571524762
0,306236073995391
0,310838644445743
0,310031623502205
0,317281032173127
0,313241603861907
0,317563004239283
0,31712640663292
0,322312036987293
0,318549164190847
0,321444932335714
0,320679681924181
0,323530235981973
0,327330542762663
0,324075355969132
0,327905865185662
0,334820095243901
0,335100662613523
0,338442925941569
0,338742456111866
0,344915349950883
0,338217785710433
0,351652062763272
0,34723801522335
0,349320258164094
0,357157399873874
0,361493920556612
0,354965003759641
0,365956918104676
0,355786688886736
0,371448481346528
0,36772395199753
0,378051545897415
0,372963926641581
0,382103568872316
0,374712723802792
0,37758547687961
0,375726340034751
0,387518347154961
0,388687208950292
0,388755920880227
0,381369941441698
0,385966061685816
0,388753040666927
0,388989108679811
0,39047572809612
0,397988932324314
0,386382891744233
0,403648733960771
0,395829523433403
0,393590140159117
0,395527694419205
0,393759634661806
0,395306764507354
0,40462947302985
0,395986419748929
0,398913930624399
0,399810286821916
0,396965475675629
0,391479036188505
0,395014837519116
0,40359797006158
0,394730847184866
0,388565860376574
0,403612713243129
0,397844996476196
0,39378690307271
0,394619978451815
0,386547506372382
0,388878972246857
0,398571332105549
0,392837927163921
0,402660673612444
0,398287631318082
0,401955485883712
0,396070209295998
0,402650563746177
0,401431726459411
0,40316130097339
0,391592471843312
0,391388018498396
0,401423511571359
0,400974312292773
0,396438262309136
0,401382758017263
0,398244041539607
0,414035575414795
0,391351821946119
0,400260794078425
0,402578169874704
0,406345586237878
0,40071432821775
0,397197957934569
0,403711738948239
0,403944134260365
0,397516417275058
0,400134748392122
0,394819598574413
0,403186909614531
0,389326911382961
0,395358569099877
0,386076669056482
0,397961081134599
0,386805454688001
0,386141113573266
0,392116594916484
0,390015241919514
0,389428650674802
0,38826715204574
0,380740723472278
0,374989559321896
0,372554258518183
0,368466183525982
0,378250829367589
0,369698150430682
0,364157980749205
0,367284433359531
0,360191655509408
0,35967782485209
0,365295506918777
0,359614646441574
0,352621538457053
0,353582937891797
0,344636074437983
0,34565707721095
0,340236053589747
0,347506893740436
0,331865452257372
0,341054317937238
0,337534515419575
0,340498228521484
0,328692591673477
0,332489917192533
0,319674186236674
0,323604034771273
0,319733747587798
0,32369087972132
0,314846392174036
0,318509716897777
0,315292830848852
0,308770473858823
0,308812316670922
0,311324274673218
0,301645229249562
0,304427195169571
0,301097331224498
0,301505016578704
0,304118419353386
0,296653605217835
0,292353233134401
0,290540250111437
0,293830635796073
0,288090173840621
0,2913511311517
0,284920322842685
0,284691257275117
0,283288526931284
0,285038248593335
0,283338952467948
0,284324904116931
0,280156327294318
0,27894663126778
0,282806769635255
0,272589046664002
0,27534577884548
0,272497423253028
0,271885904304201
0,272600155403941
0,274220301478304
0,266931184498925
0,271689425580154
0,269939972626851
0,265343472644367
0,265856833445619
0,266180584520299
0,262267145868901
0,260726019344541
0,26125505290719
0,260572353471329
0,256444165447434
0,261076564153492
0,251844279997633
0,253064668787159
0,257015684584805
0,257105600977886
0,249426899889337
0,25758224837345
0,248807940452943
0,249843890316352
0,251986870953292
0,246627231823601
0,246642920699873
0,251034053482186
0,245445446695428
0,253663880989259
0,243127470454385
0,244014694250209
0,238636423814062
0,238532269641359
0,236782086996518
0,241977891721613
0,236445878800897
0,242725845337054
0,22899304065217
0,238509808503746
0,238201245923474
0,234778426540914
0,235279971305124
0,232874334500061
0,232584488188985
0,236613158558923
0,228289826044705
0,232666924745983
0,228100775510819
0,233103258591531
0,225783080131338
0,228151093370838
0,228542419494278
0,228053000767665
0,2250271059934
0,228975995038531
0,227862468659836
0,223062896251587
0,222675633987572
0,224387085131059
0,219099705449161
0,225067455752234
0,223573736105666
0,220607169638487
0,219840750361018
0,22448412094029
0,219677853662204
0,221583098563059
0,214993079795495
0,221956969333891
0,215723922423457
0,219146207747724
0,214581800414668
0,214478453289905
0,212654343810457
0,214973596257736
0,216508703140346
0,217861465490516
0,206330449908176
0,211527152306019
0,21144203773094
0,217137320524819
0,209504689487513
0,215563016705177
0,209217450828693
0,212100842273406
0,209304157357909
0,214628861595836
0,207904903868382
0,208498872757822
0,209655143544519
0,210891511439544
0,20459652913487
0,203799456173444
0,212134969108325
0,212693944656401
0,205643326381678
0,207991311399395
0,202314427482539
0,205754802787951
0,207414260403975
0,202069060877218
0,202678007727016
0,206395592947892
0,199922650862245
0,203811890496754
0,201406904356267
0,200869451998394
0,199330201325266
0,202845595612018
0,202014187764423
0,203094377649961
0,195573916244481
0,197725567530288
0,20022381705236
0,201173489643164
0,197988445825586
0,193612145017695
0,19637567305008
0,196324146119713
0,194811190235915
0,193315909107646
0,194981976304537
0,195863038289247
0,196482777835573
0,19461735049409
0,194022727285406
0,194653180580803
0,187991863342275
0,193029322411575
0,191396190516819
0,191258124706396
0,188321161436086
0,191354235208919
0,189766820694855
0,189426243620162
0,188041689381997
0,186555934167171
0,179698474293491
0,184702736951791
0,185661061340403
0,187626044434727
0,183718000576217
0,184107068457025
0,188336161736568
0,181733642794399
0,179834643069906
0,184745095528655
0,179668856205145
0,1816427937916
0,179877444829793
0,18059570403126
0,18090695200607
0,180171621553479
0,180362658668583
0,179121950488408
0,17124359837069
0,177698690900049
0,171350439151021
0,175716674467487
0,177670498853789
0,1710814988474
0,169410966547646
0,173422734510367
0,170040805459491
0,169620961598274
0,168489088398733
0,166749277426114
0,168064203771148
0,170635186655241
0,167455455725414
0,165125634284589
0,167616765349078
0,163706429670865
0,162464549373124
0,164275059529352
0,16555890705597
0,158259415742798
0,160070554554222
0,163569022553669
0,155500126328351
0,160407716729875
0,155150041127068
0,155886185139692
0,156656204908155
0,156720730196757
0,156861510779144
0,154329580709075
0,152255000049491
0,153168244015914
0,146669376592449
0,151305139677004
0,156170743029921
0,150429779171008
0,144762623890952
0,14924759726834
0,146075098249859
0,14516238487904
0,145261765657817
0,148074109625259
0,146797322975986
0,144365267679691
0,144509609302071
0,139623910777848
0,139562062969758
0,140050214855692
0,140012051693409
0,142567762051858
0,138447138425718
0,141218489035759
0,136097532497841
0,139348354064793
0,139854771328037
0,14198353056419
0,138720533122644
0,138955964648899
0,135855103960792
0,138593531714499
0,131413030788506
0,13718769176124
0,133793354212877
0,133949956714217
0,128697120028404
0,13325649664083
0,132968217025612
0,131169828178468
0,131400685765945
0,131197937072037
0,128145055903392
0,127119326528724
0,12310036269504
0,127417076835383
0,126584536798628
0,1268549999754
0,125999557044836
0,125701953923501
0,122397094260826
0,126749535855307
0,12202357172332
0,123649176419728
0,121794666982346
0,121385862526428
0,124627988881383
0,121169325462403
0,119346127963898
0,120184662330079
0,121602192240727
0,118842600670152
0,122542612809897
0,120613197768209
0,116713337056965
0,116425627654001
0,11698313247979
0,115911472068422
0,118942792497794
0,118667678209706
0,113576493495717
0,116674112103643
0,115342790759807
0,117403088524378
0,114446942551473
0,115112444365559
0,118076413311273
0,114184650458467
0,114587499968559
0,116287162374234
0,111372629437913
0,115764248244493
0,110955399546844
0,11400766729475
0,112019330174418
0,112023103743501
0,111117786254231
0,113793859855298
0,110327270207603
0,110014492134881
0,111621588759169
0,108838621958014
0,106763704944458
0,108895297879491
0,110066294412261
0,106963055246922
0,105019495961179
0,106073580623734
0,109930627204379
0,110205633192194
0,105656722056914
0,107653325175281
0,109353019767526
0,110422224935143
0,108936852508583
0,107359663831813
0,106636162641203
0,105868142128599
0,106858145434569
0,105884797305189
0,105395906291935
0,104691567325509
0,10196224127568
0,105671860017729
0,103602278368329
0,103251663674495
0,104300241752521
0,102468058767881
0,102547996472329
0,100949784510318
0,099919954066467
0,102287477830026
0,104023774678817
0,101694629394873
0,0986420902556619
0,0988512810153018
0,100724340314183
0,100450908876242
0,0979055245893082
0,0987584381251716
0,0999028425753837
0,0998387017183222
0,0967021981159868
0,0990705849587121
0,0986491342615481
0,0990068355896258
0,0967831001880297
0,0979371136908752
0,0982773447727239
0,0954991279330736
0,0976329322369942
0,0999698329948859
0,0970158198968662
0,100014613908462
0,0945334495726735
0,0946009383547354
0,0942369891295738
0,0984611027635701
0,0943543839877524
0,0959277516024882
0,0970839415189241
0,0931526945275984
0,0942011423914164
0,092494521633884
0,0929184918270492
0,0953796896279795
0,0924021736438069
0,0913066602477904
0,0890455284922126
0,0942029180734762
0,0915848891458896
0,0917547310649601
0,0875124104985481
0,0901457711924875
0,0929734678061505
0,0899466036151392
0,0887889220813137
0,0901398779654592
0,0875796078442383
0,0869929617433653
0,0874925632844249
0,0912878977509062
0,0902315318975146
0,0856681627953441
0,0857072831435529
0,0852796273570298
0,0884647815449555
0,0856171431219644
0,0852832781117866
0,0831705630665896
0,0851834763045806
0,0846546993910937
0,0806620300367067
0,0832779285676096
0,0825080942950265
0,0817586550568095
0,0827312631401435
0,0808411409145996
0,0815792837556868
0,0829574404283823
0,0798401421002408
0,0796895101023659
0,0802617346883376
0,0802001151904583
0,0783327283361128
0,0785857547738067
0,0765305986440924
0,0750414355449644
0,0763360775260007
0,0786793100487495
0,0779657847249011
0,0765249725934274
0,0752213816289138
0,0765972971619901
0,0756525259796805
0,0771238816027208
0,0752451828712443
0,0751401642767702
0,0732671717455086
0,0748350208172181
0,0740433024718446
0,0729182884942494
0,072743233297143
0,0738661521589153
0,0699409667695439
0,0721550109720688
0,0724569908523579
0,0712292238787779
0,0711948398983463
0,0697872396899704
0,071222927826315
0,0695171081889236
0,0672010965330467
0,0670091341372409
0,0697296198676111
0,0698678876520886
0,0690815050289705
0,0699087945190396
0,0668840445862047
0,0692220703033542
0,0685692455689596
0,0676274382284659
0,0682836119419054
0,0641780126483516
0,0656856957511381
0,0648891758832368
0,0654787876062728
0,0638233085001341
0,0643725806071086
0,0658648747359557
0,0657462387538721
0,0642674768395805
0,0650585609925862
0,0657522566744561
0,0638462022231308
0,0604255266082901
0,0624674625277939
0,0634063842920574
0,0648518269251036
0,0641783529041389
0,0622080799006003
0,0613112068092987
0,0619361330801491
0,0607333601897786
0,0573164040531059
0,0589454567275667
0,060293519915806
0,0597015883344571
0,0598434591296053
0,0589323045565919
0,0565262228988609
0,0592593135735761
0,0625800580503716
0,0589207497789211
0,0606970981840547
0,0594180854593195
0,056757248417187
0,0553339036175854
0,0605502612392502
0,0559926208337455
0,0575979152728849
0,0572651124496347
0,0581363560665114
0,0583647151123853
0,059144684527197
0,0581980360665849
0,0585077290886498
0,0552425476331694
0,0552597132366535
0,0569327719689762
0,0569491795892552
0,0534316506538351
0,0533843942705484
0,0534592766548331
0,0560945897456309
0,0540883017008624
0,0550266803407621
0,0523516316301203
0,052248144622848
0,0542520827651717
0,0560788264507795
0,0475942290384726
0,0472719160667139
0,0486567674998823
0,0496575552856122
0,0487617825005048
0,0494105886223915
0,0457397781290814
0,0533703030950779
0,0508249598358097
0,0516745821430087
0,0459274471491605
0,0527961599138252
0,0500076869140326
0,0504032314823101
0,0524245661358548
0,052405373130294
0,0487248902841394
0,0500894376651315
0,045973103817744
0,0526493962662321
0,0466205693260857
0,0499220267886197
0,0470785683471084
0,0511426721718476
0,0471306183810955
0,0521328730136304
0,0457396086138807
0,0541933081127813
0,0444561140719007
0,0504036103993277
0,0457945742015737
0,0554512329645866
0,0456529811527786
0,0553109472011269
0,0434796932533717
0,0563827225535655
0,045388008023382
0,0538860946125127
0,0438777269097175
0,0542491585511975
0,0392470251331002
0,0532162874212197
0,0418470918288189
0,0552695883835857
0,0401207311038279
0,0517367158631301
0,0419222018978134
0,0529469465431527
0,0406018942767732
0,0493708537869908
0,0411149591600589
0,0464161520884453
0,0467259085000228
0,048390739341377
0,042404177124358
0,0404376961151994
0,0527836280542856
0,0415586743884859
0,0519558280352046
0,041318915238731
0,0591436991194636
0,0382005845115326
0,0561739365935224
0,0391667509734483
0,0529770536820732
0,0404097674021545
0,0501733998280189
0,0418516178410306
0,0483129835625714
0,0453912342813509
0,0463990553854411
0,0456154025978565
0,0463894872025191
0,0450549176627619
0,0465027827165514
0,044222986116988
0,0469502617210383
0,0433286455283958
0,0488161661285888
0,0446840081642325
0,0487670216604225
0,0439838985359901
0,0469959417917591
0,0457918483976943
0,0461923423559542
0,0434552438018266
0,046624641259845
0,0434445838401258
0,0476741916565558
0,045068340209349
0,0462226247902237
0,0432075312908933
0,0476537141434014
0,0438071471584675
0,0464771590338035
0,0443825429192469
0,0462950805865362
0,0459220574199613
0,0481358917790258
0,0454413806186145
0,0470533869725713
0,0439540477838264
0,0437085010937156
0,0404230383747027
0,0450632801044583
0,044710681784734
0,048304507183031
0,0443067229038233
0,0453922311636443
0,0435343392086361
0,0453819502901258
0,0434515058015838
0,0476024946581155
0,0453320137906058
0,0450389634057837
0,0435874156281106
0,0454784098676666
0,0437199066884288
0,0442996086497807
0,0440623558489024
0,0464285181797675
0,0436404921084235
0,0460427152587946
0,04401297512377
0,044665351753584
0,0446144421998828
0,0464780594131374
0,0446165513866582
0,0497739995466788
0,0460240470002184
0,0479691133146332
0,0451268819282856
0,0431074973427569
0,0432668094513591
0,0478409638157207
0,0443436427300436
0,0447247914126457
0,0458031615797136
0,0473720376091784
0,0451210291345527
0,0448674420059366
0,0430581233735236
0,045788991331622
0,0452441447205336
0,0443582778676872
0,0432727525546293
0,0449930825305178
0,0427802230096033
0,0441682461620514
0,0460251874021816
0,0448473832635085
0,0438040120124496
0,0460974689072938
0,0445795447064862
0,0468481550787023
0,0447750468907282
0,0474245221421634
0,0459812220843603
0,0473234658553671
0,0456919781080276
0,046592008251887
0,0458108997839317
0,0466939707201085
0,0444845475996528
0,0458100879741831
0,0460550584420871
0,0467342249158146
0,0462090029152717
0,0465802731958337
0,0435565084755546
0,0454295093695573
0,0474211491366387
0,0466460794839532
0,0440172127146742
0,0476067427514822
0,0448850182270885
0,0469954011781885
0,0477780459562824
0,0478314462174796
0,045789842980125
0,0469807356727671
0,0476610847225401
0,0468890623120199
0,0458936293148272
0,0481368968953322
0,0469658466118362
0,0463381367973605
0,0451921537112707
0,0480247760520131
0,0486196633562767
0,0488475944537457
0,0470872467628273
0,0486215466440989
0,045881072109461
0,0456719033732313
0,0458167981199233
0,0479578425717883
0,0461304835993336
0,0472376570063842
0,0481489212636816
0,048564961925693
0,0481435497678574
0,0487095279364116
0,0483281290116518
0,0496380531225042
0,0468819868889317
0,0482982500417688
0,0481584526157847
0,0484209793535996
0,0472973760796879
0,0499788718916292
0,0494526244163572
0,0492113621632896
0,0495606363666438
0,0500124386502547
0,0497193717252481
0,0519902871369855
0,0488327663278207
0,0485646295496238
0,0486347583859039
0,0506020802309727
0,0480605357340119
0,0507039776999
0,0507935802770332
0,0511336630555025
0,0502891835061607
0,0496613231528885
0,0483446122479926
0,0521364697554857
0,0516351219515437
0,0495329165066205
0,0473579263113818
0,0500725628151454
0,0504813214966462
0,0516053178605102
0,0516154565659127
0,05007271989396
0,0500349254909223
0,0503224831059562
0,0492166821526002
0,0519992644746981
0,0504912248648942
0,0502957470721427
0,049884106612687
0,0504399917924632
0,0476193315519012
0,0496589536908402
0,0504404093448876
0,0506314832506898
0,0490144353352303
0,0511809458015603
0,0511233032019258
0,0512631784411808
0,0496432194818945
0,0487823575223623
0,049951921688083
0,0495621453067626
0,0472080275875035
0,0482428939354864
0,0486697520650351
0,0497528592136403
0,0469753250636754
0,0476002042113929
0,048406659703838
0,0496628104269935
0,0486953571166841
0,0496236981669135
0,0494533432559835
0,0490943291664329
0,0480459255530852
0,048007242011591
0,0463340159702912
0,0475407513309902
0,0492009517553114
0,0477764519930289
0,0464071696649907
0,0503040801041655
0,0480889932570112
0,0461042680370663
0,046588139800935
0,0478905498436488
0,0479379203393504
0,0479570129507505
0,0469722909465583
0,047249616123575
0,0449020985571672
0,0477942085437753
0,0478435323162534
0,0470845376615272
0,0471738799418497
0,0474464894958585
0,0451063071610441
0,0462046913295183
0,047040897080205
0,045652663133544
0,046444301492836
0,0486415897944474
0,0456004489683253
0,0460195529737697
0,0482736169900965
0,0489982956795156
0,0457956485213111
0,0435694779736396
0,0433698352301354
0,0464608871660171
0,0451596530440253
0,0443015226956477
0,0449387638665206
0,0451345079409635
0,0457453621538033
0,0468670252520978
0,0441239261108703
0,0460978210621219
0,0458361258803622
0,0448406895488244
0,0449240560301028
0,0493324097976215
0,0473504633194557
0,0466145864729745
0,0475930576525883
0,0484076816499329
0,0469149783154727
0,047246585112207
0,0477518019042069
0,0480491016360783
0,0434999928896532
0,0458922149733116
0,0474637432113959
0,0472026214654184
0,0465662582609525
0,0483520523336445
0,0463038317126883
0,048177458887806
0,0458723818631206
0,0478112998043224
0,0479443942599845
0,0421605486423901
0,0441534288557512
0,0480134398027553
0,0485726010920506
0,0472422518930345
0,0461804366301144
0,0473139928937205
0,0459524412975176
0,0454763231143736
0,0447446228451577
0,045523241279279
0,0458377542170479
0,0474780620022017
0,044164591697054
0,0455924802280845
0,0471342194311979
0,047323483068711
0,0443702983431671
0,0460854911486871
0,0437137715682355
0,0456861102424016
0,0445713016766984
0,0469306441930893
0,0451135572947415
0,0446615601791174
0,0442629551060402
0,044358698639056
0,0431769768283798
0,0424695094627871
0,042017044336521
0,0456691354903789
0,0448716651928234
0,043620489870907
0,0419402281668682
0,0439948551238477
0,0431293316345764
0,0454414692680722
0,0438040480941861
0,0443762250323768
0,0441207299711329
0,0438143097604398
0,0420034827128693
0,0413202282332735
0,0415237649903572
0,04359862351869
0,0435094097837383
0,0417932648325421
0,0424269464647354
0,0409123262624895
0,0411393961855057
0,0428084043931075
0,0415264789220115
0,0404619203288493
0,0415496226298773
0,0427037548157472
0,0421573007175793
0,0410146695515248
0,0402625540487315
0,0384749995489721
0,040235361935202
0,0405064591101632
0,0390043767091358
0,040274894266468
0,0419017315713504
0,0404930819794183
0,0398187148035645
0,0404851786934742
0,0419082385281549
0,0395694725812815
0,0415211992423172
0,0392176084164537
0,0414832879185638
0,0388471649484198
0,040465894927111
0,0425735530209078
0,0384898531516023
0,0380168467625483
0,0379747060198815
0,0399504129073504
0,0388982409756461
0,0373279024972181
0,037810779186091
0,0382745388716048
0,0393358904263562
0,0404131549416935
0,0391057929744977
0,0401108119969148
0,0395655287627611
0,0397997527334149
0,0389843561460346
0,0415120340125274
0,039391983830255
0,0374448768326566
0,0392607620270489
0,0376987357168957
0,0379632109725155
0,0400510771734828
0,0376256173569828
0,0396134810743104
0,0377685531815991
0,0409669124714574
0,03762061834767
0,037933956117455
0,0400702238537989
0,040195224383572
0,0370851188629552
0,0400246327221643
0,0372799740631396
0,0397834941526191
0,0388046747571879
0,040039818655998
0,0362265614099647
0,0369139423544139
0,0407530762140127
0,0374338693251513
0,0348557952299697
0,0392827111113167
0,0371577557097622
0,0394352997167843
0,0363791229309955
0,0393171826216849
0,0365749912158068
0,0403102289374457
0,0368360996261734
0,0395267137678063
0,0395433232196281
0,0362741883988261
0,0373225115259534
0,0371456027918786
0,0383838101550918
0,0370637250200849
0,0365375666362731
0,0379942422636
0,0384841671861796
0,0376016260007661
0,0389069379342645
0,0376160400299541
0,0388399163148529
0,037468465043543
0,037858963369382
0,0382544713019766
0,0386689970770348
0,0357021702276329
0,0386823549281292
0,0422017954353481
0,0406999321020015
0,0377106196441568
0,0372556277231936
0,0390019528115584
0,0389668564951434
0,0364636219969635
0,0420701392748239
0,0356959884860354
0,0384530284875918
0,0369851753776012
0,0395913536995577
0,0370839181620794
0,0378989628972973
0,0365219809911837
0,0369992358902448
0,0378480596499082
0,0379474110360501
0,0371256965229271
0,0364198857721504
0,0381150441188395
0,0399366818362673
0,0398267836899701
0,0387779302318301
0,0372790110645808
0,0368679235905316
0,0382067813113459
0,0400094204135838
0,0396161215756094
0,0398183547613838
0,0369954288935997
0,0397570012824444
0,037630041457578
0,0391225054994958
0,0387181346276616
0,0387871348426637
0,0379392981531933
0,0354681618388911
0,0357625438748689
0,0353979943497755
0,0399923274696616
0,0378325125817525
0,0424127588557466
0,0367517452938473
0,0390461717078531
0,0381497657051677
0,0392709991148412
0,0371436408686857
0,0397419310606656
0,0372550938326832
0,0372968370688831
0,0378802277796318
0,03824876240397
0,0361430594117083
0,037808654554624
0,0379652923302553
0,0371838456838026
0,0399483867704267
0,042227291796038
0,0411459969528666
0,0379424528923277
0,0417050436573351
0,0385126711879322
0,0381395288299904
0,0385159615424932
0,0381549652459297
0,0386459811160216
0,0382848210307383
0,0412396136431895
0,0362762722342979
0,0396244266051072
0,0387870709050352
0,0405064451249917
0,03836898918299
0,0378478283702657
0,0382762397417218
0,0389538945960213
0,0362320926421221
0,0390342323700368
0,036500122184315
0,0428872293306793
0,0374713938379909
0,0447319178949794
0,0356941084656071
0,0452141219291958
0,036133121485641
0,045720196429113
0,0397690189089844
0,0385995819626225
0,0397094536733393
0,0387637242022784
0,0397436874783427
0,0402250023985281
0,0405606744878208
0,0411268976299602
0,0417432455090547
0,0424413543782832
0,0395357683929584
0,039307301475769
0,0428077038880502
0,0434692325204773
0,0376399497998502
0,0443776720423634
0,037622762234278
0,0450084586508013
0,0413619368576785
0,0412285546075247
0,0438773072313997
0,0392855635556726
0,043791767759043
0,0398426013633593
0,0443443362371251
0,0429607987690882
0,0418674407240331
0,0413713579139624
0,0447069923588968
0,0397583982528125
0,0391539370837871
0,0424757817592602
0,0409460649467107
0,0449472915473587
0,042857318293592
0,0439952112474373
0,0435214632854507
0,0401475497293977
0,0452872724618797
0,0441427876594951
0,0458080197498721
0,0420937534367557
0,0434090975211272
0,0433561045354854
0,0445701654557211
0,0473623680870576
0,0447733041786016
0,0460100530726301
0,0429500195276742
0,0417487844618161
0,0493121701236392
0,0435376535944346
0,0491438578325277
0,0420321086576557
0,0468465783499941
0,0516043531985335
0,0430298421358406
0,0485615667462757
0,0422406381566434
0,0489022272407244
0,0451744715745025
0,0527193226728505
0,0405414620265062
0,0505915237984305
0,0407466536524051
0,0526548740432428
0,0461223472329709
0,0483911002864462
0,0476544880468232
0,0499394925432768
0,0459006147852221
0,0529073123406064
0,0478583178113702
0,0488949875168147
0,0508375108760559
0,0478756524108915
0,0541401864235044
0,0493536923835001
0,0499227117744104
0,0556345259788915
0,0433994715955156
0,0542837493168712
0,0478863337690027
0,0549620738027113
0,047353090022941
0,052512168405811
0,0557321887907504
0,0547938746106484
0,0526646837864594
0,0500968390406017
0,0496768803489816
0,0567709336076137
0,0531625649964884
0,0559337150931387
0,0525804667300501
0,0566070800750125
0,0504501404728185
0,0635527250099667
0,044040262232486
0,0625370183815254
0,05491998055075
0,0586332850237864
0,0605504885782684
0,0579025605735779
0,0588295229241431
0,0582346990089523
0,0616750930688885
0,0587034991979453
0,0596497642195995
0,0615255571327594
0,0631171319385509
0,0571997361674034
0,0652230024828123
0,0585448064761561
0,0677048482664323
0,0665996048233434
0,072850090574809
0,0671566068399458
0,068248137631363
0,0694495451749723
0,0767744312465488
0,069058628365657
0,0762555886944807
0,0709328355791845
0,0767618187574156
0,0734888245537731
0,0763137493597628
0,0782704716698571
0,07687966911797
0,0789756935299654
0,0796385601754897
0,0820237372843387
0,0846620115781038
0,0893244299441226
0,0958346332213319
0,0802485425240544
0,0943103282385468
0,0788589031049724
0,0921403122701262
0,0852662698703496
0,0877398487498515
0,0917054957836717
0,089275106083703
0,0913323910868807
0,093179221864123
0,0973076734730264
0,0924963810573153
0,0991013804347068
0,0987268258181414
0,0964040685313195
0,105205390238122
0,097387792883884
0,133153968719698
0,0740817374817218
0,109913234603065
0,0990172468882064
0,120543504493083
0,116420719266564
0,123460647052253
0,123193834756928
0,124565338017378
0,123698786821739
0,131452135818522
0,13083145139639
0,136631517271757
0,141160092899027
0,141517663401341
0,145392770502122
0,157691884817659
0,158243980476624
0,178443421167291
0,166032643246328
0,165101182507542
0,173954687448955
0,17869769494421
0,18459752357546
0,189197073135955
0,185728431076526
0,198066872351701
0,206672256559899
0,202194502789491
0,212352258595305
0,21064393187062
0,225742145870506
0,217704082402463
0,234050145369864
0,225352667155024
0,241406968293503
0,23625070624329
0,244937555012053
0,247680414489512
0,248932291365705
0,264833252234048
0,264533476010505
0,264300609839942
0,267084946618831
0,270261632466063
0,274666957329908
0,28015454008043
0,279617033685494
0,282635487008536
0,293119390488444
0,290241230666506
0,300778006701584
0,279725513945848
0,297694695448796
0,293109369168394
0,288668567535093
0,300427920658077
0,287243185117224
0,310301961546918
0,29725187382452
0,292049158486041
0,300969978040251
0,294677711830353
0,302721690492169
0,298989271418549
0,303278211963618
0,302509129665396
0,308971116352199
0,30487192934402
0,310957184725609
0,340738595815982
0,313563062833305
0,299834247312619
0,301009190148915
0,30339895844607
0,298714749223177
0,306870179807889
0,304740574157912
0,311301265781034
0,298728789904202
0,313252093794269
0,300157171585237
0,304242470570048
0,297013468831059
0,304532604667257
0,295932935280077
0,293855370322183
0,296674775020486
0,292273482595436
0,291546464349035
0,300510871954605
0,292745511589397
0,287598002375975
0,281033749517241
0,287959462214662
0,28853849827865
0,285674478403257
0,283473783990297
0,289270030417503
0,277282453602902
0,289063912819774
0,281583277336667
0,288736125877554
0,276962069154541
0,280090795757234
0,275950705287503
0,28535423990876
0,280174070006877
0,27796200623294
0,277076692874923
0,277696624390324
0,279262221263194
0,278209670809359
0,277705616232923
0,280945669814251
0,278561131621339
0,285382991968142
0,276528154639802
0,283223968521782
0,274354047271362
0,277174364877906
0,274963489135333
0,276942256393998
0,272851232218683
0,276917501169405
0,278002879604259
0,274076211564196
0,268390521068903
0,268563818771488
0,263858649797323
0,265969426033599
0,265230712126844
0,260719211678956
0,272794087275477
0,280150621980771
0,258101451168069
0,26198719915753
0,250733733947249
0,256061568725748
0,248538633769891
0,261834791728278
0,254791616392926
0,249036513895043
0,244878721223992
0,243908471055042
0,238119996136244
0,2456010977867
0,232193731040391
0,241257573871095
0,226591838293645
0,236573074481333
0,22712872810208
0,251861130633874
0,265101543317868
0,241085043435373
0,22097161280267
0,219399250106698
0,231002254868129
0,208898935654875
0,222868133306876
0,211068429010656
0,214912897121432
0,211416403736593
0,214822092558322
0,214813581681101
0,20619246671861
0,211628770369943
0,210000788764946
0,217462606785051
0,207803261715032
0,226636135270723
0,198616984984738
0,222043462999899
0,205215757916475
0,230810839920385
0,19234676601734
0,194784938508738
0,194030948113864
0,188638522666313
0,198447473818526
0,191465062026907
0,190883800351967
0,1878765587154
0,182074227686359
0,186338871065166
0,18105373232284
0,189294704361922
0,180389993966071
0,204021282003572
0,168369846042016
0,185109166241868
0,180285902089049
0,17932549980324
0,179088324342714
0,188796169137637
0,168849101285111
0,178251179407594
0,181757469325008
0,16870161497391
0,176399561986656
0,165920872818076
0,167689456613182
0,175835119173934
0,162726668076143
0,175577315904297
0,166712897873809
0,174709189101364
0,179369755857979
0,172402434702722
0,189259107900844
0,162157564075501
0,162909643445961
0,164633981884179
0,159003606726018
0,165438808097442
0,157281143192663
0,168628428419297
0,166521981864399
0,165726625560391
0,177414851993272
0,163813735077449
0,169552864430809
0,173059691428057
0,171123842683028
0,176751548167115
0,176029546028208
0,191090933307602
0,190476677778037
0,183628012795834
0,191208810951
0,189272835492933
0,192512560082675
0,190005369650738
0,198471936589403
0,197926390977574
0,202759142662671
0,209112508190159
0,213877928140593
0,214487265247068
0,215313153019735
0,223179876506341
0,240884980468655
0,225514412981116
0,238465188079862
0,243622836617172
0,251925999946121
0,266931954333846
0,251630193305766
0,257559344094773
0,260977366854728
0,271629226201689
0,269965404513716
0,281707333070703
0,288488035314153
0,281311598211447
0,290267404177186
0,292827154378811
0,294535183823712
0,298660343025991
0,300467220659859
0,306771193679623
0,314686315152552
0,344080458727179
0,309525049663376
0,32226455303194
0,310103796075742
0,318522713802843
0,314570478860823
0,320160246784426
0,320748547034492
0,322856925426552
0,335124332768349
0,332382744681791
0,329899568775151
0,338729878711043
0,329435516647867
0,341001279089633
0,332182506627955
0,339289416666417
0,34458926965448
0,34491638102173
0,348765736493709
0,346389838474389
0,367135542701159
0,359028643123373
0,35717213238681
0,363878823014661
0,363695066398548
0,373013636615586
0,367025117644922
0,375598637234781
0,384646569779098
0,380289848637822
0,383216777667813
0,383436987537099
0,383656647278119
0,393340303438463
0,396580822229872
0,396044403918356
0,400364004729946
0,403515639733142
0,396288973386888
0,431694577219048
0,415659170291458
0,415135779222788
0,407127136630282
0,422031155681903
0,412989025053766
0,422000618432741
0,416958813678312
0,42412380860465
0,419140975773123
0,426679920732079
0,424205799104988
0,42432203653869
0,424254421087183
0,419701645450418
0,42664543421133
0,428856991432633
0,419283790558482
0,429837483567427
0,422963145805407
0,426624160307839
0,420257827892507
0,431725404608716
0,425647557311362
0,429631788536935
0,417361013545976
0,428421664526449
0,426537361303163
0,423485398235488
0,42042820437809
0,427665115398366
0,422795761407278
0,429992782177879
0,421723613868455
0,437237847900005
0,42419599226236
0,434473244494268
0,430032163814309
0,439372758472442
0,438638135963597
0,446323574258308
0,438642797919189
0,450947621826602
0,440770022517516
0,447463501553486
0,453590775158258
0,450877143919998
0,451908725601737
0,44937403861191
0,454343876009044
0,459055621462727
0,449975603409518
0,451016785445506
0,447666427119588
0,449858943799472
0,449521527393629
0,445860695623003
0,439019849148278
0,435905466058863
0,433927623064383
0,435638860785133
0,43818867624198
0,424328328999357
0,428744850390659
0,418215895005931
0,416449152440187
0,414859287568102
0,410790455102365
0,409493331408482
0,402524824224325
0,400901217061868
0,401712801609993
0,401916010056142
0,397634756286168
0,395154896149226
0,392440588461905
0,396866612432026
0,392244534564614
0,393224151680784
0,393671273967677
0,389136843070895
0,386102999064636
0,389178561066221
0,389244295937073
0,389988156791081
0,390974273194532
0,389193110085378
0,393580486832127
0,388907701581102
0,388758574933409
0,386035439910649
0,387983236037065
0,383289177924519
0,388018723379347
0,385770188047059
0,389507055564556
0,39054720327327
0,386156060619216
0,387943496278042
0,384946153344406
0,387184781494238
0,382569284715826
0,380593959792831
0,382013736632389
0,384042067075089
0,381307282009768
0,381542372798151
0,3859755407241
0,385051470541199
0,379869227692555
0,387143874995955
0,383465932015879
0,386601091744332
0,38465351314471
0,385128047570491
0,383999785553826
0,381663739625973
0,383708304346952
0,379799114161121
0,379755999918983
0,38525504997187
0,380506350724288
0,382995560016532
0,380342006173765
0,381017669903768
0,3747152280038
0,377879961649894
0,374254175430326
0,370932808229562
0,368565929010717
0,363565568790248
0,364060280264286
0,366310665443805
0,35990468517503
0,356914854708094
0,350239121630071
0,353464652705585
0,347355450547947
0,344078252706896
0,341334578849092
0,339786660747378
0,340544969273194
0,336628885869981
0,335222816543416
0,332151151470591
0,33232798718708
0,331554746713298
0,333228990727978
0,331250818653548
0,328839346611081
0,331945121313169
0,32761712410466
0,328902041846387
0,326173177902261
0,331209103239089
0,329826929488281
0,330633832229469
0,329241543691093
0,334315900109093
0,330829975540941
0,335515246814486
0,333870872825314
0,338359947425938
0,338601442326189
0,340434421540353
0,343264282806281
0,340518043557124
0,342521421143309
0,345265164926355
0,344697025387927
0,35115151185299
0,350375691273777
0,35014178319756
0,346550445835439
0,349835488998645
0,348758044916036
0,350048240487855
0,350333882620044
0,349727583305921
0,346775905860962
0,348966766281845
0,345226416863277
0,348063257134823
0,344923228955678
0,344474912002229
0,342550686200451
0,348314560283882
0,338664001985838
0,338980594187584
0,339006895818799
0,340524979966055
0,336482253131093
0,334957211460416
0,333304826021527
0,333897018962928
0,334505175213502
0,333057969116235
0,333177965789722
0,330526453135712
0,330233614627376
0,330756422461245
0,326938290528972
0,327809094131155
0,324969449253864
0,326182061197966
0,322848063750564
0,32340470530249
0,321848192316279
0,322158623570691
0,321575297910954
0,319455467949294
0,318167670501318
0,315991485822638
0,315530856210518
0,318076160182394
0,314678022836815
0,311920298892972
0,309682938907095
0,308807122084254
0,307213943794472
0,304665931519324
0,301706499529968
0,299837547227251
0,296439232569414
0,294481497318535
0,292949620310373
0,289251718522448
0,288050158059521
0,288572795511821
0,286271627177036
0,286573226252684
0,284398545618729
0,282438655291425
0,283146758771626
0,284463577627933
0,281289484471445
0,278941708111305
0,278720488156857
0,279704039081079
0,275004815860364
0,272080925701207
0,269723429034761
0,270091295453017
0,268237565077559
0,262928061402288
0,258691412624177
0,254486557990399
0,250143678590888
0,249395224845236
0,246036961098691
0,245006765613977
0,244326704308156
0,244292800847755
0,245187068724532
0,250208904662074
0,252423197696595
0,259001091066045
0,263319314290796
0,270552977196445
0,27951105630887
0,288891979747343
0,297693282294839
0,306258969608338
0,31856862636703
0,330282181056185
0,344756809968482
0,356729491626287
0,369659202074914
0,376842704880017
0,391987827100854
0,399756273250696
0,410135951724118
0,42098081448108
0,433156315146656
0,447110004309707
0,457612004474802
0,471408304965097
0,476604132635867
0,485853574161291
0,494184109436633
0,505269006901084
0,512735528301197
0,519752114456662
0,524736022465854
0,531540541935565
0,535422133383316
0,544619879356963
0,548513450335488
0,555624689690666
0,550572321562639
0,559047920059188
0,561488525515989
0,56171574826121
0,561393849222228
0,565360517012808
0,561486405746081
0,568866010026987
0,566313858619358
0,569256783781383
0,570095496868346
0,569700967142545
0,573486226773449
0,574391882712095
0,577423783509987
0,578297779348223
0,584148168019885
0,587697236842012
0,594310949892867
0,599717574878847
0,601817269578467
0,606262418558306
0,608353455196487
0,609977669225095
0,61777144142016
0,625705252382758
0,634703388806095
0,641201546786346
0,643334750655378
0,658363835061422
0,671246208357946
0,683446342570288
0,685953232489739
0,691279310673892
0,701865766688679
0,710780078961157
0,707451479855674
0,717737262248962
0,724732954272764
0,72439526333562
0,724603119060965
0,721283931190722
0,717370373569491
0,72319851761736
0,71631593066118
0,712962482544506
0,713391067430556
0,714061803000945
0,714906784964922
0,717009023639091
0,721628883940528
0,721457805117006
0,730157789615941
0,745514717068598
0,745685481771847
0,750485561553904
0,763768343461177
0,780373907033753
0,789753001741676
0,802519373211151
0,814418649602949
0,836205081415959
0,844028564963603
0,857634184541395
0,858286145231635
0,871509059657818
0,885463721705083
0,891813738175174
0,905081499393609
0,918689511949102
0,930773936655378
0,954871923561762
0,975061321336978
0,982647299644592
1,00837050505953
1,02898669473591
1,03584004176842
1,05545437057676
1,06742496414065
1,08843738904587
1,09631609243926
1,11415030888431
1,12981151005932
1,15567051332895
1,15650849801197
1,17465247764408
1,19175571015907
1,21698208749144
1,21788894279459
1,22088140309512
1,2347956526702
1,24207069324203
1,23244190815056
1,22435191053214
1,23712003239796
1,22398149376668
1,20345682165115
1,20992217845662
1,26948765327953
1,23840453621774
1,23296293335693
1,23346917862246
1,23101667496616
1,23889500678613
1,26730568973637
1,2628028819053
1,28558920010414
1,29437752716084
1,3111926023517
1,29930638667431
1,32472771876068
1,33404322067278
1,35256682670695
1,36810915021385
1,38680079012107
1,40339963712104
1,43573481914215
1,38573755956297
1,43001518931211
1,46753854946937
1,4388910674771
1,44395680219429
1,4738293431223
1,4716933871008
1,4731242234042
1,51093989968907
1,47565956947383
1,52290435761954
1,54706621884086
1,52871680993471
1,55241486537904
1,58846936511229
1,56697147183286
1,62403563758739
1,62788319321621
1,58833954870531
1,59464055811171
1,52193602034853
1,62002075726341
1,56790183527488
1,6385516351566
1,63350171232559
1,66239709988737
1,6279913266645
1,65810746604694
1,64500857688045
1,63305086206048
1,55881650575662
1,59415397733452
1,50323631609567
1,52669533025
1,52688166515623
1,47048390546821
1,4072943095546
1,38202935372791
1,29902839639139
1,26739229683444
1,2505973983353
1,19488518208092
1,1901192577553
1,15873992745725
1,14635223672761
1,12247241592609
1,10197640131273
1,11708763315148
1,0908928493936
1,08976330529504
1,04807140012178
1,05148770743081
1,06232619833609
1,05903338794008
1,02586931424947
1,00299168850309
0,998770196310842
0,993113292569354
0,971417598026036
0,959685910205294
0,928805527993178
0,905783881666247
0,884263281727828
0,868800827888351
0,846999059104415
0,803578031375914
0,778338427396707
0,747621664679232
0,721660450078968
0,690784928178608
0,653825510368495
0,625931614108785
0,595677058121137
0,563756075779842
0,534229237423232
0,51299571896786
0,482739047399877
0,462118114250715
0,447727638919225
0,425175790027583
0,403183875288251
0,39436025408158
0,381052435565235
0,361392755138167
0,353844342059139
0,343126507840916
0,338021705295883
0,334692053449365
0,326149841520869
0,322868728459825
0,321718884637294
0,317450791927035
0,315834149466813
0,314042773638594
0,315828608301262
0,31556152228002
0,313600451925822
0,31806441009119
0,316737447943315
0,319337939853502
0,319515672024534
0,3187541419316
0,324439894513991
0,321318144336564
0,318118637327604
0,322054682774263
0,316567729958341
0,308319893139056
0,309230152179781
0,30815804067439
0,304567377114284
0,299124895852031
0,302979606466325
0,299727595657607
0,293443109366495
0,290301083363098
0,290188939103296
0,291566157681594
0,293650620225122
0,294742166514265
0,298382807153493
0,298576018121125
0,293194242237163
0,296355620634909
0,298587627658209
0,304323581675667
0,307132966731556
0,309696037666118
0,313594596758618
0,316745407001217
0,311257854931377
0,317562192808862
0,321456122543266
0,317740841361562
0,323125714057382
0,322915496597762
0,321377648181579
0,322846364990717
0,327072063508243
0,327577727368357
0,326759190135021
0,325744650730831
0,332563013498876
0,335105156584147
0,334578456442903
0,338102442412777
0,341153533664381
0,346797371952839
0,350300833220443
0,362264314213176
0,372137941718896
0,378251240553151
0,381862363581839
0,397327699132742
0,41071306314254
0,430577052627124
0,431867685970189
0,438019056583523
0,444578288372054
0,450813850016268
0,455683052419351
0,458887913300295
0,449872380416645
0,454032507999508
0,439252263169281
0,424839380312788
0,421151048845495
0,415637332595781
0,414100334033015
0,404550374759577
0,396713500173334
0,386224549228892
0,387598187192282
0,391895995747954
0,391345225809927
0,397991400944764
0,397458488399115
0,396116333371017
0,399251559803147
0,397722444870529
0,390664954952616
0,3938909138218
0,380061595902492
0,380371223012889
0,371583714821153
0,369347633110437
0,363751998340825
0,366000760238552
0,361270250707511
0,357642938201945
0,350311451081024
0,342835537936446
0,343988056722047
0,342887055029231
0,334763429092326
0,330910289213728
0,328223058011057
0,323907744496425
0,324169843009457
0,326456917544704
0,326989301440703
0,325963453317264
0,312411861747535
0,314775423318097
0,306531817007939
0,309199450635748
0,31338322364656
0,304901590567205
0,299774893766616
0,29867156774367
0,295238218540157
0,299087112887121
0,290130571977389
0,280724716925845
0,279751605373346
0,292553940288682
0,28098603406258
0,275872919370733
0,285872544059876
0,286323602769486
0,283217647519497
0,277571476753443
0,278699112527149
0,271124709775825
0,263608843500804
0,271074773130196
0,267677670596678
0,267326678132066
0,268110654078224
0,264225976544018
0,268179814881521
0,277179363474572
0,2678815938312
0,265900734296309
0,278781311730053
0,276561798040543
0,265475820946515
0,276470218141845
0,279371554989982
0,273874773206411
0,272904195515909
0,269912121266879
0,277383354176551
0,273845080120531
0,284079635957598
0,286161752977236
0,280282386436701
0,282015424968465
0,282737073766449
0,304042551958456
0,286690690213468
0,287405335439961
0,298733766066987
0,299999944794595
0,311224252722465
0,324394879399284
0,313095185444592
0,318027324953643
0,322502684233002
0,318440562845925
0,331967449184449
0,34500730234899
0,359982439300489
0,365962498217562
0,379228484171431
0,395033427635155
0,395501567670471
0,438771914713876
0,447793545548933
0,432548159471858
0,452500332599286
0,483104344695417
0,483816280615517
0,488338225245089
0,494568745928613
0,51235188756016
0,525728081794278
0,498224213348815
0,494678103735715
0,534490343569742
0,538260311011431
0,530674715070903
0,496499454465769
0,48125912970528
0,497238140054773
0,511938221955573
0,508706232466296
0,505812732677711
0,494322528282009
0,492401792101924
0,493683844860575
0,482177875001062
0,473722766358979
0,509693400431543
0,498396459593204
0,483258466647606
0,469829000990653
0,463894632363741
0,476454323870625
0,493268349613414
0,459074274619883
0,466194680324934
0,460553251204439
0,450342669281937
0,453523753291869
0,448007030943832
0,430641348915389
0,428113285363565
0,415399036916663
0,409600737841596
0,421533976571428
0,419386058551407
0,41103444582436
0,414972065761677
0,424841910155437
0,431033079495589
0,413527605173144
0,429759562010712
0,446486703470935
0,424882283521742
0,422663582387425
0,414180020691374
0,416757615481044
0,43371622646301
0,438078929806889
0,441006416552294
0,428265848997234
0,438399671275586
0,431129694864668
0,439745541147061
0,434482192191767
0,434358698289366
0,435054426697505
0,463335310917963
0,450878905045328
0,432900405914961
0,4290773646966
0,476773058272978
0,471414917678087
0,462280937086637
0,452949192206136
0,448365402207291
0,520991980507434
0,530725164436127
0,517536236747475
0,479810260972703
0,462192842127967
0,495762097464813
0,531990209389164
0,494492518170246
0,492721216141919
0,516718801240413
0,560871362938323
0,564736407213734
0,479684413155553
0,564442789196998
0,60670932191495
0,63242790932916
0,627273155953567
0,586395948035238
0,599771200998462
0,597361453524006
0,634098835005859
0,612145713513295
0,612633977876555
0,605377766119187
0,569280571732048
0,624409842078266
0,628090059784724
0,676235947284734
0,600381739953836
0,595084137308979
0,65472064841601
0,597251963016808
0,563436979020683
0,621420567394798
0,600869929719614
0,553562844720638
0,634442223871011
0,623153913353696
0,518068852689538
0,541408313750156
0,547406150435155
0,680153141059837
0,670706130930736
0,471553713557187
0,523158301188554
0,626715616079947
0,601446726458756
0,551919585348655
0,540291270990839
0,607694816193322
0,643379777230319
0,655374450768403
0,650321760216578
0,622194347034386
0,593943347576079
0,601877639782373
0,682574582241539
0,591770504465043
0,67300039568361
0,363579755319806
0,375227632623643
0,732867368442674
0,619745039210281
0,643477439488825
0,634923099384227
0,719154260165027
0,801231280092186
0,869877049126955
0,739149064379299
0,517502034686534
0,574320177575814
0,887109743410995
1,06368726213153
0,609128704402247
0,568642526672618
5
0,936076049981261
0,446145908906791
0,586581035557821
