3596
4000,36533379555
650,420452594757
1
2
2
0,0326217637119433
0,0318714577883243
0,0204922885201802
0,0267668320851998
0,0252708403204709
0,0261549362464764
0,0301402675986411
0,0349533142511293
0,0377112311326982
0,0314116761709853
0,0319200398559267
0,0274964133348648
0,0222230371150248
0,026889359289034
0,0268002598523132
0,0376212054905397
0,0294219566315652
0,0265668790853166
0,0256479004287564
0,0369807053274241
0,0246993200766559
0,0265681332257166
0,0179786735976031
0,0316184230401739
0,0291987286301028
0,0245904982217921
0,0201044682006324
0,0283882404564005
0,0263691571842397
0,0402614089909098
0,0297229521036313
0,0317835710002712
0,0242830306671452
0,0305085701625161
0,0210171853298386
0,0304610097564395
0,025920102431769
0,0326258849089864
0,0279713465213876
0,0299229213359928
0,0249210306847527
0,030199593296469
0,0191115631181191
0,0231322464189302
0,0346404648331571
0,0290380734619105
0,0219398918124575
0,0191571339050221
0,0280862507845609
0,0275934313739598
0,0241231266959401
0,0261266927748446
0,0374976804024614
0,0253986850138362
0,0326131590111394
0,0298141077534553
0,0190341367312608
0,0241010800182826
0,022227585477889
0,0285992415922595
0,0292410339381745
0,0188149593413793
0,0342375715757934
0,0171230420558727
0,0249191340658886
0,0211442296539152
0,0296311021103707
0,0232603659617037
0,0278787522934915
0,0345657271516888
0,0180615814799672
0,0404861684604879
0,0119464364847604
0,031390509315705
0,0274391642833456
0,0310201965751876
0,0193230901355817
0,0250815929463885
0,0222831649748363
0,0427375179679997
0,0202694293123599
0,0310356977611848
0,030369023310739
0,0253063291589866
0,02643587113573
0,0221677613525044
0,0154187905692696
0,0497138207529807
0,016890862279602
0,0226723879259748
0,0165581937410386
0,021987625621649
0,0197890127387452
0,0210428794975863
0,0212569840327357
0,0293638325721049
0,0147183202870658
0,0355109382666664
0,0115335783538422
0,047716434050783
0,00178355569890279
0,0655309892503987
-0,000659997721224801
0,0286949618367618
0,0456293408917638
0,00240569544284863
0,0476598847661876
0,0189953681160458
0,019509868315418
0,0222337622735912
0,022562043245388
0,0197465625218167
0,0232055412541647
0,02999134140121
0,0176798956520335
0,0439168542681716
-0,00257577223107396
0,0357584268752393
0,0174720994949164
0,0396558803189474
0,0140405892205044
0,0625432659752709
-0,00546661806286496
0,0328059009408271
0,013637834338648
0,0232142298420405
0,0266218251885657
0,0531730073089222
-0,00653768226063752
0,0301994157228181
0,0107905132521319
0,0345146090524975
0,0139950900208903
0,0435677014541921
0,00986385077269211
0,0174143824235337
0,0194632516992678
0,028644009071496
0,0387598800584687
0,00656168883881694
0,0160335804398374
0,0286262144247144
0,0171905177979592
0,0491638881830276
0,0119750344018688
0,0224135398098803
0,0257555133272171
0,043045146270422
0,00116660513091973
0,0343562431269691
0,00850645512228215
0,0386903343732646
0,0190748189324412
0,0188543732534927
0,019594305940898
0,120216797893097
-0,018537338999432
0,0891861963936839
0,00231441352219861
0,0238165765101554
0,0226217676904788
0,0200582335632973
0,02509441532283
0,0202835276298183
0,0253967297288124
0,0219634860728266
0,0297503648215283
0,0111045395676654
0,0293872973505648
0,0370019534133645
0,0240995450482209
0,0160498255558847
0,0240505422871776
0,0543830196887462
0,00922068465722577
0,052256927812914
0,0112204233106941
0,0281300746627812
0,0140457054843451
0,0407471200827268
0,0110018238065675
0,0286019595713228
0,0171569694747634
0,0197000169445643
0,0164153470047808
0,0242784390469158
0,00983513339434645
0,0269312356886273
0,01663717655702
0,0366476432434829
0,0193054222999477
0,0529977702079842
0,00896162767418129
0,0247909856955654
0,0121808565905323
0,030823925817766
0,031570057533653
0,00243898403402632
0,0155498479913934
0,0224821315487764
0,00836928554537311
0,026794548683346
0,0210885387922425
0,0269015872090355
0,0121903475993524
0,0392157600915858
0,022455735588176
0,00578584007792453
0,0205326388390647
0,00986138012949604
0,0268755688844787
0,0186451672434245
0,047124146038468
0,000311667961076246
0,0191063712420579
0,0219075912014583
0,0213705595444427
0,0356655114795324
0,00975021560803865
0,0243051437218765
0,0203639247033722
0,0220188259982431
0,0112369545669329
0,0175158392298947
0,0121327126298469
0,0155555583671154
0,0222068425809638
0,0272166061878537
0,0268862325638017
0,035569994518655
0,017573983687904
0,016593453012885
0,0199398147594703
0,0201497613265891
0,00614758798903834
0,0477433154165876
0,00779616848756026
0,0212079671348419
0,0137241794010244
0,0228878540536121
0,0112385832388895
0,0219582867555808
0,014152537894815
0,026777899706462
0,0190303456364543
0,0399246794610408
0,0272639988855961
0,00773698183674167
0,0318949376020455
0,0108255122922943
0,0374971092759671
0,00723521131735794
0,0240654586938457
0,0101189917695214
0,0183606260186391
0,0113847018813393
0,0372472293846676
0,0354766626284358
0,015819276263504
0,0237091609928958
0,0302764110896642
0,0240874138268666
0,0312216097043201
0,0269343281535987
0,0396657401393698
0,0534104461883706
0,00929283798314132
0,0433513489042037
0,0274063117405143
-0,00561284319027339
0,0202605061494917
0,014297423951675
0,0423569314061495
0,0530665783201513
-0,00059226056767688
0,0179091735156709
0,021838516612932
0,0339289601848724
0,0134914745526723
0,0480141673311999
0,0101034553044082
0,0561008042550142
0,0107209232934575
0,0262252089490372
0,0295414793434102
0,0117925851842786
0,0525570110430885
0,00310979824197074
0,029952512583226
0,0203545232408159
0,0278888791357064
0,0162573752324532
0,0406552559589799
0,0166815724124868
0,0400419576263754
0,0141069996475174
0,0323249769003005
0,0463002757331972
0,0185239301570162
0,0218862818891524
0,0305461889715298
0,0248773253803868
0,0234030037300953
0,0341937276369794
0,020442624997678
0,0398688073337954
0,022995017705417
0,0579503926154153
0,0295489705379808
0,0152416564035483
0,0284565070120163
0,0322122535809764
0,0128464016152717
0,0350736792868392
0,0197915051774515
0,0316902631336737
0,0235485681451951
0,0360024890390075
0,0223625486672709
0,0514808609193306
0,0121966200165586
0,0392928310621574
0,0230130389654485
0,0271133269124367
0,0255711645854565
0,0309070899757599
0,024762297099812
0,0311498208210625
0,0289857747504321
0,0410563689754305
0,0381899833040349
0,0445243066219316
0,0159692311133837
0,0645568465370083
0,00886775288962631
0,0382828912788072
0,0227010539812468
0,0429148255290029
0,0257986249165761
0,0281840794790223
0,0393455618884784
0,039871151018927
0,0351851792515877
0,0384804798012016
0,0345622032651571
0,0591940957062244
0,0368873536083769
0,057890117300199
0,0443801745490163
0,0327451034746439
0,036101287190191
0,0420734707081592
0,0880478807657936
0,0370042717339605
0,053440842124809
0,0387671129590549
0,0358829035374372
0,0473611330572062
0,0373232388750414
0,0586121056632545
0,0311543732805547
0,0554994450454462
0,0388420902107101
0,053668297642069
0,041310386732852
0,0610227235813941
0,0457042276531646
0,0794408009905699
0,0502584710996161
0,0561413723879771
0,0547051468053445
0,0670374610990267
0,0502881975482685
0,0936422396646766
0,0522248893697422
0,117647781860737
0,0366578670871046
0,090879844181356
0,0452810918299936
0,0600741162816803
0,0693184561991549
0,068650437551556
0,0693767313718951
0,0771643979043306
0,0752197227396892
0,0772529248645527
0,0696054077705408
0,0839292502537554
0,0746284448038106
0,0871027111197301
0,0809056922174443
0,092765561503892
0,0919499375782611
0,0750939245173479
0,0953848726747194
0,0947671198573236
0,125765702444253
0,0983568996117911
0,102905141741533
0,0864547207707042
0,108941616485343
0,0868405121312108
0,0995286127530865
0,101046664979732
0,104898621473005
0,11569547364292
0,11248554255945
0,13591616850745
0,102309809921393
0,13058586611682
0,104979097020417
0,113730804708302
0,138666885004965
0,124881913320431
0,133099825194337
0,119788266449759
0,126287020588344
0,136132778097429
0,142494574997475
0,130772658754916
0,133059840370464
0,153126659490535
0,130922195342537
0,150041506725486
0,134446955371489
0,163166186291837
0,144313083151594
0,168466396200564
0,142383154681318
0,16734914823329
0,135245835173231
0,167329957380635
0,159023113323577
0,185674477620855
0,144988914326011
0,185573617866259
0,160097754422605
0,17096417180995
0,186582427890076
0,168104843720783
0,204804125646627
0,176485587641507
0,184540485891518
0,189047789662849
0,173292460496083
0,196803750158986
0,186822135152053
0,200790077078691
0,183876102346252
0,199348904436053
0,201716674688285
0,215031840011754
0,20874350986762
0,220650489102453
0,210769277756921
0,233932553571976
0,209257462920872
0,227004203716941
0,226701183401639
0,243749703609537
0,22441502549887
0,238681194573844
0,259776214551716
0,249977466234372
0,256950583737091
0,241301852443865
0,232512068424476
0,269818639567895
0,236197669985685
0,270309525691644
0,242524740272223
0,275365169655866
0,252463688071198
0,274222330242228
0,2655445383341
0,270731761156789
0,266832479152053
0,300730741893341
0,266870860152873
0,298723172695022
0,280078431628025
0,288542416659837
0,29149890126717
0,304855708940931
0,289738856041925
0,346303810649404
0,289840452336464
0,332101159023993
0,295494441749686
0,322764670182961
0,312764072242236
0,333628123456326
0,319320754493612
0,356794864244153
0,333921153384318
0,33807732021609
0,339466563828583
0,355093216535849
0,33202685331207
0,357495955900825
0,35030772364968
0,389427539347245
0,353180879680572
0,37448723129074
0,355282874690876
0,383044191068328
0,377480190441652
0,391562066044403
0,375718019143206
0,393659103938947
0,394136282954717
0,418750096096373
0,385441141538009
0,419963417229405
0,402441084598039
0,427896687636709
0,402520509785802
0,444884909847226
0,39010987641753
0,418984191107144
0,425402749347858
0,46867649171275
0,418681271724299
0,442864825661816
0,43510358082584
0,451581292906861
0,430966028457731
0,45769557947884
0,441668939892852
0,475957118553728
0,45131262022944
0,457709079567241
0,472416474092632
0,479228247491418
0,46804753001355
0,492231568618379
0,493850396699924
0,508237004921405
0,481746094731168
0,519595914660256
0,489603960613379
0,533735068655347
0,527713032140113
0,506510814946225
0,499813224042542
0,552362234314602
0,510101439608881
0,5453956429743
0,493476384432305
0,551424338694524
0,529367892649324
0,540672799544721
0,530854296813604
0,557408212501299
0,542129867924722
0,568180681174158
0,558758501031923
0,583098848953774
0,548359533732191
0,612530397401888
0,565490212960647
0,579812516720029
0,58976309390604
0,605247693255518
0,578111957972596
0,600765975617576
0,592140508583087
0,615447305462751
0,593403160717397
0,604787349140326
0,598678066000147
0,651980929746061
0,617584225575714
0,627245903719551
0,615487347814351
0,655034832664879
0,624252838779643
0,663164241984441
0,602162131810381
0,651044687929199
0,651515990468816
0,65929772016237
0,667336680865649
0,689503155447247
0,657965169420295
0,675092035082044
0,664847701585883
0,681802735952297
0,657581984475743
0,723483740802893
0,682609209547605
0,714975046576849
0,706668756805195
0,716735994233905
0,686189698819624
0,73085169130116
0,701287353231472
0,743464360598571
0,693375046500151
0,772121492676615
0,708787109719238
0,737800667361301
0,720698966790504
0,717261061021147
0,704548420319944
0,724217301379775
0,739129603077386
0,781684595092426
0,736804001953061
0,702909602244883
0,708571416375679
0,781688750343747
0,769303463029466
0,830486119257879
0,768436419636476
0,794532489577554
0,769732240989887
0,801767765953093
0,817276264072337
0,812270410622134
0,780991844070676
0,83845042055866
0,804299234474698
0,807923875995566
0,796567713293306
0,822228623659063
0,784067188521117
0,8080812445538
0,81188745250149
0,822265400742434
0,800561957000772
0,814580029620543
0,79792361620944
0,83676359915333
0,821324484667484
0,841092497170154
0,821893577360354
0,860373376641094
0,801820768618326
0,878746246613379
0,869593972971726
0,844592437143197
0,835945350680083
0,881664974109711
0,836071095661562
0,868777302991601
0,875287917526375
0,855589381471369
0,862532218357763
0,850152525324629
0,823509749116423
0,886049663511922
0,849117110607268
0,906798796135072
0,883183257715441
0,891647950960925
0,863235514526017
0,924885892975093
0,93251457612887
0,952049182285816
0,871144177717394
0,917816753934138
0,919332991690941
0,965512715047193
0,904935490910301
0,907588503781599
0,910535301764217
0,927998352318444
0,883314443124904
0,924947460554399
0,892222860987114
0,946419222817638
0,930114392824567
0,917326059898751
0,900749718012958
0,884358717775102
0,904285706277203
0,931905558897682
0,921553284529314
0,967391960452803
0,945064045799676
0,972395893099331
0,964415394750779
0,962739804865501
0,952692474520584
1,01101822681609
0,994111086767436
1,04900937530762
0,920682992209826
0,957226235014293
0,935529495099768
1,00118004920212
0,964529976393384
1,00252647824938
0,960673759864351
0,948629607994101
0,928542671829943
0,993316622229612
0,938431822674702
0,98117683938668
0,984144480388045
1,02740459535482
0,961887286385042
0,991104853007245
0,95115984602508
0,925763498393185
0,955240219083508
0,996989027802422
0,890158454184238
0,974712069140904
0,977475233596883
0,99751852693804
0,959746250786116
1,01273809260163
1,01647850845606
1,02591254524505
1,00317370662476
1,00716261416982
0,986957889805515
0,991847362166242
0,976011437446112
1,0021547964626
0,980806250500968
0,9417095262169
0,974082872581919
0,984283351565308
0,942026259233075
1,0037084723873
0,993135684492936
1,03652234672593
1,00734638963091
1,04681513565263
0,974187378313033
0,97511633897745
0,969085131039042
1,01863635899664
1,00165751284469
1,01625580238716
0,981272362890203
1,00683957217322
1,00770391095757
1,01245974217441
0,973479707143261
0,958404937821351
0,964969509024017
0,985893505985659
0,995979808748217
0,970908557289406
1,02264155038391
1,02695063669149
0,969513314571915
1,05041905143945
1,0118828205558
1,00090828723587
0,972676806690294
0,985328194587413
0,93701413068423
1,00129442580267
0,999971733246879
1,01374552793027
0,97679204129898
0,955403833578272
0,968821056992603
0,967949881631358
0,973862322710728
1,00021545725839
0,972059867423735
1,01393887806373
1,02762447868785
1,02070267905487
0,982861425850026
1,02420429813848
0,96614467213531
0,972797440750353
0,977378109709051
0,973764075087607
0,951746148476948
0,985772468208446
1,00394309185297
1,01388205801774
0,971183617569991
0,957586017446792
0,990739514726067
1,01289452257928
0,977607978554113
1,00116453610857
0,98557153584955
0,976540516502259
0,937545981232914
0,99506813950807
0,966089209551898
0,952546683399535
0,967880554197669
0,970503598131
0,952579812006948
0,998093548103199
0,965338594880015
0,990985825368238
0,946870285582643
0,938906236296047
0,949353866751916
0,947369489273948
0,954424452468674
0,977027986412091
0,960187588630255
0,950848626298614
0,951745806082185
0,953703036118093
0,917948329357316
0,954936229352451
0,953839689408799
0,943182777108055
0,950812756486715
0,969413901349448
0,928110511253637
0,94287184512523
0,937078773439955
0,937968173682128
0,90868220725777
0,928266455348097
0,928548855171449
0,944839915166447
0,92039341102346
0,915806484971894
0,918251341024232
0,913046695220818
0,889799046810053
0,920216437714654
0,881810619086848
0,913522055531727
0,904385545799613
0,906367041375856
0,905766718970226
0,906039634684061
0,907238230893253
0,940833386483163
0,900149344212477
0,900837681554845
0,864634276099943
0,883658316201386
0,905539612902911
0,906160541056289
0,863711057040157
0,867933983182943
0,889276314357532
0,901037815243096
0,854272808793906
0,889058736074678
0,867592566301497
0,844634979881362
0,866289536741098
0,85456058574839
0,836099393731935
0,865145275954235
0,864754587155544
0,855302751526826
0,866909782569678
0,862350323558969
0,842102491215749
0,86581598479915
0,825908376145545
0,829224353662252
0,842005982150993
0,831791769285202
0,822890680427438
0,824504958358742
0,811870043127654
0,819517913188531
0,817427755026961
0,83801758606603
0,803404175228224
0,821815330228851
0,813622725304587
0,794869896495079
0,815079075887883
0,800280283128384
0,786806451950006
0,798024844653284
0,776959340523756
0,789880930125039
0,776448226727618
0,782647323493903
0,783424489013994
0,786673808662924
0,780315126553554
0,776169925834265
0,770143288786873
0,761977399673838
0,765537822311455
0,760316440742744
0,747573293200421
0,764785935572619
0,745571833231334
0,729448942990967
0,7403153067106
0,74554068015131
0,712899683335517
0,714370471444204
0,727488162259845
0,725346996310081
0,715727732325848
0,733847387972797
0,713775169165711
0,701537950786554
0,71106729639556
0,707987188593407
0,688954671109325
0,70756465484993
0,692421449061555
0,684982246320612
0,694170144900522
0,687282592341247
0,679369033976782
0,686993719291577
0,684117705617365
0,6830429239924
0,668286511345473
0,669451542715778
0,669530857587515
0,666015484031285
0,649603139105279
0,648217895017205
0,654319852578948
0,653405428450942
0,648313943370092
0,653901327886222
0,644676884770065
0,632078865540711
0,633989894532948
0,629397339115456
0,612986022908462
0,609869042214804
0,612604988426084
0,623111372377334
0,613713587288753
0,609657065342389
0,598562149714648
0,610944911283612
0,600961427901551
0,596967179407689
0,610401403637536
0,600224922173306
0,58393314456196
0,603087110667852
0,584696113836433
0,58066047966316
0,580486004466852
0,582359731509592
0,582617283467475
0,569874765781145
0,566992896632122
0,577686460455999
0,560364684178377
0,556959472647718
0,539760217765
0,554019099047537
0,561329576312675
0,566537839980881
0,552374252403937
0,544312437697902
0,541215080669725
0,54389976507818
0,534052962069191
0,534124128807546
0,533945425138558
0,534344287897025
0,526091105804695
0,517985313670181
0,523574428998688
0,53002812106402
0,531943433027046
0,524627489978372
0,519025998902791
0,516378962714551
0,502759264757453
0,49892122310008
0,503312637849782
0,497686847026189
0,493158748348084
0,500149325956046
0,492754774496992
0,493919309302403
0,487797453113773
0,488416875330002
0,486012163094478
0,487726147053076
0,494188621755679
0,491750454645664
0,476477152226783
0,471450518243618
0,469165218217661
0,473269564846259
0,466309230595134
0,47125754763815
0,468993684275035
0,464492425787394
0,460603483088024
0,460282732489178
0,449553131943931
0,4567494025633
0,451751228729808
0,455230912400208
0,446710061024972
0,444420334244974
0,442931586366956
0,443818193929561
0,439086122096154
0,443948237466579
0,434234840751488
0,431223296399689
0,431455293176509
0,42772494293141
0,426710298099358
0,428924257752487
0,418533527772031
0,424603950490735
0,419996963576708
0,410677296363151
0,413646665628562
0,414433462129937
0,409557183525983
0,407386203685473
0,398343440724856
0,407749083416669
0,405531150585272
0,401921198173971
0,39259029856592
0,393996726316265
0,39063451981192
0,39620453525538
0,392512754210526
0,389526023240073
0,389731903212209
0,386789423988949
0,390954874577289
0,379690008379742
0,380992978599602
0,381644886785168
0,374669190744241
0,374839086308441
0,368778604614058
0,375281925849583
0,368723524152486
0,368244619756594
0,373697046642194
0,373658493259662
0,363372755986527
0,362930569271983
0,358157197210435
0,355823221679252
0,352195954628616
0,35546416969716
0,355944270949896
0,349581731984786
0,355980419238659
0,349083356758892
0,348760203761421
0,345302348559729
0,345245929001251
0,34544062977298
0,344418339975499
0,342568435738963
0,339646048289341
0,339961533562097
0,338224855903126
0,33740324811954
0,335594581085081
0,345049073042659
0,337126058575852
0,332721071173722
0,331469107074492
0,336145419201862
0,329212715211253
0,327381310510603
0,331136843844228
0,331616909066088
0,339718774006913
0,334639291636984
0,326580256276006
0,321965919491381
0,325776999019386
0,320850310665009
0,321427156089645
0,319485704027773
0,327748392612299
0,325536053311241
0,325547320816847
0,336404839942531
0,329667734400298
0,326229576092713
0,328872162141174
0,330835306692907
0,327654577849653
0,334640522623326
0,332382090886964
0,341759347873452
0,337087494548709
0,336639235588518
0,333980756929797
0,334768862955307
0,339373171111946
0,352389420847651
0,343102540130359
0,337621714748791
0,346864971775788
0,343552869084852
0,346248960503931
0,35243496983088
0,349922403057209
0,352678276127354
0,351719215927557
0,356229873927853
0,358683277994787
0,361749424578262
0,36713312146139
0,364735119243883
0,360968759449205
0,360108366512384
0,368987851499851
0,372942309869909
0,374326931046475
0,378756120316097
0,375522642924061
0,376630594613254
0,385039356902353
0,37994145440829
0,385533970711415
0,385332796432672
0,390085022232741
0,396326151175736
0,393541726415952
0,395309708133938
0,407454576475471
0,406596888371163
0,421470652390117
0,410982087358609
0,420049948250516
0,42023972891455
0,417463213286938
0,412791558297543
0,425263782793352
0,419965257808631
0,42668502075666
0,430808976166821
0,441915196246388
0,44383877450634
0,437866242820204
0,444078272189382
0,449749456089801
0,43741946286941
0,437205269331572
0,453482775919077
0,448453424998122
0,434897844617434
0,442915588584381
0,442815475840489
0,449016468950566
0,445985177188909
0,444912742319373
0,433806029953447
0,455942684582393
0,443119149359605
0,437147521130132
0,450722408429596
0,448097278366856
0,445718492314658
0,444553804750845
0,442145575297147
0,442447484577947
0,450840409429585
0,441482440247775
0,441469803397319
0,447039034894385
0,447584127006685
0,44617379653977
0,444607729706182
0,445267852841724
0,444155752596669
0,448606560576121
0,445998599385323
0,453543711539536
0,44205800705625
0,446079209078532
0,446517087003245
0,456259224778767
0,443473445199583
0,446601575241871
0,442812693746857
0,456344347179449
0,452105240620593
0,450113305546946
0,446966867197678
0,453290938092775
0,453081489688429
0,448643724445703
0,45948303505999
0,446993359163795
0,449711190731837
0,446570000114519
0,446969439184294
0,444563449664223
0,445968888232431
0,444923939888072
0,442047441338867
0,445349411936258
0,451067216827434
0,441061497607877
0,441769369370439
0,44318079667878
0,428106453210995
0,438834152822544
0,430371109200714
0,430665445592788
0,436410970887412
0,434147005328903
0,425362197298982
0,419393202789
0,419388955757918
0,419665094074095
0,417476483086595
0,412206514838739
0,405074936867717
0,408995739098189
0,400422191612384
0,405758437499177
0,402776767490455
0,398062356687839
0,398244596290931
0,389422628161449
0,398196321089601
0,395743661982952
0,391185592511079
0,387813477651877
0,371217493162586
0,378036777971929
0,372012099173215
0,368998826401639
0,371137833920392
0,372155349317456
0,362577729194103
0,360624299575683
0,358612350948993
0,357837375026473
0,357553669657138
0,349763172818489
0,349849227094622
0,348898250690117
0,348845128125188
0,347306301872438
0,343364215303797
0,338016507903183
0,343605599144612
0,338494738304729
0,336630460154185
0,335563714280807
0,329325977116912
0,328300105796874
0,32819731114068
0,327842998539493
0,325525927255667
0,326897965393065
0,317100819546437
0,317336708514687
0,318198817797179
0,31997724213332
0,314429630917965
0,31621038014076
0,313343982519842
0,312690353429261
0,307439822098694
0,310836687332741
0,301241947713005
0,300372844049092
0,308265369233948
0,30486159739466
0,302210346932646
0,303722512521678
0,299977440145143
0,299913234508528
0,297682408302214
0,300168018661487
0,294209705381801
0,29716552102027
0,292514042830211
0,288893378114072
0,287706768138059
0,292112600638782
0,290882227725001
0,289103779747584
0,28844255709981
0,284442516769352
0,281017308211946
0,287473886672432
0,278198670743283
0,283876665315171
0,279185258635988
0,281804885874056
0,280141164062354
0,278765653564443
0,274731899874453
0,28052552672711
0,277421713614902
0,273693752307048
0,271901264954647
0,275974722226196
0,268130821894942
0,269197819009055
0,270976043934165
0,270749193314487
0,267009945074489
0,27675995968499
0,267063732682012
0,266262840717278
0,26469430094882
0,261891673475756
0,258602916496606
0,263137137583703
0,258841907276121
0,261700613823594
0,258116801556322
0,26005268515479
0,258474194316803
0,254042995813805
0,253687050172728
0,256034388024916
0,258622923342038
0,257292292545662
0,258633918885099
0,25486923688351
0,251460263552192
0,250324111688054
0,247878159337644
0,250358997672956
0,253003436810358
0,25341486821153
0,251916924256201
0,251447894736857
0,248936727360644
0,249697328072443
0,242296968410613
0,249535650081274
0,246320874337801
0,245670652788925
0,247934534038191
0,240855529857117
0,247630639920251
0,244044628113865
0,242048806480684
0,242806692367429
0,239461123201808
0,242731777767522
0,24436763419311
0,237913918264403
0,235528491461822
0,240838250676598
0,237048246927098
0,242172013738872
0,241235006209774
0,240977438073155
0,235116209421473
0,24011867216483
0,241159421990527
0,237326345888748
0,235814725648617
0,234873117664172
0,238484573517343
0,242169839260084
0,230383515104332
0,236594663470538
0,229869746079933
0,234170330163158
0,236237638821908
0,230255542858614
0,232182918177573
0,231191410111989
0,227685002982417
0,231225698168162
0,234510684289393
0,233943482431153
0,226077158454837
0,229510644299826
0,229694371698206
0,231408788669434
0,22615078411128
0,228752970787947
0,227830091844006
0,227482488327251
0,225633325412817
0,229212269470126
0,224969931833442
0,221280147756811
0,220379857281484
0,223573221812232
0,219995301725631
0,221901180676735
0,224334404520075
0,224926723835484
0,217542067230193
0,219228433364586
0,21671402115799
0,222151556233631
0,219003659616528
0,217218659163408
0,213522070443217
0,217848627350606
0,217414860902934
0,215930100710807
0,219953968297576
0,212000892139628
0,207316017169499
0,214147059429213
0,216745031848586
0,211940489477938
0,211460074017288
0,210582348475466
0,210201104260666
0,215358490288551
0,211973268499335
0,210566024960331
0,210802601369474
0,204355106868248
0,206492065962244
0,20658649923279
0,2054294663231
0,20789522966514
0,203437439450733
0,200854043558546
0,200045541873712
0,203469163291386
0,199097248298037
0,200981847075615
0,198587934618391
0,202472637362713
0,19810690450389
0,198544830778209
0,199684718701454
0,198657602736969
0,198088625101484
0,191181477234566
0,189419458516203
0,194414268086797
0,188718112989174
0,18947434783268
0,190588983146751
0,191039062628138
0,185887526757559
0,189758261148442
0,186708267508231
0,188686658364909
0,183251171697121
0,186143260105578
0,182763453573792
0,186137075214342
0,180339004578162
0,182505120940295
0,183109568344392
0,181093074131274
0,178523588561689
0,175950006550616
0,175357628963084
0,17557566879692
0,175029533892439
0,175723233827999
0,1760431085094
0,178309162522218
0,16993631754132
0,171115940442214
0,168803565383163
0,17309349055702
0,169813535288293
0,171126265199114
0,168966119154889
0,16889094665051
0,169711468662791
0,164822665450357
0,165144278890536
0,165761741669362
0,16423828372328
0,16508824416967
0,162414522535586
0,162976019531797
0,158473208156903
0,163098531936552
0,162243552491973
0,164212154416871
0,159878376115115
0,156670744987125
0,160706535438297
0,159867396594211
0,154234194852588
0,156348971825089
0,155630322713843
0,156267913341399
0,155122737107328
0,153649825890396
0,154996532748762
0,153048243396373
0,150539826920264
0,152580723787334
0,152375660480399
0,150543470914399
0,147932184475756
0,146731033198148
0,147098951972134
0,149576339940013
0,147933468908003
0,147528033979175
0,144475089797634
0,148705791604307
0,145847261456446
0,145103161905503
0,143381487366235
0,143877288013987
0,145802764278516
0,145767134240683
0,143481145777104
0,142947187270073
0,141647343594548
0,141586207204099
0,140643443191893
0,141518425220008
0,138384490244464
0,140221319778693
0,139943514298103
0,14154444090012
0,14018244764306
0,138738382724614
0,134437110052244
0,137639544321389
0,135081560588954
0,139116859806925
0,134880547230706
0,137968520463978
0,134292711591033
0,134083735418939
0,134395657169684
0,134192339995313
0,130848527122177
0,132805291979281
0,131845690260253
0,131082315085879
0,133615757500761
0,132444242734861
0,132634203314149
0,13267532371961
0,132106313251131
0,130136215883409
0,13091317136888
0,13153171618347
0,12784318961789
0,127786865954977
0,131816126174532
0,125928394356964
0,127304165349791
0,125450242840111
0,129479832779043
0,130956032429761
0,124869919295114
0,129034440446721
0,128103133597327
0,131087318227423
0,125398196423515
0,125866795559965
0,125466098606163
0,129299199823222
0,124720336234354
0,121852048997167
0,119166217802581
0,127040516082179
0,122537828208164
0,122729860029308
0,121907705572514
0,125950951820825
0,123869054724088
0,126013154998232
0,121760536940745
0,120851209118427
0,118909742751029
0,119921584469549
0,120500212250385
0,119755415472989
0,117365967684773
0,119082557751045
0,118563421328913
0,116305641919812
0,117520787441417
0,119408376703211
0,117287961768916
0,118099105403074
0,117257791412804
0,120143966917368
0,116947621049173
0,115031732449963
0,114364277212141
0,116507287651981
0,114132331390646
0,115482876323954
0,112637878254924
0,11372990333122
0,11466503217887
0,114339217316484
0,115121126271885
0,113521170207897
0,110861510940403
0,117125344551391
0,114138000053885
0,11337626356902
0,112162661731981
0,112915296907016
0,110302918530971
0,110275980197531
0,114126720807012
0,110725546483574
0,111095694551624
0,112827814076381
0,107541476353196
0,110024163644202
0,111453488515119
0,10767006365041
0,105368920661759
0,108104367929664
0,105678330110084
0,106882472166404
0,105273823219208
0,108976013233858
0,105493795724244
0,10210351803948
0,102305157696562
0,10781332015497
0,102503396993901
0,104683751065286
0,106602477706605
0,103930484506147
0,105401118377471
0,102623970229098
0,0999917853719644
0,0987328302886585
0,100841953452326
0,102863454125497
0,101151928160852
0,100419426041036
0,102379805983186
0,0970768295598941
0,0990073213271832
0,0998774744636355
0,0946062601811053
0,0983531396057547
0,0978421830978265
0,0940887073319814
0,0940467335846336
0,0980098773441771
0,0952105094379152
0,0925294592130961
0,0913333785239027
0,0911965060695534
0,0942740279111539
0,0958026698389032
0,0945908461197809
0,0927088539577274
0,0922207848776767
0,093938202778528
0,0890769380628175
0,0913031990436077
0,0890783086089084
0,0903950777316078
0,0914417297893948
0,0892742037273579
0,0921051950662202
0,0883997471405469
0,086193802861492
0,0891723437353751
0,0884915735451149
0,0891525592371249
0,087162382037332
0,0860636940245135
0,0848753471011849
0,0838887492892882
0,0855931530100488
0,0819269486762888
0,0859099445025339
0,0842935010938116
0,0847743675121015
0,0827243232638374
0,0849453514203418
0,0836738289654368
0,0843790782993812
0,0833795146509265
0,0806646345976608
0,0831124399649261
0,0822063945995977
0,079293922006103
0,0791108222923522
0,0804116208556851
0,0789321130415025
0,0748926831979978
0,0765256334486699
0,0780095795865807
0,0766405042757885
0,0761273872846479
0,0766169327426882
0,0776599399335649
0,0779977354556529
0,0756805178439178
0,0773229308871455
0,0792472114040595
0,0777264937407637
0,0756022274016822
0,0751587079143542
0,0752549276779116
0,0743447581830554
0,0723234225220451
0,0738949243086175
0,0759747875579447
0,0756851274600182
0,073438831318895
0,0721743566742206
0,0707429747740991
0,070461743242189
0,073046816358927
0,0749157208475794
0,0743310740641941
0,0715755039024291
0,0717727195755691
0,0682178269904961
0,0723129417014372
0,0739332000581797
0,0690990768942912
0,0690680760350726
0,0691279188523872
0,0712774377608644
0,0692394996910376
0,0724138425099933
0,0713181584871564
0,0710820820336521
0,0702593592473636
0,0714407994971115
0,068687892903519
0,0699810357759492
0,069461615641882
0,0679377727096079
0,0684440013244042
0,0698208204626012
0,0688483070871047
0,0686990658532547
0,0653256957289912
0,068156822661999
0,0664528148095976
0,0704145903864184
0,0673302113750966
0,0666353255281852
0,0621891795614301
0,062437228790654
0,0610626078702134
0,0650604692511226
0,0608047249076283
0,0614681829191121
0,063874346537041
0,0633978974461339
0,0590713361804
0,0657856982818723
0,0616540888540014
0,0646314330140597
0,0677546889489738
0,0629092411886585
0,0594298726062664
0,0662318905502399
0,0573876863037328
0,0720926302660827
0,0555946795318896
0,0634003965463754
0,0610381398385453
0,0662749980895486
0,0605863974618815
0,070544181033309
0,05673577061529
0,0649130213864382
0,0525629899010335
0,0663031033123638
0,054265244984012
0,0707235012978143
0,0509662709363583
0,06918263362907
0,0509124141631006
0,0749872709063842
0,0538566671128583
0,0770520566906681
0,0492407424023169
0,0783504981821369
0,0418056432107028
0,0744289560977319
0,0466608497639022
0,0834414084306301
0,0425460711578263
0,0792430255219462
0,0360828841682023
0,0785200797041542
0,0399753586627892
0,0848778052277799
0,0381698032353067
0,0710750379236644
0,0457871703613367
0,0816267341094289
0,0439651218262101
0,0636067577632427
0,0563108747542711
0,0618403343978798
0,0597196793161785
0,052502438014788
0,0707450940129976
0,0468419728353952
0,0762239061787884
0,0450413533866931
0,0731155784003085
0,0454712382315704
0,0713307990489464
0,0487236302523261
0,0652675170762291
0,0529433697277041
0,0585570546828819
0,0565446855556332
0,0589036954488338
0,0584545072704518
0,058095189472262
0,0570202562433468
0,0614709708340393
0,0535675446661082
0,0608389000162762
0,0559140865537401
0,0619652945648167
0,0533846250503122
0,0590060554769915
0,0551947014628293
0,0586442472672766
0,053024333248752
0,0588484636555115
0,0550083446567887
0,0599424077548694
0,0520772782536473
0,0556708340049292
0,0544018996665863
0,0606173537124473
0,0552413579460696
0,0577740297159048
0,0560215501813255
0,0590769295464908
0,0572718576687848
0,0604738829265098
0,054756429387427
0,0594210304971706
0,0556466765740643
0,0579818572946374
0,0526328087179749
0,0570457197885879
0,0556204677590879
0,0589557053407709
0,0534035475614215
0,0580966364158487
0,0547527679247388
0,0568594474419419
0,0536784935462131
0,0585447986406433
0,0576332079352096
0,0595669180669372
0,0547664501624676
0,0582440142839212
0,0550717609483581
0,0581292847082941
0,0553121890570146
0,0591984579693858
0,0548235712357369
0,0571748902644676
0,0538048210151002
0,0579696358548272
0,0528554941491321
0,0584545936677125
0,0546558952636841
0,0579687045764996
0,0546977390125791
0,0583865867373154
0,0571498239825698
0,0575019987506927
0,0542134702016788
0,0588015848226652
0,0537076103192601
0,0577979210830917
0,0556208406549326
0,0592217034110324
0,0563822123736851
0,0561651140914537
0,0537011863508012
0,0581165026556802
0,0547748105177441
0,0576384346196414
0,0542689569608093
0,0572766098370757
0,0540183050265658
0,0557177850975026
0,0550313867041622
0,0586050399162658
0,0565672675775452
0,0612433255434373
0,0556341701487928
0,0567772343139947
0,0554519497590657
0,0599135045069409
0,0566212832221228
0,0574683443779573
0,0570099559838137
0,0590802273081562
0,0551441498041484
0,0579172198375178
0,0548825466817887
0,0585015081929445
0,0563439064119158
0,0591099309401125
0,0588935512022501
0,0605085247315649
0,0571094979732078
0,0593335320059944
0,0563081503157852
0,0631155676845247
0,0556090222300906
0,0562975316483681
0,0569566786254224
0,0603338880562104
0,0568456960466007
0,0587114282521502
0,0554544034105526
0,0584021364330788
0,0591927517366406
0,0589047988858876
0,0570549421918366
0,060994212341585
0,0573856659389896
0,0585759940512181
0,0573067982108884
0,0591985694000202
0,0589892399865938
0,0608535528261813
0,057480486174439
0,061907036851339
0,0585474482505559
0,0620652835808862
0,0576011046749935
0,0600781176503711
0,0560113644325111
0,0602411041607352
0,0609945529995318
0,0613149771433654
0,060103152610619
0,0610261932842795
0,0607437566933569
0,0637659723277796
0,0616780419507152
0,0626935807357534
0,0585859828987662
0,0614159683071
0,0585781472169959
0,0627495285843736
0,0586997973894495
0,0611561111453647
0,060741306302807
0,0644615107425399
0,061230830953441
0,0633610999652678
0,0621401149496434
0,0627279776774654
0,0598376637042672
0,0622171186604453
0,0614733039787799
0,063953214593156
0,0625152609508614
0,0637013741480517
0,0620845793933475
0,063012499910271
0,0596454575121386
0,0643643745368293
0,0626297300778874
0,0645759145795649
0,0626353331462988
0,0642952813768752
0,0623848034604335
0,0670086141146232
0,0628280296058876
0,0628294374991104
0,0632186152462714
0,0636096446535017
0,0618678658474681
0,0647663131166838
0,0618932193856873
0,0630968819578674
0,0593930614457543
0,0644553398230378
0,0594640279640854
0,0621494199970253
0,062577532934396
0,0639000728263652
0,0618714065187093
0,0632052136818203
0,0618219784347527
0,0643163270751024
0,0596394761520297
0,0622499467340541
0,0610331376548103
0,0631684868278908
0,0581403669865499
0,0615071254326049
0,0614397578795
0,0630071014190309
0,0576507685871717
0,0613476545500442
0,0618685183619507
0,0637670967891418
0,0607233140005184
0,0611403309527359
0,0591329052631175
0,0601067639907635
0,0573133074130459
0,0591341751778331
0,0592545694909006
0,0601436936457427
0,0590795960205072
0,0594096334619205
0,0602812654918697
0,0632286183376163
0,0598328289770267
0,0595517040874058
0,0584806030229875
0,0591757535271607
0,057091665117536
0,0610760563146387
0,0579998385454337
0,0596097801112721
0,0576841914457929
0,0585713306431035
0,0597751480682874
0,0591747185898005
0,0576223770043829
0,0587277648701304
0,0573502158166155
0,0588671043852801
0,057206490818054
0,0576814066493259
0,0582674683100687
0,0599398121971471
0,057560574791125
0,0582596537574831
0,0579205270070186
0,0601225050846276
0,0579040712052666
0,0563517205777309
0,0549902889797107
0,0595930737193006
0,0574722456722215
0,0578144550342519
0,0566458330679642
0,0583167466085753
0,0561947510582052
0,0575703054325066
0,0554778297891258
0,0583263933769953
0,0563553316512122
0,0581467273582959
0,056899883637351
0,0600080148589215
0,0551700676324815
0,0592389538588112
0,0590418579267989
0,0603232468024412
0,056392709947929
0,0582311789643722
0,0577250662336301
0,0589961015629324
0,0539123750514257
0,0563103946306958
0,0570248314635221
0,0609416356287094
0,0580288440932879
0,0579319122388239
0,0572092907606247
0,0576358774240043
0,0556276556073439
0,0590527447444095
0,0582772734384494
0,0562294564457572
0,055879885613656
0,0593921129330176
0,0565923510797249
0,0561550146213076
0,0567206227241239
0,0572748565844059
0,0554335678312096
0,0576960308150425
0,05622171230167
0,0573228642108909
0,0563143879503489
0,0601562739402758
0,0554981781519916
0,05659766947508
0,0566149320862713
0,0586860641548666
0,0548155344112831
0,0576360068059096
0,0529775676217592
0,0574702091899338
0,0539178979861743
0,0588831627472573
0,0546646075066272
0,0561811975985162
0,0550980541104174
0,0560625239064134
0,054213080897326
0,0546925495294093
0,0528157620878059
0,0559735187330215
0,0548004999271169
0,0544330752651794
0,0512396912262816
0,0552169826970945
0,0509055010683444
0,0547044856667053
0,0527588298346012
0,0559000590611915
0,0520870360355769
0,0565422375452084
0,0526611137287809
0,0533107113910264
0,0525179500721471
0,0531911818774304
0,0516687945005386
0,0536546837518428
0,0533776713237709
0,0526364414179661
0,0511228294230524
0,0526911795149704
0,0510042720169792
0,0519168253431216
0,0514747206287374
0,0514779967715652
0,0503744730234171
0,0501153519467073
0,0481599030593529
0,0474551776400351
0,0480105357159519
0,0504763108401483
0,0478884022575739
0,0485716746007035
0,0502335433909095
0,0501747634827472
0,0484537076159179
0,0497832948539637
0,0512395259101661
0,047582467318578
0,0516228716636675
0,048208376510364
0,055170091359721
0,0471675638638357
0,0500326994847731
0,0530152546729587
0,0480433096907337
0,0464875569059528
0,0483087661707723
0,0493544895524935
0,0471158274478481
0,046560063882482
0,0454797754063961
0,0473121613710419
0,0464674689891436
0,0476583213405125
0,0475325071719576
0,0482202766109794
0,0478343031739764
0,0488389480540969
0,0473210118437208
0,0500419178377858
0,0483171483267453
0,047830917629165
0,0479624712553324
0,0455218812076187
0,0463118309330962
0,0486104277892578
0,0489304792322885
0,0505771879568595
0,0451760279634326
0,0473483590265789
0,0454600116838072
0,0485187745217186
0,0468083436249072
0,0496881296052259
0,0459126820727533
0,0484470646007532
0,0463734190846607
0,0496311662432465
0,0448078068749257
0,0466556817789211
0,045957792020155
0,0466383381821752
0,047245267997533
0,0466201439694887
0,043681148849581
0,0477097161281573
0,0442609799713349
0,0484435930402962
0,0438891514014889
0,0495686121190529
0,0432638019195839
0,0491855274601156
0,0412847778243043
0,0541520249713618
0,0454532166166963
0,0461398561530967
0,0460160722818331
0,0459426231679243
0,045147371809504
0,0442207143138572
0,0417053565466112
0,0461652662483864
0,0446702339027408
0,0452555895102213
0,0445733892852974
0,0454022760182369
0,0458287829849364
0,0447259688111211
0,0435356143932985
0,0462537632340303
0,0446231225928614
0,0429111645679421
0,0490687716712248
0,0501127319316026
0,0471363843424264
0,0483998688606146
0,0429742751130198
0,0465267521012171
0,0442585482977844
0,0466522278823889
0,0520105419575152
0,0382808285985116
0,046537864930089
0,0408534498524045
0,0478405493222383
0,0423226856112895
0,0467993076280998
0,0415115377955191
0,0494729715004491
0,0436481236815814
0,0459016861485019
0,0456696474344163
0,0447545040394499
0,044324536189939
0,0470923684161898
0,0474590017512594
0,0439306233822172
0,0440225938629674
0,0460209565081698
0,0447130610096019
0,046120843814986
0,0453046487339406
0,0478274823839899
0,045189478800099
0,0495567336282233
0,0423338974332394
0,0462268486222539
0,0425231999189443
0,0477733783659181
0,0458480930651521
0,0477537480169491
0,0416488714586058
0,0415491835504577
0,0462616686669549
0,0426277003855016
0,0489289670528497
0,043337897113923
0,0476040517825821
0,0439443272466278
0,0448884323214228
0,0427081337023892
0,0469658106265385
0,0438021198917628
0,0461367444216771
0,0421100449945921
0,0449637693177539
0,0421519939347593
0,045241930692428
0,044592533833789
0,0464750816006232
0,0485254300490637
0,0478409398104429
0,0549066811437613
0,0457291391319552
0,0506356127628511
0,0429723777670086
0,0456333332693438
0,0435694756717408
0,0459505220664924
0,045693296271584
0,0460247679225963
0,0436412010825422
0,0436379030997573
0,0447084445660652
0,0438754954622058
0,0447002369960389
0,0456315123181561
0,0449226639488478
0,0453860582801015
0,0433614426531961
0,0441966511444093
0,0449934144625308
0,0407399767724671
0,0500655536172101
0,044892450398135
0,0539570836011675
0,0391025575526856
0,0574489978759701
0,0315067623404
0,0591495603441482
0,0423855568405625
0,0498801455646558
0,045388515644993
0,0452070753150658
0,0471277691555657
0,0487378521269495
0,0469349785611095
0,0478040164867726
0,0440024580378276
0,0511066286601065
0,0456658278064924
0,0451047822290047
0,0496517547846193
0,0536114331057196
0,0493556516323513
0,0567206275436197
0,0415787666312959
0,0542762873743863
0,0453586943460958
0,0551132774867449
0,0501336290253753
0,0454468709273531
0,0528288220639668
0,045802097299497
0,0510100343197783
0,0455524004985017
0,048780483824988
0,0462505992467399
0,0498637480579099
0,04634406586234
0,0470512748988024
0,0490141078466742
0,0466812702681074
0,051943538381446
0,0468705215215447
0,0509700507866484
0,0506718216427211
0,0455411156750438
0,0513453988326271
0,0470695491234621
0,0516344069684413
0,0460323023846383
0,0509608123798314
0,0508135339672642
0,0545144776700916
0,0570697779651614
0,0529504111380798
0,0537135948931442
0,0507406778000761
0,0500499519050061
0,0584329784970101
0,0453712273910828
0,0608746022196006
0,0425665818256879
0,0603619080336828
0,0551448419656317
0,0520420964688783
0,0540578565585868
0,0493209629487404
0,0543740300454166
0,0485123551804986
0,0627930288278451
0,0463279326852003
0,0664255222336917
0,0418226350788606
0,0661994585343507
0,0432884438840137
0,0614678676002958
0,052315794066453
0,0591066197742992
0,0497750617798603
0,0624143869895526
0,0487408061229781
0,0625854271630176
0,0591443285139998
0,063038615848229
0,0657933385030384
0,0579676814379236
0,0603736674843822
0,0629475817817191
0,046172337437157
0,0661688150225715
0,0501781564098071
0,0662689558526533
0,0494069205230795
0,063802289411234
0,0632715763561789
0,0683725762403252
0,06308903668293
0,0568433218594788
0,058419638919697
0,0704589103916903
0,0564446300699439
0,0680488466776011
0,0556142013582357
0,0690499877624974
0,0567126513513744
0,0828454991056813
0,0331979822562515
0,08551160210173
0,0544473957391205
0,083986519940102
0,0630509514438755
0,0709644693076616
0,0631559075760871
0,0731829395743628
0,0706703243696381
0,0718393955539684
0,0656032339232151
0,0781784353836703
0,0658814140875591
0,0681005927596783
0,0762022526103307
0,0651906311150178
0,0787755013268479
0,0779486670815451
0,0879631455117772
0,0921474506044031
0,0778793547954909
0,0838375901728151
0,0920360341790843
0,0788928945883425
0,0885255726036886
0,0780225362475145
0,086477534100453
0,0849373831618195
0,0878536853332479
0,0910462560595039
0,0862201517595995
0,0959745817837434
0,089012290542164
0,0952421477747245
0,0947129958672507
0,110703597486258
0,102015833935451
0,0983854507428316
0,112180678265253
0,0904128171207457
0,110126157951738
0,0959088158977081
0,103988347633417
0,105035075434573
0,101546488728703
0,106078179478787
0,103530340074592
0,118871970854512
0,103025631553844
0,121804454222948
0,112482234444096
0,115452782618165
0,118833885519564
0,11621660463952
0,166473113704624
0,0250263553215447
0,144496507468903
0,108318517842736
0,150623477949063
0,139984165335457
0,142163695004444
0,141466346236343
0,144551510033734
0,14254504236209
0,153381966821694
0,150839240897165
0,163081976525478
0,166352930363336
0,162840378683905
0,169274212567975
0,186134593469443
0,17921099204525
0,215006537774811
0,183559896924336
0,194837818438139
0,204918822394291
0,21075395413371
0,210705472630729
0,220393834348228
0,206922924963065
0,232163901252883
0,228658961533092
0,236209215495503
0,239422754616773
0,242384574822273
0,260692280759769
0,240583752845899
0,284855731112954
0,239609400269078
0,288456872868124
0,266236404475294
0,285360662478044
0,280156369540653
0,287859230853236
0,303156539920669
0,294443643577305
0,316632912388067
0,309210109406488
0,312773445886692
0,313073896429024
0,31609290013025
0,321683295386821
0,328084127789458
0,340152704894428
0,32492521099192
0,389770786032794
0,322239341416929
0,349241424381995
0,327624947819686
0,337523301687941
0,339985956572709
0,33208488993475
0,36969410952913
0,34442804902979
0,354472921104828
0,349138108190042
0,339053741743757
0,342238832861067
0,346543682604492
0,351123342963425
0,342372521978088
0,361746283945729
0,334343621686034
0,365590553460646
0,374073964002731
0,381317592700338
0,358825486267306
0,346341017165863
0,345899574537143
0,351119316709222
0,356330119349758
0,350731501236091
0,359101344482382
0,344038487444932
0,36152695737507
0,334865114810281
0,355434065020979
0,33698212791604
0,3610874385797
0,345675164015468
0,339644651000524
0,341024962171362
0,336727978410965
0,337361746841692
0,354245314957321
0,328779273448849
0,338864974331532
0,327291828152824
0,335755838571007
0,327949974293994
0,326767653194258
0,320338423788943
0,334038233606772
0,321783728375743
0,33163216966545
0,316362092199505
0,326735478748831
0,314594848319127
0,325925881118235
0,315058228094979
0,324286038025822
0,318610326876323
0,322111136260526
0,315101306096891
0,316366722248947
0,315946872705186
0,322942812792569
0,31664291579627
0,317946924802215
0,318866174132505
0,322543387693343
0,314776047806963
0,32378374301499
0,313837108358266
0,317112224754545
0,315263215520627
0,317389626328284
0,314155710724647
0,315678530618099
0,310953758555017
0,311912630136181
0,308014306609179
0,306689473691438
0,308089630861978
0,302359241353437
0,306460740329089
0,305677410124616
0,319561386012639
0,303102488502676
0,311549545024427
0,299133636812566
0,290555500606042
0,297221972694937
0,285880973212553
0,303802629424789
0,283539017155862
0,292886186591158
0,283467846930807
0,277064892536779
0,273612412282848
0,279550311583567
0,272282474233067
0,277626912022665
0,256503561568771
0,281451957360373
0,248392814050098
0,303474619331662
0,298248166737017
0,27857660015883
0,256396231605062
0,249465993633695
0,270515462585157
0,241748408276923
0,260441148245429
0,240036301888847
0,258378967125361
0,236562173137146
0,250305735912086
0,245715456584729
0,235526393195559
0,249669404657098
0,244600156287517
0,245314164979944
0,249631808177711
0,252254450683639
0,227263081777112
0,252795530683483
0,226492756129017
0,275524115051792
0,221991050033268
0,227738016801703
0,217665373258587
0,221506247596522
0,248105350275365
0,199220766881393
0,224007189027586
0,210669416943897
0,210063721885534
0,217071792712352
0,210798988584216
0,223255378410447
0,199134200253082
0,237598924308555
0,178542232246555
0,219306908951312
0,194938412835402
0,224331348388297
0,208902496592405
0,216265365548091
0,191143161120567
0,205961716266347
0,208709976144669
0,19858310940204
0,213483637613909
0,183923518448558
0,191071633336727
0,210743473866888
0,181761969751013
0,204352547676843
0,183083141404262
0,203604912452704
0,212816955260788
0,198875701948807
0,218881569932188
0,19793212137623
0,186808016167562
0,189375309828927
0,179442414200242
0,191064493323576
0,173738111240457
0,20245359564996
0,189595986356365
0,189877956560142
0,20831984712706
0,179901111208232
0,199378805955303
0,195915366737088
0,194180682013497
0,201033397984055
0,203017679972159
0,217732345137223
0,210123163910778
0,209068552012967
0,217029023978161
0,209143236219311
0,225670486344862
0,20924483230519
0,224718525173305
0,220095337756484
0,232192210384449
0,234134561129125
0,240200720584565
0,24099904064083
0,241875714436768
0,251980386908192
0,270388139888752
0,251510824114136
0,280153288196941
0,264093916766748
0,304391751830409
0,286958818310297
0,290456520065344
0,299888424150088
0,296857474204048
0,305943665334676
0,302088353495923
0,310069722407689
0,327830827130516
0,316527891069458
0,330680847966094
0,3241418617045
0,333482573008146
0,333298814418436
0,348708755010239
0,345801192804043
0,367575986561927
0,360816692092727
0,34619139765176
0,366907278464085
0,35004899189253
0,360289432339382
0,356581947879588
0,364537658087331
0,365327817367298
0,35983416685799
0,378166726139113
0,367059603271995
0,376566070751844
0,368778661805986
0,374902067010867
0,382463773280649
0,374687895534575
0,385241319769041
0,386034504543587
0,38754902855208
0,390846887392784
0,388612845001821
0,411778713357335
0,402366965127724
0,407237473100114
0,406739101950198
0,404964281670894
0,424869438153196
0,41097158257858
0,425275996951187
0,42193080469268
0,427889737272892
0,425027062513862
0,427807834881376
0,438715539057155
0,435106063848046
0,444959198353445
0,439019799468479
0,45396738181003
0,44813755017508
0,451637716340083
0,481968053215439
0,45266872367614
0,474860482192756
0,457947321716394
0,474806082407774
0,459350183719873
0,479643944970702
0,466182400144315
0,472596020059886
0,465792381769246
0,481094522032648
0,468709952069329
0,481064610795855
0,477133023364725
0,471195199307991
0,479435300717188
0,473482267139619
0,473393222787829
0,477901604090302
0,472609145775604
0,471946532554754
0,477304846919028
0,485393907669665
0,477573595235691
0,483333221295045
0,470807046135994
0,483685484398203
0,472566219313819
0,479662251095752
0,470776764741038
0,473399464980227
0,471323988969822
0,475266997535252
0,468257486353559
0,490715083693078
0,483606545156627
0,48770035918401
0,480078849089909
0,486825739005465
0,486043850264333
0,492311146915172
0,490349153819973
0,497714902242638
0,490233970903125
0,504439788035368
0,493880986497559
0,505281956464939
0,499323414220405
0,511178859210745
0,514132485885808
0,519252660372421
0,500396085692333
0,50493316096476
0,494629623001632
0,505377987216737
0,496152695612999
0,500007622471233
0,480048740419401
0,494016936269712
0,474428544756549
0,495450754589384
0,484039715212054
0,481800665312256
0,475222638206144
0,463309287818084
0,464690379104421
0,462061377474145
0,453739948162377
0,455473834356515
0,453730873665181
0,446666717469057
0,446349400770032
0,451219369655514
0,442561924201178
0,441468186010933
0,440646558256439
0,441047635453575
0,434750415049562
0,440563868657195
0,436102238679934
0,436251883912451
0,431830186893643
0,438969907942811
0,432233938727065
0,431809977093835
0,43945957713142
0,438729511418227
0,438523502924222
0,430488795738059
0,441493545189902
0,43180241526211
0,434054290065125
0,425236310390605
0,436446847244553
0,428706662158623
0,426882311746022
0,431167661145177
0,429417878900992
0,430934492273768
0,427103763208224
0,42429028004073
0,428600173435436
0,429095882827639
0,425136882840106
0,427339810794245
0,425435114713294
0,433152060805908
0,42090003894834
0,429688492302592
0,427495784819268
0,430925073121398
0,427450622094673
0,430686084546183
0,426246289779155
0,427571099941848
0,429421181769534
0,431273469810225
0,424356471580135
0,423625049483428
0,425617472832772
0,428854424345879
0,425203875712849
0,42379032974701
0,423480842885633
0,421974852446969
0,420271926164228
0,417665898259225
0,413045800626034
0,416268358816115
0,411212452639755
0,408908842453357
0,404856199063423
0,404114495036485
0,39646822080157
0,392260353725485
0,395326759804257
0,389922181813757
0,381333763632076
0,383365941043986
0,380582900048072
0,380588769356236
0,375678471490831
0,375285089828366
0,371924631997018
0,370077542309638
0,368114418006717
0,368794119822609
0,367888266311084
0,367638322113507
0,366382168229108
0,36740335428528
0,363545441635629
0,368989820072926
0,365291786202163
0,369183230804332
0,366287788816047
0,367742092291827
0,368759766636083
0,375189484761742
0,370014730989203
0,371247691707839
0,376486752560752
0,376805250553938
0,376946023598985
0,381209317773317
0,382789641694606
0,385054565430737
0,386201523492932
0,386055834788213
0,390290988848888
0,390530805279015
0,389474582866423
0,388343639593436
0,393295975388746
0,389338544404506
0,389696974247481
0,388375056391349
0,390974955957509
0,390658533395104
0,387668705078728
0,386363761997766
0,385939385784393
0,38769155250693
0,383008213945082
0,385131996730914
0,383207111875423
0,381693556394311
0,379901367778683
0,378805530075392
0,378079953345329
0,377791735816561
0,372762175618505
0,372393352409351
0,372091922110983
0,378431458486416
0,369438369043409
0,369858825557216
0,369089191800226
0,368188483432353
0,367161896461442
0,365448262022164
0,364106713472462
0,362631322056387
0,362126250276511
0,361888133112384
0,359795066742963
0,363655965330339
0,357887886219891
0,360820310735652
0,355687168590545
0,354350928083006
0,354973347533173
0,352546730734151
0,352770052323969
0,34947979606797
0,348395650765402
0,344970874546912
0,344334171294523
0,344061851097778
0,340880898480853
0,344902978991738
0,335450611575186
0,335247074034155
0,332373286113676
0,328381533435439
0,324011184166812
0,325292563730003
0,320947969142685
0,322755568127948
0,320454700278599
0,319804608114201
0,315987589622003
0,315098028582486
0,314728301505605
0,317618500400975
0,312857467833558
0,313296277907394
0,311486399923565
0,310072140152828
0,306832771425082
0,306431542502889
0,298476408911288
0,29983378180652
0,297795769810723
0,292175812261575
0,290141214236009
0,284855305796184
0,280489349396912
0,278870413117893
0,273410163482874
0,273288786778615
0,275136480749937
0,274100100177401
0,275653528638732
0,279625532479851
0,283270237882313
0,290047753125496
0,294488358277496
0,302118714221175
0,31117297492225
0,322040762064932
0,333721812798654
0,343191154918507
0,35658383746464
0,371047258766018
0,380306195535649
0,397916994091576
0,411256387798381
0,420685027450128
0,434862868072781
0,446216464413769
0,462512555402739
0,472795605453917
0,48233617582334
0,495147148983097
0,50817311621016
0,524100861830217
0,535011291531943
0,542013191573033
0,552261158097317
0,564886356787485
0,57120790692048
0,58126061054185
0,588486962928385
0,592101350089255
0,599273500646637
0,607817622981273
0,616924780765031
0,617720397005019
0,620375778920601
0,625560241561587
0,623766874416887
0,623536975205489
0,631008921718449
0,62793421943779
0,627284773659011
0,631611756689327
0,630037869480506
0,630672843090424
0,637848767937487
0,637633582242258
0,634990055504825
0,641614979758306
0,640882894426884
0,644449282665247
0,647984533787372
0,658000807420898
0,661036146902723
0,666833449251926
0,66955993355868
0,677385957415805
0,681406565658609
0,686971354359646
0,69385587480712
0,701992468415692
0,702705006509275
0,720882443627415
0,728319791265135
0,736708453324919
0,751794709925183
0,757603804808487
0,768803367065539
0,774304103151043
0,778197202704362
0,784681558979926
0,800316265956085
0,806856646048194
0,806967137329259
0,802978643956049
0,803728256137723
0,809669002102044
0,798413577196902
0,799752820986212
0,798987768764752
0,793509661229818
0,789659790308203
0,788883424230932
0,78938573950449
0,798874687845349
0,799025447618566
0,812453047207052
0,804527230635569
0,823342695279809
0,842195681576665
0,84147757637786
0,863344027355119
0,870356697124195
0,879675297720889
0,900171908393436
0,908316907991562
0,925692452678277
0,938095932134652
0,954474402711688
0,965258911725516
0,97421021489782
0,985158926939744
0,998183256645405
1,02290819694399
1,02554653623853
1,05081337082079
1,06860853656199
1,09352804970248
1,10426973821283
1,13484006632621
1,14732435312379
1,15323198257695
1,17963203423109
1,19832552640905
1,23711934904595
1,22857362035847
1,2451729470722
1,26138827794096
1,28084877954924
1,2782841140736
1,3330635499021
1,33892082590268
1,32321092492558
1,32338748567226
1,40516397462644
1,35909901517753
1,39056062129993
1,36406062576963
1,37249869448306
1,35176642058857
1,37900538488596
1,37169891833489
1,36852987235353
1,34787996907452
1,33750627861538
1,33742313977799
1,37122644011738
1,37743349330462
1,39678534888713
1,35535955636702
1,40211180459542
1,41775308015156
1,42555829386431
1,43426197571814
1,45293355833955
1,44539959787742
1,45948940087298
1,48881974758087
1,47382900101632
1,56401719218313
1,50182889525005
1,57469693452184
1,57795501959405
1,63868403816095
1,58404615685295
1,6095089583449
1,53543268230945
1,62721444853143
1,65133781486716
1,63193642809682
1,71203125030991
1,72769774239651
1,68019866991231
1,71460076912986
1,71363968907184
1,75961880176564
1,66589705832484
1,71576295622366
1,68637150663757
1,70143931634077
1,76478227537372
1,75034536679553
1,76551895097321
1,72826628110353
1,76394456015326
1,68078617516419
1,72683502543561
1,76409649788336
1,6995802602692
1,89704997968361
1,78297059051423
1,77681116870551
1,72304604924543
1,72059396144075
1,64672011809365
1,66976127559872
1,60685634143608
1,57535509194507
1,50311087011911
1,42269448178748
1,41104392196086
1,37763479751706
1,29096563356893
1,2883813274485
1,2382790720324
1,23187476563131
1,20795999137267
1,23572504165822
1,21480659380415
1,18827996903805
1,17434374719599
1,16679332349227
1,14369108966746
1,15025353991858
1,12233929229252
1,11822350990066
1,08030584708475
1,09524396509129
1,08738248224412
1,06565856464979
1,03663742050482
1,01396087917112
1,00578218624647
0,984293382521972
0,963594416333477
0,935374643035043
0,911249539308766
0,874112917498385
0,837392061650681
0,809038293836935
0,775128413416301
0,734386733540909
0,711495202979401
0,683186683088708
0,641851851579287
0,612798053669202
0,585370622925992
0,558698476246046
0,532602677907581
0,51022115787169
0,487614505705681
0,469716310079586
0,447867200405079
0,43888523144806
0,425578352846425
0,405414139993691
0,397665016903898
0,383431556471088
0,373765865011721
0,371790397722182
0,36432467676694
0,356771483493286
0,357639951285738
0,352867321204406
0,350975247893167
0,348916958875716
0,355925841349485
0,350781878534683
0,348433352595057
0,353691266001216
0,354775207808749
0,354671365542976
0,357029126137874
0,357575337576541
0,361256965775032
0,357335439187156
0,355243232963922
0,357737483643974
0,352414591484165
0,346402391665143
0,346816281699096
0,344860844242999
0,345349428296245
0,335697936501905
0,340395249933259
0,333595943134647
0,326705179214501
0,327022772864642
0,321900965070396
0,323767434645913
0,327204631963198
0,329854056677101
0,32769408609464
0,328636784747135
0,333112864523469
0,336264428237293
0,337770080265356
0,340086142274326
0,341224961107593
0,343187254286419
0,348464097423229
0,349036100037749
0,34795839371404
0,351686560696135
0,356835209673454
0,357372142740077
0,361657727904734
0,366771743587304
0,362047598064596
0,362727285683016
0,362621581023808
0,363983905880531
0,364669314901464
0,377289516591391
0,370246015661831
0,374104207614454
0,374820925758849
0,376816337195659
0,382365398303504
0,386132937581492
0,392951713218619
0,401093473364238
0,409699991593169
0,421529449632708
0,430348169064602
0,447937044375089
0,455403423126436
0,465710675463381
0,472735226365938
0,484615626030821
0,492168235865264
0,497380757552932
0,497494694691407
0,501402976326827
0,492616206040743
0,49088668162759
0,487017478351443
0,475967291425741
0,465772877038534
0,459199120878725
0,447617589239
0,451258551587838
0,441748218629583
0,441611952744645
0,432913142152141
0,429570903529371
0,437221445882156
0,435827328064279
0,442812757717224
0,442621159913109
0,435996605410304
0,437576933394625
0,428282636722362
0,431316742562922
0,417914684922352
0,418358884542599
0,41241867765587
0,402170131770726
0,409780510014939
0,417486524580911
0,398838975292877
0,399412258687484
0,393780016744733
0,388297926012905
0,383685829482616
0,382840657499657
0,382970579220206
0,375881070893612
0,373341193761464
0,366923643535304
0,368596375685419
0,363351834108082
0,35952087382483
0,356912629446677
0,3645162272263
0,363734155387603
0,34738940282973
0,351438563532382
0,353419599770803
0,346579603146918
0,341477113591847
0,344310394011548
0,341361856199434
0,334930522354718
0,334319732166513
0,328242049925973
0,32401230659626
0,331995264619182
0,323877248936723
0,318205062722287
0,310061190131498
0,317877358944751
0,324190420325563
0,310057877070769
0,31117653433122
0,312494298693478
0,301009428826683
0,303014300763001
0,302526842232318
0,303667860948055
0,307270386365284
0,303461815609691
0,298708955568918
0,305869915761337
0,307106276259799
0,301341550781833
0,302785450536525
0,311831266220366
0,31110944284959
0,316590599125686
0,31503312543369
0,31463917158349
0,32129852322438
0,319216232853647
0,316000891663931
0,320334591946779
0,325969327384075
0,32497248980233
0,325873034368985
0,33233242533436
0,320404353492577
0,341925243519204
0,332379503229397
0,340415113654409
0,348626808320433
0,349819171888315
0,353109866553049
0,355105798239495
0,355521026769035
0,35977530851534
0,369152596765701
0,376259834670822
0,374851101860296
0,390384224732035
0,404176310740538
0,418648549343327
0,420567811644685
0,454706394840394
0,462400002482114
0,471635707094286
0,492183221766061
0,498058108004205
0,485519605671245
0,53140047451936
0,535670088136031
0,5530700163644
0,572599404976266
0,565648964262177
0,572427401047383
0,580521765605928
0,58761197177118
0,590484378342459
0,574012047803731
0,590480871834282
0,569543245396142
0,54555272476419
0,55531643528701
0,595876940606071
0,574465566207581
0,580788443004418
0,563260148291379
0,559490905455572
0,554992853415468
0,558674157072162
0,556126214222931
0,558877989099109
0,549415107672311
0,548774916603573
0,52978485259905
0,527275558163099
0,507700233124672
0,508785570673673
0,531147219600582
0,51558833106663
0,502898512617165
0,48936171657873
0,4992122836843
0,496524156257325
0,476998102513787
0,476546177734038
0,460086209430992
0,491014053476855
0,487155339715375
0,449072184365768
0,470475996666418
0,478401672313594
0,471135166575662
0,495823357319809
0,486524067131769
0,489735628324177
0,466091623320917
0,453156398733964
0,46665594385704
0,475220240108148
0,475262280981663
0,485012139914959
0,48210417953037
0,490437647708082
0,455085321270959
0,477419085334155
0,498796420676334
0,4895513861128
0,505225361003697
0,517339203313252
0,500498129001777
0,514346620667529
0,484762602989282
0,506128339838557
0,514491816976985
0,535026706677129
0,50771406134878
0,542197374977336
0,544911199219963
0,528050114686148
0,53548036054578
0,511021073527924
0,504983690005758
0,533895886732841
0,519957495730506
0,50988373823537
0,534206571899119
0,594058584838189
0,546993541420308
0,638965945018451
0,597908966689612
0,60449570884907
0,656717043045419
0,622740112928966
0,643359336352585
0,634511692167083
0,711823280809185
0,71992164281403
0,662468711980836
0,698631256120343
0,671660251455857
0,719096220434318
0,704743347105778
0,679466373495277
0,663447615845022
0,68675208140267
0,730671261787341
0,721812856436191
0,677338716621693
0,732058493873631
0,650167739924381
0,690683780195086
0,684381724267097
0,699970223061977
0,627405240480295
0,660661859840744
0,66828372353777
0,617029563736315
0,67292229125523
0,582085812683637
0,666615688714008
0,716140891067552
0,588130346242526
0,650465817441211
0,56208430135713
0,560138726234551
0,687795569335718
0,705345777063613
0,658723038919303
0,625830767289003
0,546091562750715
0,639029876814661
0,676031930551867
0,728464334949055
0,643239918486643
0,577513391258681
0,665823246897692
0,645341624800608
0,748176912813695
0,766842642379944
0,597771820578697
0,857482316950391
0,703915334161917
0,795264106546903
0,730094317958376
0,76897707355236
0,584925529608304
0,556276195186219
0,693081880519769
0,738692504658201
0,825797271224065
0,805771497328908
5
5
0,441313912392543
0,700680501948555
1,10196759662563
0,468918504262554
0,770906098813262
