3596
4000,36533379555
650,420452594757
1
2
2
0,0213844233973342
0,022353860696628
0,0147765971915557
0,0200572602032995
0,0214582500461783
0,0166642458619085
0,0187181511386608
0,0242859296273785
0,024580970046066
0,0194384001434006
0,0189753196683685
0,0207851455253399
0,0221737075051576
0,0212133388502319
0,0158157496818579
0,0282675510555765
0,0257816709897626
0,0251174315966708
0,0211625995298849
0,0283523224858685
0,0213207409596113
0,0186226800108231
0,0166006295711581
0,0182831025667523
0,0200843615577814
0,0264440982698649
0,0181309036399009
0,0264081938877396
0,0257052373224902
0,0253465971765002
0,0257064577069566
0,0223584451640327
0,018889503943435
0,0218965102068674
0,00912300319206861
0,0132089868484441
0,0216197984738303
0,0212659890499219
0,0146623956500179
0,0263062191682226
0,0200081068458698
0,0276378799914608
0,0194866534477729
0,0217057429323054
0,022968584900001
0,0172335652475487
0,016566331407776
0,0196678167809349
0,0256331485754192
0,0243274655485008
0,00989317131368677
0,0185336258592056
0,0256703242616784
0,0224020829543873
0,0316600084824098
0,0228933588047361
0,0154690539858368
0,0168625243641483
0,0195862512038706
0,022713177195301
0,0236342605907036
0,0259046459480954
0,0280931449823704
0,015003545300786
0,0219850019552173
0,0120001106493125
0,0233726154545081
0,0100598438994023
0,0281294022804727
0,0267821305658481
0,0280434707583081
0,0425600703245179
0,0136398926050516
0,0219937213203781
0,0234968397305718
0,0323268869952355
0,0184165986068074
0,012064809665072
0,0203753770082176
0,0365530158279646
0,0221770450844962
0,0251472856767884
0,0255934902200163
0,0229640529218426
0,0336782978732305
0,0188499646594988
0,0138096966364753
0,0418941210630537
0,018492014551359
0,0196710059835392
0,00788942522926488
0,021429457562506
0,0114348890582706
0,0231716628385225
0,0198814612032428
0,0282774936669684
0,0141980662237208
0,0302413312109254
0,00559384527989501
0,0412222521363949
0,00202154748997034
0,0650391346922287
-0,00939041013912185
0,0214211409044263
0,0385931350898864
0,00809588825782173
0,0442969095008172
0,0207365053470563
0,0202838753133898
0,0120408233184969
0,0215799447043682
0,0180077393683346
0,0143011093154065
0,0238302353430521
0,0160019643232342
0,0319450665779291
0,00217827948611501
0,0263022053311004
0,0221296073630595
0,0212070559175308
0,0161902620587453
0,0576058443559871
-0,0148474596550071
0,030254888293655
0,00969100305692841
0,0223172829005262
0,022980493192724
0,056218676973751
-0,0117219061266362
0,0264793588127938
0,0125562196067231
0,0279388369020712
0,0114440823264644
0,0437479113933228
-0,000943586233147047
0,00918061627112045
0,0220680326400103
0,0298051820044159
0,048006487597521
0,0155478627233073
0,0179945232606204
0,0321121636222351
0,0099552103834494
0,0493688929444186
0,00194289319272155
0,0206224596039564
0,0209378961438539
0,0234742225855736
-0,00133503149630453
0,0263819415860277
0,0095331918216737
0,0266389413386431
0,0201541712292317
0,0202477009625167
0,0232045256845253
0,101007231450701
-0,0283989548336942
0,0815492295870999
-0,00197089218152215
0,0259543933104498
0,0178449009227323
0,0179062208089663
0,0193941024714741
0,0176819660329394
0,019849972242489
0,0108701470783238
0,0355063308931522
0,0066468515474044
0,0235984261656862
0,0314731220362457
0,0193310634113216
0,0217671547093365
0,0248302968106263
0,0477222639234164
0,00473171559587964
0,0509287594149103
0,0214313200520749
0,0285680684280862
0,00374519402930162
0,0429710495923325
0,00532699888705704
0,0246247215894166
0,0120680022175291
0,0191049078349145
0,0131451228719699
0,0202666177067315
0,00502903289412774
0,0301005119017306
0,0108712128657726
0,0236305789944509
0,0237767514823923
0,0558659821225125
0,0107435056689402
0,0257603417466959
0,0127836527417871
0,0236152932690097
0,0353065387323527
0,0136876610652543
0,0160641030864431
0,0179802662696743
0,0106287747233887
0,0265226186837543
0,0111033283855565
0,0234193495852657
0,0104800968844985
0,0408228364357795
0,019041317194416
0,0169952078719483
0,0113150364429528
0,0184616260163197
0,0162534071973158
0,0175672366664056
0,0422785952456382
0,00951992297258431
0,0189177865026838
0,0195675388701118
0,029222882264823
0,0340937802320598
9,07044286520751E-05
0,0189706708785178
0,0222107148357607
0,0186619552071982
0,0140337123332943
0,0151005507650183
0,013970106716401
0,013533531559455
0,0122525913093165
0,0225934442277299
0,0157842268225677
0,0319005797845596
0,0200383341217977
0,013912153555652
0,0153903375064448
0,0225000830801845
0,00665729926011318
0,0408235199677351
0,0103563973781561
0,021327222676085
0,00975667579242543
0,0177921163798338
0,0127389425021786
0,0205597244516373
0,00892290755794697
0,0224879226383908
0,010904628351603
0,0416354070612201
0,0177481451221436
0,00515896581699331
0,0227359285132742
0,00716870628641387
0,0374026612913578
0,00906274304864249
0,0268987797462455
0,00731280010284867
0,0238802372915925
0,0188149589314093
0,0338859593022266
0,0240545965657079
0,0130195671558907
0,0132364767533828
0,0327854894892856
0,0144853697750932
0,025724421476068
0,0240209033967054
0,0472459144994288
0,0626873649332009
0,0119172012731778
0,0534197708763618
0,0196038386919822
0,00467559871959488
0,0247642782371392
0,0171279504003664
0,0442046112260644
0,037424268071785
-8,28908720322094E-05
0,0128418109939371
0,0193992689417634
0,0246855257846318
0,00904264920586751
0,0390907900275483
0,0152435043808747
0,0564411395120049
0,00392397652615628
0,0372682130534383
0,0212743687529773
0,00987969304666132
0,062523053877918
0,00314573800224898
0,0266892903587236
0,0115687899410534
0,0239114426984274
0,00813882110696434
0,0411757312856804
0,0109220016395684
0,0370271962277864
0,0134073060889487
0,0329923367573058
0,0206370516817131
0,0157390718482113
0,0149433140259559
0,0261999674745618
0,0175106009709506
0,0165791228537036
0,0189334709154358
0,0115375339241105
0,0348729013772385
0,0191159419901119
0,054520249118938
0,0384055833549493
0,0160165636856429
0,031965311855823
0,0342196958917523
0,0121857636963752
0,0261319865848567
0,0118863578404074
0,0230279194329997
0,0117921980359571
0,0206894993630068
0,0235412022490813
0,0472960735604632
0,0091080196604781
0,0306515695380312
0,0111000610926183
0,0240425808212113
0,0152658734980451
0,032090271886965
0,0135601519195105
0,0288019416375785
0,0199334956001248
0,0220052638753519
0,0344267627705064
0,0407182608236094
0,0144513672027726
0,0642627747204515
0,00802638751814531
0,0295955433381586
0,0131561157399383
0,033598355170701
0,0213863619356765
0,0215364509076822
0,0243726650514701
0,0330141440687645
0,0279764407613256
0,0383860486725793
0,0177247906389597
0,0509755637176423
0,0180671882726937
0,0752023405749628
0,028714936373185
0,0286257881635138
0,0225245193035694
0,0307290479685534
0,0751452378565221
0,0214523785472643
0,0430153069812796
0,0362798561087209
0,0157782076140158
0,0372069092990897
0,0217723189511896
0,0401594291458641
0,0225625845697105
0,0360689673001508
0,0246630457912121
0,0397407302181268
0,0234101382957882
0,0485953913943627
0,0259554939239521
0,0571266015169769
0,036079510092736
0,0406217240584205
0,0314866215384055
0,0426805238446138
0,0268058600877727
0,0919022258095649
0,0228700040005473
0,0995341762209828
0,0245224265245979
0,0756835843956419
0,0385500709994889
0,0339849122536992
0,0499232507657953
0,0487226576833535
0,0442259687170458
0,0507155901966656
0,0460625834728076
0,0570217472540977
0,0505506336806939
0,0585083506640009
0,0522403679433603
0,0544634380128322
0,0491862003488683
0,0625792114089228
0,0657548918086537
0,0437601332779611
0,0714618443757
0,0679427183314081
0,0950410090284953
0,0702348607874328
0,0683350989974075
0,0555945768457662
0,0752865935936448
0,05245494842471
0,0646831221489524
0,072126399815302
0,0680732656922428
0,0779830976931232
0,0734284201569157
0,09513429285222
0,0634119728306234
0,104066227994
0,0714554683612833
0,0806422657244388
0,0980703033750194
0,0843982431973455
0,0997770537360397
0,0895048887859535
0,0814249438312313
0,093877403293922
0,114388849390818
0,0886527414042745
0,0969038361525346
0,111959994675484
0,0917384764731441
0,110722961872347
0,0853057268478654
0,112917315485104
0,0934582451772516
0,132033163346021
0,102305388969217
0,108500214098034
0,107833864233271
0,116875567160459
0,113673757472204
0,132470545021589
0,106037788898268
0,137039347715861
0,123252665839416
0,131813797301245
0,120625633763163
0,133392366947337
0,152967610710976
0,134312557294779
0,141917658250007
0,142355501177734
0,121720394268611
0,160829131180157
0,138842496711656
0,146934179427148
0,135044972575206
0,166048308222391
0,140450411894854
0,15380087168212
0,150602505654551
0,17143307508295
0,152919828144307
0,179012184655855
0,158751127439336
0,173589232346998
0,17041224736137
0,183491283153028
0,178308642462896
0,168547421763113
0,183373682873951
0,184795461193523
0,196176175391341
0,202469006733844
0,163439068613712
0,211781941026497
0,188624691667575
0,211358087284629
0,191194497074057
0,215243408945451
0,197421287198153
0,227554737443968
0,216043990381295
0,237633991851403
0,208862621174741
0,242953919989261
0,229337422621304
0,248791841790344
0,217903441581646
0,224407977379323
0,219081424049544
0,24511273109079
0,241026105748995
0,277843973732655
0,226151254633086
0,270786167189114
0,245180474507463
0,254730996520582
0,245471271674
0,272594856250508
0,264467697929556
0,285079302907744
0,275209413462791
0,280048402589876
0,271643653939384
0,297980935929339
0,266493908279251
0,283753026461665
0,291060313624602
0,324090335154134
0,280694528369166
0,307518320232804
0,314761822766514
0,315306223266233
0,302794639969308
0,328927013318197
0,299199643079099
0,33998361423519
0,332179039009809
0,361932868541805
0,333406542507429
0,341969672336687
0,315404542998907
0,3684095426983
0,328106204784734
0,364887031514417
0,34889344731897
0,371452549567048
0,347612351462032
0,367585837485447
0,35662555734766
0,395935921552356
0,351498162688966
0,384681802664392
0,368743543978043
0,399380886048364
0,361037475086548
0,405658689211234
0,377928510328169
0,380190358702314
0,377383938300952
0,421518022395382
0,403868199415253
0,42729133402025
0,386313414036124
0,43561706828311
0,420933337610348
0,44219578318959
0,401803479084713
0,449134411841457
0,433504996515564
0,458715253474675
0,433567784117929
0,457443792797666
0,447831734985496
0,4921887937428
0,451424211515114
0,459639693917261
0,459247788640801
0,483074585910853
0,466156557507907
0,483585983639862
0,469872022672417
0,511890465297464
0,457202820432429
0,507308692798382
0,487909641609374
0,527070306945912
0,477962622619419
0,544813312542699
0,488307444940225
0,534233550712359
0,509240319324447
0,52331280021964
0,487446758453991
0,523435699100365
0,496896192712633
0,536950838632199
0,531957182418025
0,554277582813159
0,514702039434607
0,562616777604699
0,554301572255403
0,588525282101644
0,54675180879241
0,588232089352196
0,567465215899182
0,587465380310392
0,570967681286629
0,603745077527143
0,575171963630078
0,600062271695072
0,580301895482117
0,570835620502812
0,572257800950232
0,605722218250796
0,595497989783732
0,610716130830614
0,58332061179913
0,624641832020517
0,584888125534922
0,657745846934312
0,583291160559182
0,624956002543184
0,613041222881429
0,673914362199861
0,601733827254685
0,662488441982851
0,607284568663966
0,6278291824301
0,608349427937346
0,639807071418918
0,618025988391647
0,657539070930445
0,624890561383859
0,681217126065114
0,628384127711017
0,706815814729547
0,650002948367703
0,706732220315006
0,655706507562856
0,686289441444459
0,687051894154716
0,707012931703971
0,673119352129721
0,719254555838153
0,69128907953188
0,736860869261638
0,687684632605725
0,717025149383154
0,673094376867288
0,721233380477179
0,683897929879275
0,705885536549481
0,681783720305195
0,732127802205527
0,696547500367918
0,706931376448841
0,709486882560194
0,7543246521446
0,679833002230823
0,734759476201589
0,728192425880987
0,731358989537204
0,727165539341224
0,774352666711758
0,711965730286136
0,758190689782936
0,720799828790874
0,740238866596497
0,738994190050848
0,767057017651133
0,714638523132864
0,773359467264934
0,762117079509607
0,797298571286693
0,715572501362605
0,745693683695681
0,728473438193773
0,774712446257359
0,752081720669406
0,805296778336503
0,778413583644735
0,819058298836633
0,763691215669712
0,800505475858049
0,805819342039756
0,812998102452015
0,772932148606138
0,812537427440053
0,760070418545539
0,842422759880458
0,817015742658092
0,844845170474663
0,782434207343156
0,845383427147382
0,796932851942456
0,836661312174599
0,795705387497828
0,789906223397784
0,806157046458088
0,841122632516282
0,764157024960164
0,820603948909108
0,758989458581223
0,791472040986259
0,811837333783719
0,814438737483033
0,841120045520604
0,881515958996104
0,811642798541713
0,850923877390558
0,816038903094773
0,838409364656516
0,822482848029993
0,852388374115781
0,829932025982168
0,853249161485818
0,791218869354768
0,816253778480023
0,807341526742227
0,83691821763621
0,801232195053487
0,851303597436722
0,830805508190016
0,869721674902783
0,808019481246986
0,853578779882173
0,839115183822351
0,878611888779027
0,81184481534425
0,860270534903226
0,849037375098091
0,834475076609323
0,823060973862703
0,857008483706692
0,785745374904486
0,870230344265523
0,81073161232283
0,875763624333442
0,883630038401325
0,887985248021529
0,842346806292274
0,903777629877556
0,814734786259024
0,856296515872474
0,827317270546211
0,833554669235138
0,826538038300714
0,833073254845307
0,835805678388405
0,858357591156928
0,865169306160517
0,868649226352426
0,838622893773328
0,874023284010628
0,816998188311902
0,866068196826282
0,830096333642806
0,844333353425102
0,841554551342501
0,831402315180501
0,812724363995273
0,882458762592462
0,848476021897316
0,81913785618361
0,791559069746975
0,835524176373527
0,810182503748519
0,843236055558787
0,831511087192806
0,852940304447252
0,842073160875853
0,855615461058133
0,819917016774096
0,858406808333125
0,84704408300884
0,841651637698887
0,832020943620057
0,856008709135897
0,833913056817121
0,865651362586758
0,850873461876587
0,857138460926733
0,824535487488241
0,820226223915016
0,809076545901842
0,845061413580297
0,796174661253981
0,843589368422315
0,836704579521449
0,863731082224353
0,823642995296502
0,886343188450602
0,823206331469785
0,832029687904017
0,820179772868628
0,829041309105976
0,78483673446463
0,837998642949968
0,808644494825972
0,802934229717308
0,819325841426399
0,823160725248862
0,806356575673151
0,821983565374623
0,785980958560747
0,828677487580064
0,813623707830131
0,809124485059122
0,796959956281472
0,816989356012427
0,823961778931913
0,808758556180092
0,793547019593406
0,828626235501698
0,78364881013227
0,814765616606621
0,792632955366546
0,782773498632161
0,78433980523511
0,828231842825501
0,782990824515207
0,801343423200926
0,766668297114327
0,817240488642033
0,769510289146251
0,784225726786854
0,769890654236571
0,795853287702064
0,783469110999918
0,776179559307423
0,767882224504286
0,800494233629397
0,767068479931205
0,765351336097628
0,763620587214054
0,793788808693169
0,792101709233611
0,77295959715515
0,749484905717684
0,777953627892398
0,742130085574053
0,773454385122969
0,73851856783431
0,73740271334153
0,733318186044489
0,736562059412005
0,737607567520599
0,733511706272278
0,725673447356397
0,76140841850102
0,732466986893974
0,742141454510548
0,727925426137909
0,742670873477532
0,714161663117471
0,742228618277285
0,708227186701432
0,712762627011985
0,702255885302279
0,725421585435513
0,705447632512965
0,721177686595786
0,69224494508005
0,710986683908773
0,689488977032928
0,690395711593447
0,690902757540364
0,713608409791193
0,691324450268682
0,672093465280452
0,672382768283726
0,693873742496416
0,682395209075044
0,680750006175721
0,670913440388041
0,696206736586677
0,669107383324536
0,671853976549413
0,668604400624393
0,663557721099767
0,654802533534339
0,650154413183017
0,630197025137172
0,655284277814268
0,641190690061288
0,649325098597023
0,618061304328036
0,625082717290392
0,640460747539315
0,644270462293433
0,621100557302269
0,628085418942237
0,622918067474997
0,628747012230265
0,614642728646298
0,624318980880233
0,604918030955174
0,60242950991266
0,601700843598928
0,606450943483947
0,598724862104826
0,593953613322816
0,595438028036631
0,610613070142447
0,594781526652875
0,592098690350142
0,582959287550026
0,587631924408483
0,571952942301555
0,588929419033735
0,576348437747857
0,585291617534764
0,556185908164665
0,558483468966987
0,568341147926424
0,562068459537163
0,555514977391775
0,554341665103961
0,552350228000916
0,551436184619076
0,540803045730795
0,539549159301505
0,53204426435989
0,540738296509639
0,526114796174696
0,531579751985046
0,524645518678657
0,534247874973342
0,520723651028839
0,513935895542684
0,515526304673776
0,511521856961604
0,504352574816824
0,517283478746755
0,496622820191273
0,506095465441355
0,50548618106251
0,49576476559908
0,480514613490481
0,497291766333818
0,491471460887187
0,490925978280859
0,478269985894127
0,482923867112462
0,479200030927844
0,46874108823746
0,46036121619427
0,474507703641196
0,455007370121875
0,45407690305261
0,466384066005493
0,458042635468814
0,442946804077366
0,4576894939131
0,462823268712839
0,456237500386243
0,445755134453164
0,447483702934824
0,431516241606226
0,437943893619601
0,437665702924989
0,439328635753816
0,427828159028584
0,437433794411962
0,423580595063114
0,421966529148394
0,422123982729056
0,426228802196367
0,416691552138502
0,418535288326155
0,409132734722238
0,406883564040719
0,398583184699064
0,400311412735849
0,399870390540906
0,401991083119699
0,395256952329446
0,399986222323794
0,387819211363294
0,390743326638984
0,384551492885204
0,389534499281787
0,380082166946738
0,39172715190365
0,374185148311751
0,374126678314256
0,371290477302086
0,369357412270955
0,36353157049068
0,372852247397649
0,368064248275945
0,365517261424497
0,360545232912114
0,357755281479148
0,357747123613746
0,367879544166116
0,366593555315438
0,358171427997212
0,34800588473209
0,345450502542346
0,341597892560324
0,346702021558438
0,339009519292495
0,338808382428098
0,339542226220992
0,338443395968439
0,329487072199376
0,333958871243869
0,324286447781775
0,326155345180894
0,328265210732407
0,324635437962262
0,322217336803421
0,324223880631672
0,318151143468757
0,325692861196635
0,312917664838607
0,310309421583294
0,311290233837808
0,313385117217429
0,300771928331742
0,30789811902989
0,29983140967863
0,299957710772274
0,29810812589286
0,305606247624403
0,299515640025694
0,302102205382462
0,291449510597133
0,293143375665061
0,288726458653356
0,286218960492637
0,284414489299476
0,29270038130846
0,293156294261579
0,288915192633371
0,278458126598287
0,277090360746963
0,278261792355537
0,280802073446091
0,271899970810426
0,281739440458903
0,270983632605784
0,272863237247409
0,264309682973207
0,259329826828319
0,260592081263309
0,26330676626999
0,256594370156654
0,262397333325667
0,257013950613723
0,256716416587927
0,257498188644872
0,254712034372959
0,250892617240162
0,25552413314176
0,251668660678116
0,24997097705283
0,245979403671821
0,240799140293095
0,242476361338077
0,244001735348027
0,24090359156797
0,238637749840308
0,236282058567794
0,23868145834695
0,23173601388093
0,23388490441381
0,230465202523546
0,226899841963848
0,224109629145505
0,230771253749273
0,225870466347369
0,224253904907567
0,217602994320805
0,221060197993428
0,218258763046241
0,223121810453713
0,22237103947283
0,217804443748562
0,219643983770073
0,223619718777347
0,216812693453946
0,212818224086108
0,21467749144726
0,214247390166675
0,213587642957762
0,215991983949286
0,210403442883809
0,214416435507289
0,206509056157729
0,207401185154334
0,209677817231459
0,210063537731867
0,20248278931306
0,2056355030289
0,205725015804425
0,206743831045821
0,202541800799837
0,201370194057974
0,202443849135223
0,209693348333914
0,206854159909831
0,206181079459584
0,200542181758585
0,196461956318899
0,202509902136933
0,203602350805602
0,201868254514487
0,202596299075906
0,208938093112535
0,209140301896526
0,20460038900127
0,211981861548526
0,205400895183927
0,20755091615496
0,208326895063593
0,21219257057376
0,206830827304045
0,210739799514408
0,210319829851086
0,214951663246282
0,21388071993026
0,217965852725602
0,215917805617883
0,220811424548167
0,219962426012764
0,225834956595721
0,226188313527517
0,225701437103341
0,229275238814717
0,228184151041483
0,231213778828296
0,232921054991388
0,233442845843903
0,236047075923011
0,233981945176321
0,240209455123084
0,234215550839896
0,241258096401396
0,24241007497405
0,24349556261324
0,245219063983508
0,250188235092186
0,248865042846818
0,251190726963157
0,249542587072285
0,255508190843025
0,2544898557964
0,259425260609576
0,260963476648449
0,264574681279552
0,267584731982481
0,264028365598589
0,269694225051368
0,276071873620192
0,269497888771969
0,276852850812213
0,279823852986262
0,280048306226278
0,287682612975193
0,287617214501846
0,289888501853256
0,292847198179174
0,301674446204505
0,298629085067597
0,300228473350021
0,302701062382925
0,297759742915164
0,29793098154052
0,309069903892296
0,308382531066422
0,301606111161752
0,305870442380885
0,307112999217516
0,314684094881624
0,313826671426242
0,316124092035538
0,310364418694441
0,308311369245418
0,320536930270432
0,310401522064565
0,315802574330576
0,312159281249831
0,311049353764167
0,317219051640412
0,322955771959
0,312567645820957
0,31127493281783
0,312628767768044
0,310784375740295
0,311090903229514
0,300942286231796
0,309477938380616
0,307635916176052
0,312216423703957
0,311050882132544
0,308383037545312
0,306184664198899
0,303850987438913
0,30663422003923
0,310256300095465
0,308622270693994
0,311836311647624
0,308249918392446
0,308667704731977
0,314305890179628
0,311739472895618
0,313501096728566
0,313739882191412
0,311544883598203
0,306195026320201
0,311916365908374
0,309464068828398
0,311264379753158
0,306617224816302
0,31130672462018
0,313042202017866
0,310879202298823
0,307051448423602
0,307739986094699
0,30815615193726
0,309392431569377
0,30803758686489
0,301268853781421
0,307205281643633
0,304778173623534
0,309783442071592
0,302134577171266
0,305478655969457
0,30136286904736
0,303095088974505
0,303795024020507
0,296556328038078
0,295344956135818
0,296161181784781
0,296109895449989
0,287573514156526
0,28619896336668
0,290456877881516
0,285999544718052
0,287258185304614
0,277294226447909
0,278812462021529
0,274425241016748
0,274320641245961
0,274395508758588
0,264705696372515
0,262385959541821
0,269355949545141
0,261043219167531
0,259943532635862
0,255376337987015
0,255276572676947
0,250402181273474
0,246988591626639
0,244482023401791
0,245096066805784
0,247822794724353
0,245077604556862
0,233758963518604
0,23670395874822
0,23198338964873
0,229198631037547
0,23030717512543
0,228174879277387
0,227282746377702
0,220689611639865
0,221884315397165
0,220555975407164
0,215232955012938
0,21653991301378
0,212773223806582
0,211948744237569
0,211735467415287
0,210032761788242
0,205082697285978
0,207278981244799
0,200504308381171
0,201353589549375
0,199533804689192
0,200852784223652
0,195869420615237
0,194416662107936
0,195747133949381
0,195489829854213
0,190440798091274
0,18996889922351
0,184524525054358
0,187516689457109
0,189961071189232
0,18798286547803
0,18683674504112
0,186496409107209
0,187772451323402
0,1825344253375
0,181402734546421
0,184990660944911
0,177773039126747
0,179852733527479
0,182311732581904
0,17808416768777
0,176553733799359
0,17887336487648
0,17493094095445
0,169639147576388
0,171140009756521
0,170533373127148
0,172859248777903
0,173244312608471
0,167674069637217
0,164939810469408
0,16970155279689
0,168441120888999
0,168175978913794
0,164940077536408
0,164204040226878
0,167219788967403
0,165355008518564
0,160992082084235
0,160148896421161
0,164397878939763
0,161155269518004
0,158022371761144
0,164333286751821
0,156441273691547
0,157461816050122
0,155082418925659
0,154068117538373
0,159950882360158
0,155783084850158
0,152341497493051
0,153525642958953
0,150150116616077
0,15326236251645
0,147676657714785
0,154405677214147
0,15543453049626
0,148222357070949
0,147484282813118
0,150587325011416
0,146707284513851
0,145250917068863
0,146455992603603
0,151760406115975
0,145528176153928
0,147629754477394
0,146932780400349
0,147777447014668
0,149809558783736
0,144280809067895
0,144290757760166
0,144634864503717
0,143630790740426
0,144099195619543
0,139203700357581
0,139023919854687
0,140823471125553
0,142090438472556
0,139980552201066
0,141480261162904
0,142137802681232
0,143521265517996
0,145109786448501
0,142410485354287
0,133518655106622
0,138285951901545
0,136029304719849
0,137338753312849
0,136409097851754
0,137625912703807
0,138591736219253
0,137657624290166
0,136104936648208
0,135266733198507
0,133028153278977
0,131840788871943
0,130722600504999
0,136603817767816
0,133760026411828
0,137300492647917
0,132579139803166
0,134094018369462
0,135455407818495
0,141142785294521
0,134682638171345
0,130987310849565
0,133823206855071
0,135480176284686
0,13434386396987
0,130210021406456
0,131630670838062
0,133474792304635
0,126181194702077
0,129762909786108
0,127614169762787
0,130573860695615
0,130562463876474
0,129331805762078
0,12584658432748
0,123692615215409
0,126597301898094
0,131978083442693
0,127589345429788
0,125762096479298
0,12560278728407
0,127523329671607
0,125104617679483
0,130135485647833
0,125788225887029
0,122351794172553
0,121745911009951
0,13005024596064
0,124632195933108
0,12571370826754
0,120799194512735
0,12126558126565
0,120352892831262
0,120942185494351
0,118641607724303
0,124329376449048
0,125334697525546
0,124063443144173
0,123914723501467
0,120942754604846
0,115801651065539
0,123629382300439
0,121496101044644
0,119113738436109
0,119768179862346
0,117172443046367
0,118765568680807
0,11636008497929
0,118743824233829
0,115472346253623
0,111286779452547
0,114246144472879
0,117225223194895
0,117262365683894
0,114539722251408
0,115062773833984
0,120294790782109
0,115040426870033
0,114015536930091
0,114743664949702
0,11235283777618
0,113790851815406
0,112251014965453
0,110199414928366
0,112617432679149
0,112613354984161
0,108962630470414
0,111993525192338
0,105593035033225
0,109313269600657
0,109815868255104
0,104798599919452
0,108816645856911
0,103590797331152
0,106321898052727
0,104266540242237
0,103189237701793
0,104635354619403
0,102468752554787
0,102212467276906
0,0998278230254097
0,107962151090565
0,101816552175449
0,100684912299459
0,101569892256478
0,0999840447812616
0,0997597308554473
0,102332345805862
0,100674054882572
0,100862966621703
0,0960627384772565
0,100187205216492
0,0971048814871137
0,100716078539692
0,0989314335490758
0,0950299888818212
0,0968170859386805
0,0956073609642308
0,0946900482338959
0,0949739561853315
0,0911344572913025
0,0953470085814267
0,0919503338449041
0,0920236232912599
0,0916088041944008
0,0942179076862521
0,0919952574368244
0,0931117860577546
0,0878700617931521
0,0896224949230832
0,088012742352309
0,0904193395618085
0,0896810735017303
0,0871047346372565
0,0859717150691138
0,0858405337265235
0,0849809553993501
0,0876970611458701
0,0866074391672161
0,0881052107833914
0,0856109608849778
0,0860203183717974
0,0832797982277059
0,0867136219635418
0,0852377250126517
0,0844974456702261
0,0856052546997675
0,0833661938456521
0,0819575366119489
0,0853464465036806
0,0815810369948268
0,0781665505162446
0,0825712782589228
0,0815345249696806
0,0780714108776627
0,0818579461555994
0,083862698533051
0,0783901434760561
0,0780283255973623
0,0798143198290753
0,0796457415104135
0,0790081654008396
0,0752816894004056
0,0778537901093592
0,077394121393599
0,0758830978377001
0,0795832301543106
0,0813671622246947
0,0750849704251952
0,0789016849854991
0,0752275576173682
0,0763511840383891
0,0734768029645027
0,0760968470215983
0,0738117223711755
0,0776286923869611
0,0714821402813916
0,0762427179472554
0,077599888834514
0,0728493504665817
0,0723085494524153
0,0748635070857746
0,0705074497990306
0,0712772597078766
0,0733510055781627
0,0703608486530304
0,0749337357163523
0,072525856627742
0,0690644419850286
0,0710684390198615
0,0702384763048063
0,0708717054593885
0,0685047181626843
0,0727468842650502
0,0742501956129772
0,0671439478449719
0,0681434689877026
0,0702924374011214
0,0683964132714691
0,0694863855133388
0,0702489667659407
0,0725711600740577
0,0693231506577456
0,06954999036885
0,0664942630246359
0,0683114717872158
0,0670223944364873
0,0666836525899144
0,065193438341477
0,0697496002144699
0,0642214890334518
0,0677902753514263
0,0677356295980544
0,0652712854721783
0,0659836074402738
0,066021406790923
0,0662482377279929
0,0698035760378632
0,0645988880143656
0,0643887980914976
0,0663030528127355
0,0678494062935064
0,0666301407976641
0,0654982179301267
0,0662787932709677
0,0663931282513748
0,066713648928161
0,0598171538197561
0,0619362329458585
0,0659983528821738
0,0636114770040524
0,0629137391577512
0,0650736390815072
0,0640544111694922
0,0664304136027215
0,0638194248311561
0,0635095595445174
0,064682174729465
0,0618826140383699
0,0644477841485741
0,064168987132389
0,0613838697186233
0,0609391061411267
0,0599323039325047
0,0613422770109145
0,0607234071861244
0,0605022903027509
0,0606629986789352
0,0625638159401597
0,0628977163825846
0,057990424338647
0,0649286444240023
0,0594953883411951
0,0583502007585864
0,0596986591574524
0,0597221039505091
0,0579808014882148
0,0573581617642104
0,0609419747995688
0,0623559330746535
0,0604090361924201
0,0606797760611749
0,057714832160074
0,0573564677807508
0,0585786082875274
0,0632395027451255
0,0578306853018513
0,0578616591046106
0,0587111626943361
0,0571415523210711
0,0583513297340294
0,0587942860792935
0,0571563425294749
0,0573547543328287
0,056827368418082
0,0583275920508081
0,0542999643170253
0,0581875498203593
0,0565418776885132
0,0550301784668927
0,0538465475752261
0,0560353763804617
0,0560904878716902
0,0572452495693117
0,0560334896442551
0,057296233322785
0,0505799865888282
0,055345964726564
0,0548495835572826
0,0592830463719729
0,0571070759530224
0,0540108680556501
0,053785953384748
0,0538443787620773
0,0543306818675577
0,0500662310940506
0,0519779485106134
0,0506920152379217
0,0523433352879072
0,0533902249023017
0,0524877006100075
0,0520240505444358
0,0501417442850446
0,0512461255671355
0,0505908996789724
0,0508258830639801
0,0468293928461393
0,0514594856421707
0,0478550964069954
0,0495671208535126
0,0498066311184538
0,0493715718528971
0,047616350705779
0,0469394167186175
0,0466481717436911
0,0477179862711651
0,0482839775170578
0,0505427731323152
0,0473729107167868
0,0470989580536443
0,0462076282964891
0,0483740902090579
0,045803275016603
0,0480750334202913
0,0480889799650713
0,0471658605819784
0,0456619713949223
0,0466755788360716
0,0464300150656033
0,0458981847686809
0,0450292388097546
0,0472323982770685
0,0422292104903803
0,0461706136577808
0,0420302935718713
0,0450960731779921
0,0418126965804061
0,0443463261180312
0,0435762030569251
0,0426490937979849
0,0414712931813248
0,0409342840773896
0,0442251632718669
0,043376785361339
0,0433023982204172
0,0438397938706127
0,0408150587111247
0,0448542515218639
0,042132047255424
0,0433747240099794
0,043326443102831
0,0417192527573293
0,0391682787579806
0,0418254836864068
0,0393107279550464
0,03907351728253
0,0395247362761951
0,0408556300081592
0,0403522997016361
0,0403728470082553
0,0396243575362203
0,0393374223510248
0,0397053066255115
0,0376165951887755
0,0384491987198661
0,0408109099254807
0,0416160710448675
0,0406906236008332
0,0380511607886985
0,0385503389742467
0,037911770066599
0,0379169375535392
0,0377526040212131
0,0388709654529945
0,0390603225628845
0,0376211491770281
0,0388551067751633
0,035661280707235
0,0354210444794843
0,0366260123194819
0,0381825876394927
0,0366206673215312
0,0381455299306175
0,0385570908065054
0,0367526293937393
0,0345163384093488
0,0383026698364308
0,0361438029878026
0,0348733630453129
0,0364222177216268
0,0367499596794418
0,0350645021727445
0,0353187308462173
0,0372491198698143
0,0366727635640555
0,0364755392971606
0,0362493360554771
0,0381082022476362
0,0367492985032552
0,0329593279312348
0,0355947639923658
0,0347004215833186
0,0386818030604367
0,036891038513565
0,0377173744978008
0,0357594759288025
0,0346071546532778
0,0361860122696471
0,0405749986481763
0,0344984258045501
0,034949154364048
0,032714489553436
0,0286034411511765
0,0304510129793764
0,0342619051050577
0,0336629988751389
0,0337383377880065
0,0296983367012393
0,0309334661565311
0,0273030630642206
0,0350660333775967
0,0334285672698369
0,032616091552573
0,0395755722537701
0,0301374424945432
0,0251758633329604
0,0356576070794395
0,0301885870537768
0,0420008905955495
0,0246512303141521
0,029247960105175
0,0313599845959763
0,0347086565315736
0,0316956466175494
0,0372616244320815
0,0265716718595186
0,0362235967634758
0,0235921740959769
0,0350576124784442
0,0210213815845824
0,0397678052447556
0,0203419006202977
0,0402618244941027
0,0208634624317047
0,0457504351892241
0,0236395796112878
0,0481361238329386
0,0199860282222854
0,0426065826912496
0,00952703810157483
0,0467986672202579
0,0138140037947805
0,0543852411631719
0,0148251913102151
0,054610624135633
0,00639275318449611
0,0529433673203621
0,0113434486307258
0,058960847687343
0,00493845220510342
0,0481917386711461
0,00959995719674647
0,05811306153825
0,0119051450847757
0,0377320981915858
0,0233068281139428
0,0393222304347519
0,0298082313516521
0,0241828157309981
0,0390510689689052
0,020022746507042
0,0454177832142609
0,0184607612194713
0,0471227107388352
0,013319550637691
0,0438942991020823
0,0210572059543195
0,0387226708468388
0,0221581914818927
0,0318202876019315
0,0302243724095858
0,0292842607576692
0,0293775144493596
0,0299526897131901
0,0314140878647205
0,0323224359087072
0,0253643756019266
0,0326916053195051
0,0271443765347525
0,034320253094722
0,0261885816583497
0,0304557852602048
0,0270456515862415
0,0307482330868845
0,0268701790056759
0,0317212810610732
0,028261418711708
0,0314575897816776
0,0263327893805525
0,0296468633679667
0,0258110783293465
0,0303931512469222
0,0264430131511056
0,0281126287235918
0,0268446165649426
0,0301490944022427
0,0265153497089623
0,0299226215053442
0,0265049349432639
0,0294841851414909
0,0259916661130686
0,028468312748794
0,0249471607803719
0,0295023233888046
0,0287944569440295
0,0304631016590377
0,0279015291826582
0,0311907411149376
0,0268220016225361
0,0305816358927203
0,0254042853975422
0,0309820673258692
0,0282545611358834
0,0288035250456821
0,0258432839349764
0,0296728066427836
0,0269793778121758
0,0310931835333687
0,0270937536018921
0,0302502984751066
0,0263534679301055
0,0289854504744448
0,0265601274414234
0,0275392317755012
0,0250241588234399
0,0313730726931907
0,0264137581454453
0,0322331406402302
0,0245964545265286
0,0288531667625288
0,0263533345392646
0,0285000967074156
0,0261286908061177
0,0318352276753561
0,0285367000791492
0,0280699448592856
0,0273171531233955
0,0291967665599792
0,0292634261526912
0,0302004930292755
0,0253868078269899
0,0289901980829445
0,0279962176221443
0,0298516463821031
0,0256350053442043
0,0298667485041322
0,0255187127534481
0,0299493332635217
0,0254510427826833
0,0284455195141967
0,0276544672275839
0,029426974041727
0,0272847854429176
0,0294226159083379
0,026515379218211
0,0320179355824616
0,0268688481357332
0,0289046074324189
0,0276580284137299
0,0301521643508505
0,0274341344315542
0,0303065081220507
0,0279541284168265
0,0299413560726393
0,0285634462068443
0,0303591920385596
0,0283432548286131
0,0300327170075333
0,0269274834901295
0,0298443757599609
0,030670486063956
0,0317720016074784
0,0265641557303281
0,0287504701297466
0,0250056317611508
0,0303636031999398
0,0281605603291956
0,0296729153097908
0,0258705811656875
0,0289867093682391
0,0274910115047332
0,0290371070497789
0,0273545791642013
0,0302054886996532
0,0284923750265247
0,0292431560304251
0,0284465817325722
0,0322737823886093
0,0286363650696332
0,0304784746961676
0,0279481104468214
0,0315757001980931
0,026861857351676
0,0309114575220687
0,0278650456351659
0,030214008917231
0,0277846974304395
0,0293544555324666
0,0301164315482873
0,0288826601807221
0,0294568234214655
0,0318134864285274
0,0307559783651602
0,0311090477757415
0,0289066597732754
0,032724802139446
0,0281251048509311
0,0318454507469504
0,0291938689544604
0,0319535004966619
0,0286923191600862
0,0308150881203667
0,0307211650682836
0,031943866117835
0,0284945350522497
0,0311204408576039
0,0292495858938717
0,0298589190182329
0,0274457736942937
0,0307396131208236
0,0301290714976268
0,0323949860726759
0,030891025888973
0,0336650340375543
0,0287442584576651
0,0318695790385064
0,0279479608889514
0,0304559294508875
0,0300551901314797
0,0310883489821749
0,0306593305909784
0,0333774753437542
0,0300908687663557
0,0332223443461581
0,0315469643620706
0,0321644492433075
0,0309461702301271
0,0323812423099102
0,0288356212772085
0,0324901034262363
0,0301947768993342
0,032944114962135
0,028641734500742
0,0312310941490701
0,0279292758926301
0,029075652371464
0,0303990017148048
0,0306392708162741
0,0304980553426433
0,0295743012451964
0,0304853281983643
0,0323773330058763
0,0266808720850798
0,0309504067851207
0,0302754877312388
0,0317053884809597
0,0288127811105031
0,0301163887795466
0,029521570224843
0,0325741336505125
0,0279124664319762
0,0273806781846857
0,0294191006008485
0,0327436775113141
0,0288831251383562
0,0306229724778041
0,0297611544044676
0,0300566897418989
0,0279232626555947
0,0286004134247602
0,0269394980496131
0,0310555172390861
0,0289787745370605
0,0308791120134715
0,0293370957793402
0,0330696353063834
0,0270909222739406
0,0284425792003582
0,0270071825687427
0,0310327265122824
0,0287220973904576
0,0293768907689122
0,0273888534276205
0,0278726082971311
0,0269889627910963
0,0277610526123711
0,0288373368887859
0,0297294132044056
0,0268155252451017
0,0285700396519188
0,0272407191115561
0,0304025255120957
0,0294476356159977
0,0287131751433252
0,0261523360436009
0,0314101067506486
0,0276337257311509
0,0283847577400196
0,0283438872809087
0,0283038709652399
0,0279821792828505
0,0280467147749518
0,0247129037602126
0,0278697139922708
0,0250333880393946
0,0275431480068198
0,026794056506546
0,0282948307294544
0,0246095652794218
0,0267979802376406
0,0253538242215579
0,0266518622170187
0,0269640571537721
0,0272516186393078
0,0261347475693603
0,0326941916826403
0,0268193553612558
0,0272682270155407
0,0271038188507081
0,0297863147358908
0,0278072097611779
0,0291198120792047
0,0273115892156798
0,0297197031181888
0,0236127547975149
0,0254252824804873
0,0273533359561614
0,0288402757679403
0,0271337717140229
0,0298435931716038
0,0276373904664287
0,0272313823659357
0,0270086392776992
0,0291993186561407
0,0268876499364042
0,0259647732865013
0,0251848557614513
0,0282211941729478
0,0266609101628385
0,027286299442694
0,0285967954774603
0,0283789000341311
0,0270199985542409
0,0286961044032896
0,0282465487925208
0,0284523001517298
0,0264587842594692
0,0305904856777308
0,0272776400361762
0,0267333505412866
0,0263903001602389
0,0301299486751258
0,0275302753567164
0,030453868633557
0,0240432720240975
0,0287055644731317
0,0255757684475234
0,0299147467622779
0,0258487467341408
0,0266317065739247
0,0241164181951118
0,0265915094235779
0,0242290286595871
0,0254431115145465
0,022680171600316
0,0281889639608545
0,0270102143899623
0,0265096340113184
0,0229143861871344
0,0274725760607363
0,0224106026980006
0,0260672921414392
0,0252960315533925
0,0277257462976943
0,024933751725865
0,0284325241145902
0,0231295763929873
0,0264299941355532
0,0258176672932642
0,0293259640818951
0,0247944341563351
0,024275068457105
0,0252893726442885
0,024911581592188
0,0243805887891031
0,0255245771895885
0,0231262585745864
0,0236632969666508
0,0249925778115799
0,0246131093368496
0,0251376103891931
0,0245291962171185
0,0213979261891655
0,0232473645632241
0,0223744673946192
0,0233118211671974
0,0219931472088668
0,0235548810554584
0,0251138890818991
0,0238062547044578
0,0219489579481183
0,0247581008598791
0,024258612180011
0,0214237416136138
0,0280359421559879
0,0230638614475265
0,0281143909007415
0,02114369710689
0,025989729509335
0,0267689582552034
0,0231169057132168
0,0225462284513299
0,0238412744031385
0,0233333206127901
0,0211120892718169
0,022380458917859
0,0223861635711334
0,0224360753810607
0,0214197241029555
0,022610686507571
0,0222562833557494
0,0231324618400266
0,0233270834849856
0,0252376082732887
0,0219846908166141
0,0237414423612035
0,0221523627409616
0,0224922946920349
0,0228817266916597
0,0213067040865245
0,0229929685258988
0,0215450786711436
0,0223961854866142
0,0238773055710368
0,0195098732228477
0,0236363428758387
0,0213770807495027
0,0240087596935517
0,0208419491781758
0,0236559775571659
0,020828593876046
0,0254064605517692
0,0219926246134767
0,0249200311415779
0,0227858900164626
0,0246329366047121
0,0209358835469638
0,0221981522598453
0,0227669616028088
0,0228435654298975
0,0190782023483
0,0220957436754669
0,0205798481072805
0,0254059950191354
0,0176335808266246
0,0258444222353498
0,0208321037980661
0,0269147922647297
0,0183515324103188
0,0313985799712105
0,0204981564791699
0,0227623077308235
0,0206605026178765
0,0204412426617198
0,0202346236589583
0,0227173202272684
0,020817131567437
0,0229883158384705
0,02137889966208
0,0222970416634663
0,0215882586622981
0,0209042522087243
0,0218897750697439
0,0214812059775961
0,0204128445927704
0,0231347304440993
0,0216760103120215
0,0212099092096164
0,0237304315890969
0,0246569323929912
0,0222684626239626
0,0245084112801329
0,0177746199774
0,0244732414729306
0,0209801667436628
0,0226994710078302
0,0298651149612455
0,0171070618314932
0,0245115476750942
0,0164356561105429
0,0245715504825002
0,0192221233583378
0,0257823286270537
0,0183899921962694
0,0267570055136286
0,0215160686394734
0,0239129364019867
0,0197406812739633
0,0183689385414468
0,0220157067302561
0,0227075021041342
0,0219192166419171
0,0212452425570242
0,0214646877061148
0,0210139684339236
0,0200600280739524
0,022508238928561
0,0211192671617758
0,0256119020153085
0,0219366961422458
0,0266663216098713
0,0182669018613694
0,0224430822029846
0,0185916875357327
0,025159104332794
0,0241150447263654
0,0262338715751407
0,0167481364815831
0,0201684007098374
0,0242369176950251
0,0204931652585075
0,0249755372764449
0,0194322168552599
0,0218001895343098
0,0204266968778732
0,0252205059409875
0,0191998954117207
0,0241696282659239
0,0214561505039599
0,0223593549844839
0,0201556319015391
0,0234878727832816
0,0182443826382433
0,0224838812062736
0,021116547591765
0,0235080389538265
0,0258680774958465
0,0264892047347845
0,032805475199244
0,0203653827978099
0,0266575974342901
0,0195113674366298
0,0232831494441128
0,0199527359667398
0,0231244165741349
0,0200600252595104
0,0223234456647505
0,0215176968452304
0,0202097700444196
0,0218500301138086
0,0229744478097075
0,0221674452328928
0,0222624586893672
0,0208141999460275
0,0235774005365902
0,0196766883329003
0,0196342156593714
0,0209833670879905
0,0203363616403192
0,0259016336281191
0,0209561302569342
0,0320348689904577
0,016687545245068
0,0373328778823972
0,0128448709608451
0,0390813860550318
0,0186343221220014
0,0281140918495933
0,0192846866428948
0,0215021520231873
0,0221254067955333
0,0228856688984409
0,0229905329930514
0,0233344847595848
0,0188934866406043
0,0270307301137663
0,0218486091360684
0,0218341308267083
0,0245436205059241
0,0297603159249823
0,0266762688787081
0,0334044539302928
0,0154950236147129
0,0307232008343828
0,0212561164272162
0,0316573344880546
0,0261864395991071
0,0215363231348302
0,0277558751912082
0,0203239075351845
0,0248840695454493
0,0223674326681598
0,0271022598137485
0,0226566360779324
0,0246266351092838
0,0200265430560538
0,0238751637315013
0,0245368145165813
0,0205506877853816
0,0275294725496212
0,0219247301590185
0,026760031169607
0,025928195248576
0,0207163080197188
0,0281784773145346
0,0227117304862184
0,02613834119493
0,0224558367553692
0,027593778933629
0,0250841681130871
0,0307704967029125
0,0302204006932944
0,0266863885908603
0,0284050757599245
0,0237592904189629
0,0239340459189436
0,0355689167137685
0,0199946294832025
0,0372404950298602
0,0166251617635188
0,0422416489545636
0,0296515756867464
0,0274599002518253
0,0286824592259256
0,0227161833716673
0,0300167368972017
0,0243026463888143
0,0372649227365707
0,0205016183407032
0,0415017080111858
0,0146398600332399
0,040481533798123
0,0181711198796591
0,0368179960499639
0,0230931050376924
0,032384365973356
0,0233001989287015
0,0354267451140022
0,0206423357864063
0,0345706444215221
0,0259280947898732
0,0392995851720937
0,0371420260539539
0,0268660826194752
0,0339916558064837
0,03693123579744
0,0221681946917101
0,0396571965720803
0,0224291087913427
0,0394872515852826
0,0202065914370977
0,0368310933270994
0,0340551819036477
0,0365319741897061
0,0341769680492033
0,0277798316657471
0,0298228662710154
0,0428530302555201
0,0278986961726297
0,0392277368499112
0,024560893863348
0,0399641044573521
0,0264328196681756
0,0537677413844479
0,00325123964127959
0,0575913650046702
0,0216932362049445
0,0549013753360603
0,0307012515593848
0,0418434456464131
0,0330599487343216
0,0429651687169169
0,0376358915733042
0,0423179469819796
0,0323797234230491
0,0465391435183646
0,0333497539500723
0,0414673736909933
0,0441264180978214
0,0330603631787027
0,0455773579043829
0,047091738587413
0,0528917403798829
0,0602278998999855
0,0423649759292217
0,045899459101861
0,0525539439734741
0,0412048656063191
0,0489700049664338
0,0382703835973862
0,0487698711845269
0,0450737285991149
0,0470519943699481
0,0528592007354508
0,0451724700677091
0,0548795979792489
0,0439753278335571
0,0529759194364817
0,0527062869807534
0,0752493873098797
0,0729154046217631
0,0581487568569767
0,069647041353742
0,0415739018314508
0,0650916944550225
0,0496840784012785
0,0559481810238395
0,0583870622614426
0,0564343200966334
0,0610619971972698
0,057142153035601
0,0724178442495027
0,0536593696507544
0,0785676837223089
0,0667157535668047
0,0696938294144268
0,0710833937155428
0,0677346769133203
0,118613987869078
-0,0176095626387743
0,102056754984892
0,0539589192488081
0,0976958591851008
0,0847484267681603
0,0966324581033764
0,0881075876370284
0,0870380795808759
0,0849547184577384
0,0966069404119902
0,0951754612871471
0,106920846065808
0,110207011973797
0,105819180137215
0,106428414449314
0,124145942039531
0,1202921328943
0,159590757870745
0,128870309048333
0,124987994328624
0,133582902411309
0,146120395182365
0,13982669889698
0,150079883290106
0,135080626555837
0,159059058958474
0,154161994527266
0,162048791722802
0,161512580767465
0,162191902168408
0,181391145432552
0,159861204285403
0,207494354497291
0,15426944641082
0,205896280700489
0,176184975701669
0,198801751624
0,189564260846082
0,201320856026573
0,21878239166441
0,206368518441605
0,21541153741933
0,211068339811739
0,214231407337991
0,217911582670514
0,223215935617184
0,225097454984676
0,224149512878413
0,239687937563903
0,224929731613479
0,334906479259211
0,18573898731966
0,241210365530159
0,223014891502248
0,235324110379296
0,241735299346292
0,235291578119751
0,269564026830798
0,235574218186887
0,241964628062969
0,237552597995055
0,234008198172533
0,235937823850539
0,23071137241058
0,246107185160596
0,229348855978233
0,250398316623565
0,221625835010365
0,265397216533266
0,237757010962667
0,259574305227019
0,235007680498254
0,230987800485647
0,229550628878164
0,230314771735771
0,23504175050487
0,241945686659001
0,244910362001192
0,228139443022309
0,242778916546318
0,217498671453954
0,245148311791868
0,234158292185053
0,233703182090263
0,226134066325602
0,220429628470783
0,225274803098087
0,213501132700213
0,230412755613754
0,23812471095192
0,213147562376852
0,226304990792295
0,200033356029828
0,211924978053336
0,210097259463352
0,213622256601858
0,210232369807538
0,214193526247635
0,201660071818013
0,21722993225742
0,206748596233349
0,214309236932393
0,195373122202486
0,206159543658923
0,204373441668922
0,207166538757802
0,20001900368316
0,205256481977583
0,19730698942096
0,202215633445632
0,204746792818796
0,205644953076103
0,206653482644144
0,20960797988983
0,198524694338491
0,207217279495464
0,201028158045886
0,211025785541553
0,199035986215609
0,203799671142496
0,201851260302638
0,203254053982449
0,1983499731826
0,203716859373582
0,19908134104282
0,196790974062181
0,195707322128681
0,198858654790363
0,198098227356879
0,191919651704896
0,197744062956007
0,19359209289604
0,216990432909594
0,197917030864754
0,19633608011355
0,187243414756624
0,181426289083614
0,190571182440974
0,180078188924203
0,204821684240112
0,189041243007135
0,193028207576433
0,176441644171907
0,175841030493007
0,182620173226544
0,180449834193892
0,175691987286405
0,181257497275411
0,162268481025751
0,190940618586598
0,154529489842681
0,23288682201295
0,210761849124347
0,183127146101591
0,161416617132769
0,165227255877823
0,182776684042895
0,148327021961624
0,17387538088398
0,147995456608167
0,171747488382188
0,149221535698052
0,166165145480996
0,161126475553419
0,151587338660619
0,165021364435861
0,161020668019794
0,167364287109881
0,168836413193865
0,174334198880905
0,153991206704443
0,174423601339636
0,145500287723301
0,191229848988969
0,143516751323683
0,151186521968741
0,140833235948267
0,14194217618094
0,168878513845019
0,119430260736098
0,151501541628323
0,127072119914941
0,136779021163064
0,139628621003989
0,140196220237126
0,144710194264453
0,131430513827867
0,168709905596711
0,10189282405982
0,150429845938362
0,126601216700571
0,152946785760099
0,146234226099143
0,143011660041388
0,117929792413925
0,136601824857926
0,13722674992776
0,133007720648543
0,141843459858231
0,115796097716892
0,121191692367458
0,136630438758509
0,113157440256307
0,133408163051424
0,111413144766048
0,132666458564277
0,142733907693812
0,146899257793029
0,155298909776715
0,129165028901953
0,114863982583792
0,114081509889173
0,10851334856161
0,122214155448955
0,101864137641042
0,130868278948179
0,105444124840367
0,117638720192822
0,13377242678752
0,108745732386871
0,125056832079316
0,118303469961831
0,116163579054815
0,12434351023986
0,120458128904865
0,146845100281899
0,137190178203843
0,134661242602767
0,140229379195169
0,126283728084097
0,141976049378746
0,125072842701271
0,142378572930756
0,133078850071875
0,147685753287564
0,14541661770323
0,148007559648198
0,151207887677888
0,152113855212177
0,160311838646809
0,189640361608698
0,150337318514995
0,192425974691767
0,167081196703242
0,209674062913639
0,177456261631752
0,189067741488355
0,186906748179045
0,190327062691639
0,199932208667621
0,191956645527685
0,204704298607962
0,226440320204525
0,194444748150658
0,222111864810977
0,207136262055617
0,222450918488606
0,212827516137356
0,235001809488862
0,21452390909817
0,253061049882042
0,243006621205397
0,231396989017979
0,246838489778455
0,227013632292354
0,241874374736596
0,234265809809974
0,23841937583689
0,238329366857771
0,234766752350376
0,262312038562608
0,241362851094493
0,251903198185885
0,244930965340868
0,249350271360566
0,250484657552194
0,247624613320008
0,253658621040918
0,255210761578813
0,257677590348666
0,261951063206381
0,256076369493893
0,295694565098264
0,279148242108328
0,273227689869584
0,266889960596649
0,274259676604588
0,280873143033987
0,271307056906666
0,289739815179879
0,292210260749263
0,285860231811409
0,289217320690586
0,28932657472059
0,291654489663946
0,287289542477926
0,310794289419141
0,285742366018295
0,310505345229345
0,291823164891824
0,306050585551205
0,344618731609474
0,305968413460526
0,325601644804847
0,299873331060265
0,321739892524599
0,303565827305107
0,316207056063977
0,314629393439037
0,322232248956379
0,309798210517311
0,319624301847863
0,313150772406245
0,317751194541779
0,314662004881992
0,310562513075503
0,32585277122686
0,317434823279549
0,320791865232509
0,311750274475435
0,314646910189883
0,310056343163516
0,321477907018652
0,32365584736119
0,313584415446469
0,32264741508881
0,305204862018602
0,322327585637424
0,320737653097492
0,316729602750062
0,310946941158293
0,311033012885854
0,310929633907426
0,31496286679914
0,307762547245616
0,336117236092703
0,314145506401454
0,324464799456389
0,313908700272941
0,324796122527195
0,315491523721376
0,328892246265862
0,314624219071511
0,331928492089777
0,317039933848333
0,333015467135061
0,32244853206592
0,32555863224116
0,329068024210666
0,333812497152425
0,337504925017436
0,333014177678626
0,322152341676531
0,327780354921177
0,318268531223376
0,326892034388239
0,314883461725632
0,321536451046592
0,306040363783241
0,312562982079002
0,297137279800937
0,326866712141143
0,299446561468604
0,304055027640191
0,301636272869651
0,288273487520866
0,296076116104162
0,285003541461031
0,28784266231537
0,283471674599479
0,284352869436518
0,277873680126434
0,277865993066588
0,279783518415143
0,275495247309965
0,274079904089898
0,274653810491682
0,275025291422582
0,270358818080162
0,271327924283348
0,27086458636166
0,270163780021502
0,266768783381432
0,27324302927128
0,263634091084074
0,272337755621178
0,274877617885186
0,274991762700675
0,272479890465798
0,26648561007772
0,280561844724596
0,266759375795289
0,270194340886472
0,261914317267239
0,271158704605272
0,26843383697374
0,269119667425043
0,262785916109248
0,267867742056363
0,263944141968715
0,264134311058553
0,264394480790331
0,267905978448579
0,262842843394959
0,266200835295585
0,263732285924195
0,26520547099479
0,265931076903018
0,264159833490864
0,264752138010869
0,260942859334436
0,269923525912321
0,263072942102307
0,268427823118841
0,264404118753735
0,265929857520458
0,265074819203815
0,264841979920962
0,263616466989311
0,259029369983034
0,265341030230027
0,26407331232233
0,259596810770189
0,260324317309173
0,260305952845929
0,260305445152065
0,258291772058609
0,255638219094163
0,253435032006306
0,254562608686189
0,248801310697093
0,249167521657673
0,24777670790523
0,247448683350323
0,237334791054304
0,239063561749295
0,239468537298452
0,236860658616347
0,230254045610094
0,232588358063269
0,227880010226613
0,230875020253963
0,229158431235967
0,228571864447394
0,224582612136147
0,224279406753526
0,223964493828377
0,225460003580487
0,222594944347143
0,222863559112894
0,221630750508353
0,224945046002377
0,223803483054475
0,224232734130041
0,222186528977015
0,226126932642456
0,223190789285468
0,227710645398979
0,222756253927576
0,229832355294795
0,228785529755201
0,229763088003734
0,228483757876973
0,23387898439762
0,232596539134191
0,232883628269407
0,235033897787953
0,236751575192343
0,234926710945197
0,234319658138147
0,237143581170109
0,238824394866201
0,241107145108722
0,240682116524583
0,240824163317539
0,241973908607996
0,239818066926234
0,240650888932267
0,241098987234827
0,237973115755433
0,238114834388925
0,238950747199131
0,238408682889342
0,237256769359741
0,237394071286091
0,234391978371285
0,234086037554086
0,235762470783701
0,231288829870037
0,229285776032673
0,230292080806086
0,23077732025683
0,229255387304845
0,229384871398639
0,228219268348499
0,227842705752562
0,227996485123578
0,225718123045849
0,227968252845548
0,226937066502068
0,222392640196399
0,225060256632662
0,222627092519665
0,224364660577561
0,222715480319081
0,221037926799031
0,220369407222144
0,220072419419975
0,219552030722949
0,219446446223446
0,219820804894107
0,216502644252656
0,217270771677641
0,217551336986839
0,215448814911667
0,213277735903821
0,213937858536845
0,2110737587762
0,208309730863205
0,211629736788677
0,20792703910433
0,206921622191527
0,203852428978552
0,203754632383199
0,202949380369974
0,200614018788301
0,196965742167513
0,197335684832346
0,197246000845482
0,197912625338699
0,195453574278059
0,194992343948083
0,193976079525712
0,193462373579214
0,193110976278393
0,19210084344925
0,193579697862063
0,193974216044869
0,192695783487541
0,192584035552891
0,188004420220589
0,188854073657465
0,185330510482211
0,188028124150275
0,185529929235565
0,181545084838754
0,180039748022003
0,176133722527435
0,174197875727161
0,175444228962807
0,173600218531176
0,172636272520035
0,173721889026754
0,173957646960552
0,174972102314888
0,179897571126
0,182459527303549
0,18929670741549
0,19150901596763
0,199020946238644
0,204262115844377
0,216041428896455
0,222748011209244
0,231760167863402
0,238801469595945
0,253655304464506
0,26106137864575
0,274447264721349
0,284432393575155
0,292339894337827
0,302131319780017
0,312815862925558
0,322166975864967
0,332372414865893
0,342243504651208
0,351517287107438
0,361312077146127
0,368261297987332
0,373667857985764
0,383659464251843
0,390268436005216
0,396171375668983
0,404042565838392
0,410108908587743
0,412578523677886
0,419998381101591
0,42440555808482
0,433811903122835
0,436837074436405
0,435211258551524
0,438090470542209
0,437676761980324
0,44174256292256
0,439936007096192
0,443988814076683
0,445786098606226
0,441377088491139
0,444576384401458
0,444811078556393
0,4471716137822
0,447115330768466
0,448318181225303
0,45307997248704
0,454038483746235
0,452542032697969
0,460919961051742
0,46216566224494
0,462115545888988
0,469553356606191
0,476683092215182
0,476379688776789
0,483600806061457
0,487268202945451
0,490568805721768
0,495539341796358
0,507471426477853
0,513132102427507
0,518290063544777
0,52162006247951
0,535358323346243
0,540776481317206
0,552841842279021
0,548718901003212
0,560185349697886
0,565065864492211
0,571596327226758
0,579053820562044
0,579705218589899
0,58314821631654
0,581692093987847
0,581976110651724
0,579598842792878
0,576861264741969
0,57629315633538
0,573529802173509
0,570619814182048
0,57374926647469
0,575985515148314
0,575650383731507
0,580638722055417
0,590973857974658
0,595112069411801
0,594439064732332
0,609518522337001
0,62048806245553
0,632314237771059
0,63700310702034
0,652988221420608
0,657829863000372
0,674297723010517
0,683518802414925
0,707312605286467
0,704920694161542
0,719444163005006
0,724906863230969
0,746676548303311
0,751873849120338
0,770517521799837
0,773211075088109
0,792974669127699
0,80182218293996
0,819917082827305
0,829833015626929
0,846677481366641
0,865917527450385
0,891937736759772
0,89477954234365
0,915063515913461
0,922100191960586
0,944087166410803
0,95049228105371
0,954397291621542
0,976883056079614
0,978164052763086
1,0121163579949
1,00189063517202
1,00873120253849
1,01365663587575
1,01248536790914
1,02825636996709
1,0102836078038
1,00958802459982
0,996142227376255
1,00546939868717
0,99858704761588
0,996048403381632
0,985985945421372
0,984540550592586
0,990886103801246
0,979306381744601
0,975183601794741
0,98621566664308
0,993309932938479
1,00330221995621
1,00300714490769
1,00509349928029
1,02549809311124
1,03194501360182
1,0233801278251
1,04506779702659
1,05459865480351
1,06030110208003
1,06176250213691
1,07302153152978
1,09277797283091
1,09533903289378
1,10012125688035
1,1048440065937
1,11674927665187
1,11645070815812
1,1113239017661
1,12962711764817
1,14530905251108
1,12535624091686
1,1169355616984
1,12316038102942
1,12399220704682
1,12112720920592
1,11853627085061
1,11824575780793
1,11623216162254
1,09166035070018
1,10301796785629
1,10527227049518
1,08153001567048
1,07863357261043
1,08551136091397
1,06209277049775
1,07544441080394
1,04709505723065
1,04286525767809
1,03566170035502
0,99326326427677
0,983477353243368
0,969142270757779
0,95659129546336
0,927079292082183
0,894179989317217
0,859259745107033
0,827279249835411
0,806456672016663
0,761554468162929
0,721050462300793
0,695610694663975
0,661969268534919
0,646078405225136
0,613686381575575
0,59747680604197
0,576506756356227
0,563249009648956
0,553447604925783
0,540075670020142
0,531982129240009
0,528974429246596
0,525468960130363
0,517746882114963
0,517436022943219
0,514098950229265
0,508226235106522
0,501774068108093
0,495189103143617
0,485585516942179
0,481786813008743
0,47162632713634
0,465700273773987
0,45192012205243
0,437050669217533
0,430471202818884
0,420601908126805
0,406481258403319
0,39084496631929
0,371409713014168
0,361544208462545
0,348611332631972
0,327092986561759
0,315372004668172
0,299404152163857
0,284355656722518
0,271129799760388
0,254708666509349
0,245962864625948
0,233330266354741
0,223135616182199
0,21122927105056
0,201637747839037
0,194705928013883
0,186519369494513
0,181006326860327
0,17558865988931
0,169630950407773
0,157431667141829
0,158159217645369
0,154393764857218
0,149690030179058
0,146939595130791
0,149133895747389
0,144834875697072
0,145049514001184
0,144976835477365
0,144704064725427
0,142900946060993
0,143418590381036
0,144353739355187
0,147003199355195
0,144591751497758
0,145985558288125
0,148356589595407
0,152844919584457
0,150479759371196
0,15111349585514
0,151047408387198
0,147501430352523
0,152517968671615
0,150462607169971
0,14338325622019
0,147546281854152
0,145457098438697
0,143136572416527
0,143195204021652
0,144172833080263
0,142813322642342
0,140257352831397
0,138455987898307
0,138919893973005
0,13908723795425
0,143064267757498
0,143612094620206
0,142811152949033
0,145097102657764
0,145621336156796
0,150267473071233
0,148122547745091
0,150720073103304
0,152775826755771
0,153944752941429
0,15495749367211
0,155502043344777
0,154048406958423
0,154143660805793
0,162964511368676
0,164484450036944
0,162987145626572
0,166278358394484
0,165054374955548
0,167456531205926
0,164609336792982
0,1645716220514
0,161275249031111
0,167393779502268
0,171484116619693
0,172951708364287
0,172872183614831
0,171869681947829
0,173110698132138
0,176632756381597
0,181933624656946
0,187047622651651
0,188999412027849
0,195287172065124
0,204806335814782
0,210240447461449
0,218157145824731
0,221962977869725
0,226752462263336
0,231833061614454
0,230787911812985
0,234854727751352
0,230363546139947
0,236258261725394
0,229311448696654
0,231938503141886
0,224153263758428
0,218786024009523
0,208246906365508
0,210172226407109
0,20666721727394
0,205327147878038
0,199350447033664
0,195528997772517
0,196583954077334
0,193546634035386
0,199246089358638
0,199690710323276
0,199470737825184
0,197091956685044
0,194521749496595
0,198047107096247
0,196094434634772
0,197027679542838
0,190624350149262
0,189129790666759
0,189060414125091
0,183885698837232
0,185367641060466
0,185428736984034
0,182967459694875
0,176072016360432
0,179566146832775
0,174206235803741
0,169143150842986
0,166671355431296
0,162589710683377
0,164854948406806
0,162499355223581
0,166702933206524
0,162500467066812
0,162987468012969
0,162467305779064
0,157803900202171
0,161555203620558
0,155816763642389
0,15874280471742
0,155813749719199
0,152163529615876
0,149645873232048
0,149121485416542
0,147612608107115
0,150898355077364
0,151331610197103
0,147321925564133
0,149686244508075
0,141180108042097
0,140057664718005
0,141762276949978
0,145121049806052
0,137551083095886
0,140780581964792
0,143481478042917
0,135307007777298
0,139152621054152
0,139684709844712
0,132789240309521
0,134988048358885
0,133932426481515
0,12754965678205
0,143639494417541
0,135339073654639
0,133428314213247
0,146848103765683
0,134809530407515
0,132379815389644
0,140727559477138
0,137234414641017
0,134364736330942
0,135107027770428
0,136134961430969
0,136782770025865
0,137737773298123
0,137007951204713
0,138509918395559
0,14374383753102
0,146172935908256
0,151977914091873
0,138624924397019
0,14904840949066
0,152469806870345
0,160717621110547
0,156229735150554
0,148249517189883
0,158875736220445
0,162792350188752
0,156690611187343
0,166957798124793
0,170818180275786
0,179491362165084
0,176250256822643
0,180367724026148
0,173366399309293
0,188783574333174
0,193347763021956
0,197534074771059
0,205153287292578
0,219736019658137
0,221183645272231
0,235155166779241
0,233220298992081
0,243499522158991
0,26033947861896
0,269421085026225
0,270128937713073
0,267392098206419
0,276079365750076
0,286716204909926
0,265264534599474
0,279357643059968
0,282017166193042
0,286732318705812
0,289865645724801
0,280322816709421
0,26895741676349
0,265057030652223
0,264882815447218
0,268117563928348
0,272661143223593
0,266362065627208
0,256644587535096
0,272915768902612
0,263607218421901
0,254467841950765
0,260753264873976
0,261321429311989
0,248244370593707
0,248793338434633
0,249602046553891
0,236583456710629
0,231656543349087
0,238525432514472
0,229154062889999
0,238446037223124
0,245315912062258
0,244464198817367
0,222140604920405
0,209934842886405
0,218748499575208
0,21701605144354
0,204108119623159
0,227949211547619
0,221273835633717
0,22510148413358
0,236610928746309
0,240659401763563
0,216286825990318
0,219420997876912
0,220883514598179
0,21074741250757
0,215344327850865
0,223493028900149
0,230014047169024
0,213953619209935
0,206228734315726
0,228442770644042
0,208757936974064
0,232502475332947
0,214767295418646
0,218829921119943
0,226722562579663
0,21711873932288
0,226359620311292
0,246500571270978
0,245172859483868
0,256633804458898
0,22800844561519
0,224580060923329
0,23126506307066
0,240033728614226
0,240732915187196
0,233338079278686
0,252085246433024
0,250213850016931
0,246856678591082
0,245969596399474
0,254078590415061
0,264200242363439
0,26715980827806
0,28198528801324
0,274462591555433
0,26812322801143
0,268514491544189
0,284678601283447
0,289188616247977
0,315607433611521
0,314864679898192
0,316642235347187
0,332662076727591
0,35441070401292
0,337469881199627
0,304460334855239
0,312370415458899
0,370188070156731
0,323582224469985
0,358085943129536
0,354904232164124
0,337353738462888
0,312117847200799
0,316705573244627
0,335356197418201
0,325777848827983
0,316381838055003
0,313354002687824
0,306788898895529
0,29923221003295
0,310956756320367
0,30814939747314
0,284557737881273
0,302809366854493
0,331774078720593
0,325344040951081
0,258567246728813
0,298337104493668
0,314906109619482
0,305094928502386
0,248243607790502
0,266879356198108
0,332858448368397
0,319881341380204
0,306252152935175
0,309028322923412
0,301349560791009
0,273807577219038
0,314000195972934
0,341902100239312
0,293939499817061
0,287971994751424
0,243045793139524
0,302024964648675
0,383250823689152
0,367340365226149
0,35767461781251
0,529910169484641
0,309216578136029
0,390599008993213
0,352695976915042
0,373532984112339
0,347907700625805
0,286666816484784
0,356531313763671
0,436307349073942
0,280693799590534
0,398046245959215
0,271153307804425
0,25575093844006
0,369366434832335
0,414790543651027
0,347962942526551
0,405757333483362
0,556109308239591
0,456904100765341
0,554583352342284
