3596
4000,36533379555
650,420452594757
1
2
2
0,0136968598627893
0,0203931065807014
0,0154088918169535
0,0118704166617367
0,0135425074041259
0,010128216660975
0,018961111423333
0,0143839311564305
0,0127506257924681
0,010354660786864
0,00777216744819513
0,0125485065759968
0,0111848142806529
0,0131119139754791
0,00921826507202787
0,00923331131692547
0,0152328292672184
0,014397399861754
0,0169039247529955
0,00932911357180444
0,0104562740984222
0,0134636836562074
0,0122810280830595
0,00797397053311427
0,0158519090749248
0,00734652729123685
0,00768985770027053
0,0104778594451035
0,0180045958241198
0,022720444073911
0,00522531922461604
0,00647193438778342
0,016569327906085
0,0125207686656957
0,0129640701664371
0,0165966877655745
0,0151211525071869
0,0140819984179161
0,0059317496811566
0,0078093136719826
0,0131759081655522
0,00762527076961481
0,0109791976864884
0,0161444420665102
0,0104562061925664
0,0154055601235629
0,0189835515233148
0,0144640949583583
0,00927032639237232
0,00807040963730443
0,0132628611702748
0,0197795990597981
0,0200062055051043
0,0122595496082511
0,0156465292058636
0,00590581901330692
0,0109710616461226
0,00969338245856379
0,00648977034882847
0,0122902916510576
0,0210523655567357
0,0137692945733223
0,0141555265584809
0,0120455017198594
0,0120556316288661
0,0158640303353255
0,00952726626875921
0,00920238420955817
0,0141361446323811
0,0111177450029599
0,0162126234540358
0,00720037366119689
0,0109528920308524
0,00585042169596787
0,00622175951537189
0,00610228269551952
0,00899202895687795
0,0116635238788098
0,00556667365964338
0,00639677350047293
0,0207511029366228
0,0137024847669338
0,00893993939370469
0,0108995887107076
0,00686786515055477
0,00315359247626393
0,0120505378805863
0,00256552634165617
0,0166352980196805
0,0150666097454369
0,0141871013955914
0,00828660307057191
0,00447072247898946
0,00724640148273346
0,0114635908942257
0,00499285012091027
0,0146638810814465
0,00463578739746669
0,0100479638200437
0,000639391050677902
0,0112358055289927
0,00489264935755876
0,00200740136243325
0,00427254286217936
0,00904793390888402
0,00913341769436222
-0,00122238028574738
-0,00850748927362686
0,00897240113288747
0,00868414241002967
0,0101946940131521
0,00704757006054521
0,0232159094727421
0,0137854929103695
0,00575485652232202
0,00754888625918972
0,0231571889919803
0,011064105094253
0,0046772023588698
0,000396156243627355
0,0117694450748064
-0,00230910335805457
0,00805509949155952
0,00394759832367129
0,00442235039159155
0,0057526807814074
0,0176110353420188
0,00362297039930746
0,00551447771423645
0,00254043796399373
0,0119280283961414
0,00489234648581492
0,0119320983453697
0,00133409769448406
0,0109881843366193
0,00600129864623105
0,00708106525471747
0,0124387864685125
0,00774235116088994
0,000786944811023961
0,00742937955472812
0,0189525676003327
0,0175514082771379
0,00286719980854886
0,00635230775882342
0,0127227242960488
0,0109683082979656
-0,00521372680909416
0,0118858658430984
0,00454837466832394
0,00469898749791398
0,00927149153675365
0,00941502573914598
0,00921080843522453
0,00727131680007836
-0,0326458581990806
0,00415473913122311
0,0199888204084076
0,00246869429933319
0,0129087638770754
0,00195142798855451
0,0153260850926412
0,007980167124086
0,00814276640099884
0,0106861918533713
0,00260760002853134
0,00694694459423371
0,00819689926786681
0,00517980479257837
0,00536020561694832
0,00445301101055095
0,00977141171099933
0,0168577371784566
0,0143694010076579
0,0111354134636962
0,00341981088575302
0,008004323463315
0,00433471722435154
0,00883556461230232
0,00259343998933358
0,0142851266362923
0,0130519874520011
0,0169302257292158
0,00808088692934914
0,00411576414412457
0,00050675450559628
0,0121875904091128
0,00793643096324343
0,00524060318082295
0,00171394385786449
-0,00319590420200471
0,00502795132737531
0,0142064998184756
0,00308805056518891
0,00200271223299575
0,00616613733388871
-0,00466867306933315
0,0113452025631737
0,00703844484815115
0,0132592424481162
0,00766456273416102
0,0102019498355588
0,014603909373942
0,00959287246541021
0,0064743226260435
0,00470548969872049
0,00655299880332715
0,00527576961593371
0,000731919190554541
0,00481806197674449
0,0058188814138199
0,00606205372674978
0,00479519670241003
0,0059449189512452
0,014222522723327
0,0128942208766217
0,00977194160702635
0,00465521961525277
0,00366799789043475
-0,000326087063658205
0,0105063720877495
0,0070310949889922
0,00844175503411609
0,00612148523654951
0,0130571313807435
0,00566315495943923
0,0195323577005154
0,00989011510619233
0,00909701221257614
0,0126531590044518
0,00753308480238669
0,0127539241962688
0,0169284977512295
0,00974494035094096
0,00609084121100018
0,00488027213267984
0,0139804795481343
0,00911673004140844
0,0112224442298922
0,00866734954770556
0,00736121253337899
0,0126410876088634
0,00816310590111348
0,016926604189488
0,0146511020274061
0,010018545904201
0,00758682935655541
0,00343456425556025
-0,00218918751621729
0,0143890770433355
0,0162305827116855
0,00520394408951478
0,00717256780281272
0,00916255646892159
0,00707462513218807
0,00895262106915053
0,0115053920518823
0,00239690849659029
0,00838889888719973
0,0186352792330414
0,00444762881146344
0,00467373310291475
0,00498865444412199
0,0055903817191552
0,00848529912139098
-0,00465473738558186
0,00617633141013997
0,0165203263808906
0,0194564592712445
0,0131798869027258
0,0042172421579109
0,0121045581001696
0,00998806030516276
0,0391613344358276
0,00642269487209883
0,00624579966414186
0,00673148838362649
0,00883227990369309
0,0182562352771523
0,00697639635124421
0,0181590016217531
0,00730378286609718
0,00927586358865915
0,0173476910468394
-0,00171147140508721
0,0180773691563419
-0,000817711764832507
0,0156625431572628
0,0118551880191888
0,013323774965642
0,010507173964502
0,00962795642204359
0,00728208410817332
0,0128527796260117
0,010917715281446
0,00721484596189185
0,0113367575706375
0,00582715392197706
0,0116752952292745
0,00900481065997391
0,0155901016043638
0,0180379292006604
0,0108450109538116
0,0195929488786379
0,0176394261367943
0,0110534068405046
0,00799967348958616
0,014579242554218
0,0114537929425714
0,0128848390431736
0,0212894945006479
0,000396978856427886
0,0200166896506307
0,0174700848025448
0,0153235545175639
0,0171126433064106
0,0195458433818037
0,0154572132131012
0,00554405977123077
0,00751759194175788
0,0153643368257848
0,0165020082317034
0,0237656983852329
0,0159683629985173
0,0142715152769782
0,00910383709356445
0,0152301340081114
0,0189158848553909
0,0156512288721018
0,0178699490874519
0,0149420401527707
0,00981391500611419
0,0153403845044016
-0,000150531281160524
0,0146372798246808
0,0147958879711451
0,021537770239511
0,019135696826643
0,0196498535061647
0,0178614368352229
0,0240929077811014
0,0202201489755494
0,0244646650895377
0,020983547921478
0,0235012646287182
0,0229699778526417
0,026032047193412
0,0425195557410588
0,00679014577615746
0,0232304684778478
0,0248558802133057
0,0386223045353216
0,0294326958267905
0,0357173325823443
0,0403511933633345
0,0228053840851681
0,0288531654279965
0,0317938432560363
0,0325322994468391
0,0320937720792247
0,0291235647572065
0,029551722783169
0,035647966498899
0,0372940167909242
0,0361665730727492
0,032185895724974
0,042136805999378
0,0442520413463872
0,0317630662680066
0,0444097718814239
0,0391723842186659
0,0409027514364117
0,0469897262142666
0,0395796560525334
0,0429067522173969
0,0650432291671756
0,037626567894038
0,05153267345692
0,0545316589549723
0,0570753083965049
0,0583022321457111
0,0637083886612919
0,0541201053806728
0,0527257407136543
0,061248556440745
0,0639303072458846
0,0623356098374386
0,0710704364768508
0,0570819415000521
0,0673639183176404
0,0606403508099964
0,0787551085919169
0,0659077501427987
0,075884835579486
0,0653463958992978
0,078438444647326
0,075476250923919
0,0948607091616817
0,0675100975966176
0,0818908929442497
0,0790868863525623
0,079545922898006
0,0846288815934258
0,0855054364903841
0,0938860007113401
0,0936331287472162
0,0932033990987814
0,110959502835432
0,0878430725255317
0,0943216694970537
0,099501466268643
0,105959395716085
0,107067101082059
0,102568412351188
0,0951933471675561
0,116890827732946
0,104696646749403
0,120826340781865
0,121083453763516
0,116798524961026
0,113312884250855
0,116378618234634
0,124132885308225
0,138604951199697
0,127080196016295
0,12927439070075
0,134554346189969
0,138831343405147
0,125000429370347
0,133380055354029
0,141714134946339
0,133615215826349
0,145795322104704
0,159011747740127
0,150249281487456
0,15938487243008
0,149997419218822
0,150880645916767
0,147050964688767
0,173919620846355
0,164095707373525
0,170161860621564
0,178124150795289
0,150686366049136
0,173660118079857
0,174480161712929
0,177161166372972
0,183111437907887
0,174221855526148
0,191371371280156
0,192859647759696
0,19319550414597
0,188240654798912
0,203548927795354
0,204188686283286
0,202376346575009
0,206037599123328
0,219187207820624
0,203228923015969
0,22053291164585
0,2104085056283
0,224987253431209
0,234877152837354
0,230393408859023
0,267201714208632
0,218947733132858
0,229712936851902
0,223484904884647
0,255623317164686
0,252957862546372
0,252112660878511
0,245526968945201
0,236585096348454
0,259931916836484
0,25383628241002
0,264200427906019
0,259498002341797
0,276674085549062
0,27680283506857
0,296401687817425
0,275713431653835
0,280275174525129
0,280467493202106
0,288734531804863
0,279002628307928
0,298674190208098
0,288341057151466
0,316704162707328
0,284606796946307
0,312245216354184
0,305118070683968
0,33737447190972
0,323388544077869
0,317477186047363
0,312387340474395
0,336884495100716
0,318914289628475
0,351733133829701
0,332832266322612
0,339480238169754
0,34937083141365
0,354922746749633
0,335223282368821
0,367137012715018
0,372851077590836
0,371014720670799
0,368215534846796
0,382514567757273
0,351087516009116
0,385314443517095
0,378761860791156
0,390281135508328
0,39326863068145
0,390577421736809
0,400358772056877
0,40499444288638
0,410472305579074
0,413856392410381
0,39739758044504
0,416174012854409
0,428173709513533
0,416173076780551
0,419921772477325
0,462956242994026
0,439836145635957
0,451431144290562
0,428764383600347
0,426564065908702
0,446068131826597
0,447808404297362
0,456332531063623
0,474370196095986
0,447705817770564
0,485521027426335
0,454019037656908
0,504453404676194
0,458802098846353
0,473271566133334
0,46789743239249
0,514543179209486
0,49042176907424
0,500267363078735
0,502506244205612
0,526752590294078
0,504788031900446
0,526264446857834
0,500208780262399
0,52693171976395
0,527468856730174
0,53658490557515
0,511495964565244
0,536624844050463
0,53157890140433
0,544826113971213
0,547206698731651
0,573098765407902
0,526949000799877
0,549093387935512
0,554487085084302
0,580231866128198
0,553785183636439
0,595203580072516
0,568110691004857
0,562528735404183
0,552405530696425
0,615443677577507
0,573718855587713
0,615513865373619
0,598946952797345
0,608403956724343
0,589269935271
0,607082595756435
0,625741165350818
0,634586723606766
0,604423332513628
0,672636455641975
0,621485865069117
0,665778964942453
0,60288962114728
0,656632332669133
0,647137430888457
0,688917627703616
0,671949782722407
0,656175747126872
0,619273896254057
0,681663845709599
0,664569501650563
0,719245482959501
0,674393584373191
0,690213370336332
0,678249766856909
0,698118434880193
0,683772324965869
0,703464584002078
0,672676508643288
0,745245869200441
0,715099244433365
0,703484365033442
0,682060624724904
0,741788457485323
0,683503319387371
0,730962695377652
0,720177333824772
0,791725430784824
0,716764443206801
0,763224524700623
0,706966722566472
0,758757266193933
0,740450272072117
0,800097890345204
0,732948093045967
0,779574200248595
0,76381310565355
0,780516094821238
0,718764180183355
0,772920875498206
0,771873626619941
0,817596527898684
0,764401540512446
0,778336781395492
0,746912627574177
0,80065057208161
0,775544261686512
0,837333924889542
0,798120517820896
0,825428305856979
0,79720270714748
0,885935342557257
0,800886421377563
0,818084718693916
0,836091031562592
0,89378598618879
0,815420933686974
0,81830157171306
0,795377954419801
0,881257257714888
0,873802177530851
0,901930444148889
0,849602668328129
0,850143098258151
0,789078668388335
0,893154999311664
0,841819004016109
0,888865325417422
0,850418705249383
0,891127816944745
0,824822585111764
0,891789105091903
0,848083218147606
0,885077235657433
0,855030791286123
0,855783766574955
0,848744774740269
0,885792124910755
0,887680621659844
0,89939404101968
0,868150083470874
0,881167919254743
0,865818827183601
0,91515241237204
0,869659584505532
0,897246000162099
0,858139209378839
0,933912846814588
0,894843427760139
0,954938592984747
0,880698785576583
0,981003633939885
0,896753515413603
0,940483701847842
0,90982554802345
0,915430944210816
0,9030074862115
0,941278420876108
0,896275348977299
0,916697989482472
0,862974580134604
0,898059354169675
0,916317798843283
0,992015434983795
0,915729193473016
0,993376859335971
0,9202471833243
0,971746752600255
0,920561639631166
0,979242161385134
0,948359516211371
0,970490219041969
0,905459368074331
0,972278094216168
0,938031758669103
0,968156078351942
0,909688273540536
0,969837706891163
0,915284380541537
0,908948311296065
0,916907301537201
1,02499533969193
0,93846611316372
0,965395615407715
0,892281041632128
0,955283099553509
0,883274682036385
1,04572148646443
0,978425621526808
1,04804499849502
0,917598624868738
1,01660284645686
0,952208814730708
0,981662651197719
0,969587854669755
1,02615340380001
0,933132713393028
1,03634561169445
0,944779430329879
1,00453145034064
0,954121299733414
1,01874125749814
0,980275343666985
1,02522895764349
1,01485837034077
0,986558209306076
0,968932342485591
0,974737865894675
0,935034311623597
1,00974439911078
0,966919767564282
0,991307536088655
0,946546103763949
1,00957575826935
0,962340895738225
1,00097349199294
0,985521604993948
0,96914735919896
0,968980027191305
1,01712222047065
0,978488531111093
0,996948011412141
0,959990733374822
0,962252655317661
0,919919964131909
1,02424369514741
0,947639805229636
1,00933189065291
0,977553950205267
1,02771432834679
0,990940594728679
1,00509149765618
0,953025811395396
1,01869600310457
0,977067645655465
0,991935803516861
0,958595572009876
1,026130055241
0,984204219892715
0,992181732158668
0,977079418420673
0,999446072652691
0,979490300111108
0,993957312233781
0,982776611918071
1,0637702497703
0,991951141904583
1,02438771315215
0,954981001906427
1,02280118676122
0,966473512339201
0,985167972953754
0,962060684202569
0,971397027597436
0,973817881071461
1,02088049749613
0,969482253104045
1,00495905053747
0,943012565729382
0,955357462993264
0,978353409733548
1,00871751506231
0,971457710569271
0,994386158692334
0,962759575630265
0,986277456101963
0,940722262670234
1,02100191713215
0,951701474096121
0,988740378439915
0,950432621804838
0,950674370696363
0,969501077717727
0,971995815059858
0,935195054039455
0,965301292762923
0,926580424067319
0,970944563890393
0,943449571448127
0,940354116751594
0,938499215290745
0,994806471784652
0,904372631579878
0,987101143649164
0,92758101647732
0,997632499939946
0,929803256954687
0,945730368442777
0,963314405888248
0,976934867551252
0,897955295012369
0,920856558043714
0,914732784884055
0,925379953141453
0,911701854126889
0,932193983640765
0,910518859045961
0,918701275934918
0,889313934125024
0,907400517578594
0,87567596054589
0,944196505872631
0,882370090879997
0,867445605632892
0,882446127862781
0,899869102088575
0,877761362893987
0,910713891116243
0,918087323663598
0,904162831724514
0,877624376061252
0,898986215551552
0,869668887866226
0,850071782184602
0,853984244701514
0,875541507255723
0,846277614718108
0,864142615664184
0,842960528936493
0,861348409126243
0,87251110741298
0,863953260739151
0,85300349883267
0,871038836649813
0,84289467519982
0,859645416032092
0,81780979673946
0,846610065963463
0,828807611447977
0,839202775886428
0,826175209693023
0,848412601264024
0,831081098231115
0,835601412577885
0,813686892868581
0,818688671978214
0,80173511143501
0,819260133840216
0,809298505087736
0,819924143620521
0,811055268683
0,794184825401287
0,781708681018666
0,80714360494213
0,779447294381076
0,813058683406074
0,800261474970341
0,804345129441939
0,788857659648324
0,790656378808082
0,766081954654079
0,778304165799638
0,769951483047412
0,784338474441384
0,752161402444584
0,764474767949456
0,765342039248489
0,777765604554933
0,74216104243002
0,742598511939921
0,730404917139686
0,727693234893971
0,728522338940845
0,75901805669864
0,742791593057705
0,724816254699787
0,718048518187722
0,746833954857541
0,723551073135386
0,732180861560604
0,709851102738655
0,713012992594392
0,707672082922917
0,724357144477367
0,703620265734474
0,703442473439369
0,687195389894929
0,703020665965445
0,700486142875406
0,690091744449161
0,660935918251639
0,665810341211213
0,681709858482865
0,691949555466625
0,679025176172225
0,656034442510577
0,666807063413243
0,684947681851347
0,672693242038536
0,656033425484014
0,640926345735989
0,664283942088591
0,648795252213657
0,664509891715259
0,637709066952166
0,636939837669946
0,647711249125634
0,625944591336629
0,642271583063974
0,646103858389317
0,609890927910515
0,621695686665637
0,610691442703697
0,618870273088818
0,608041386706469
0,606333345175912
0,607658419532247
0,613823063268224
0,608810320655111
0,585541646110217
0,591463060707589
0,611169094196808
0,588192600272532
0,584150061137092
0,597267128797024
0,589673827289085
0,569180806810877
0,573263950612334
0,577817229460491
0,569666425244365
0,560317974706066
0,570951999222981
0,544707912155888
0,549356212762774
0,553055279890101
0,548186597056392
0,5488647720022
0,54307084109078
0,538756609886017
0,545510340638488
0,536297184125634
0,551748115484777
0,534909942030161
0,527615125109142
0,529340696174346
0,533193147589418
0,529593177947769
0,538351648585577
0,524459546565363
0,520730713731383
0,514164137068779
0,521435604403703
0,521451603303271
0,515963766902521
0,495920157752143
0,50685505280889
0,508554345405486
0,506835105931171
0,503650400506804
0,494163314470068
0,48757061945465
0,489970812908457
0,474502593612336
0,482431285718715
0,482670730648272
0,487916382269765
0,481699559781957
0,468836680910729
0,471884141986215
0,483325750608147
0,472239756314854
0,469963929997057
0,467838716012336
0,467770745978792
0,461311784772754
0,467923192940713
0,465854356369834
0,46029243594201
0,456180386445532
0,453820656846206
0,442231393655962
0,447700768239559
0,446341719834064
0,449586653569744
0,439282195383481
0,441831420412983
0,443428200911916
0,440067508140726
0,431641094209341
0,433258151695904
0,434012836556182
0,431182404547995
0,430864902461179
0,431300483868556
0,426047298164801
0,422724529434342
0,417273540172274
0,422838444911441
0,417403145916787
0,40553836637703
0,407428827212473
0,411458431664761
0,402288892853246
0,400647557481255
0,404127977580359
0,407922241372711
0,400642484261365
0,4018593095931
0,396137788085449
0,396033509365894
0,395549884085699
0,396954621729458
0,38731925680861
0,383596297997582
0,381995338134862
0,378695025489644
0,374183401874278
0,375634003201272
0,379903806283451
0,37763866927272
0,376059539621124
0,370091018348954
0,368232622157028
0,37011425473665
0,361015576919516
0,364569250822532
0,364589382741097
0,359071625628643
0,361296903030443
0,362207670980871
0,352477994313813
0,354941203257004
0,359055612893013
0,356706578433961
0,345536191872193
0,35199104827734
0,347196457491158
0,342081654253655
0,342532126137887
0,341091116502526
0,335435123494098
0,341132934479752
0,340447342654767
0,333460692770435
0,330064649325264
0,331662842016616
0,326641338409178
0,330199883153218
0,327195658634568
0,321234202267453
0,325327732741692
0,323276945178737
0,314183091433137
0,316757081040071
0,318409468929129
0,316875846806504
0,316868924960913
0,311189996543783
0,311039321103195
0,312841500876459
0,311314226593811
0,308781259422517
0,309088960482076
0,317308401478152
0,310187353054075
0,301247364428821
0,302777042106927
0,309027967210621
0,303910679576756
0,305120569705303
0,298616737794688
0,298098274489061
0,303196244822943
0,305766428250292
0,296573256874753
0,294126435380784
0,298820622443071
0,304456503995227
0,302798096162212
0,301355831566317
0,310672534189422
0,30449834939709
0,298240973573999
0,305951893867534
0,308434918548559
0,307058958817952
0,30761853846746
0,309195754827481
0,315240028056819
0,317214105691264
0,318732149053344
0,318981253017582
0,318053968873391
0,32254046931476
0,323245148224571
0,319579013962427
0,323048719950152
0,327734741164159
0,329080737250411
0,331698369087368
0,331433160179078
0,336351984542974
0,332731087620201
0,33854829896386
0,342967882593348
0,343566851266947
0,341764325011914
0,342996500849938
0,350987785507011
0,349851892235123
0,353071617725645
0,352925286661228
0,353998709104083
0,356173420605342
0,354559800622459
0,357055864513062
0,362517876598932
0,362232224423385
0,367572163010592
0,37440266237573
0,370598760064066
0,36222432967714
0,364042510249626
0,373368806921457
0,374694820485118
0,380646039455514
0,378309083033862
0,387058196695469
0,397640434360251
0,391689147191823
0,399154250152212
0,406357948302162
0,406248255829984
0,405644521053195
0,405881769074363
0,409266415675427
0,40601372977618
0,410195513919594
0,417588288513218
0,420043754153192
0,425120765644093
0,427940943249208
0,432933808433623
0,43415435173215
0,432292799987126
0,425775649760575
0,430211829444402
0,433587391797144
0,432018381355243
0,431209467070284
0,435918414956599
0,431620933431865
0,424100842698907
0,423285967547233
0,433860927764147
0,427981076138437
0,424100991668044
0,426588392041654
0,424787740164321
0,433430399251259
0,429810368936064
0,417416335725811
0,420183750931733
0,421590063721113
0,423350326972064
0,419361595686244
0,42239772943005
0,423385087466706
0,424697904266609
0,42031700425043
0,420102410799317
0,421687690816689
0,425210941535485
0,42268167384805
0,416350847746955
0,411700484686608
0,423753663643132
0,423651918461438
0,418235441611407
0,425471290330458
0,42011034849297
0,418606812037299
0,426519310500593
0,424598239954224
0,418777535855899
0,414210066518594
0,42007420551731
0,42022394327372
0,421085705393068
0,426423113069194
0,421647047245111
0,419951011385571
0,41907065349966
0,416488344489419
0,419696903867556
0,41469684166831
0,415582394248402
0,410663149993949
0,413344190222425
0,420010939217968
0,414008362202146
0,407294309319592
0,410405302937353
0,409113751937111
0,410327918838154
0,407981610780474
0,402900308573993
0,402428524061099
0,392783861468795
0,388339202926894
0,395374456065756
0,391779163747401
0,389349813874993
0,385009687640935
0,384875219909283
0,382173196733403
0,378350031724246
0,381429842272767
0,378643224977155
0,370832199763561
0,369843328303741
0,36733965230605
0,36845350901123
0,359858850834343
0,363752838785689
0,358458048562365
0,35385093831734
0,355409907129066
0,350560725875178
0,341914043472044
0,345463601651683
0,33900645990193
0,339297315517725
0,333484286246071
0,331424361684659
0,32786908336265
0,325112980230497
0,316198763475196
0,319495143906352
0,320480491825443
0,318797189893558
0,310017391373191
0,308681718323823
0,309920041319304
0,308241050959414
0,307439006096064
0,309420623690879
0,295597620659177
0,295306715229354
0,297116784279049
0,296483726178861
0,295389696745709
0,293211884763345
0,28972832092271
0,288669844860586
0,286245073653125
0,28875898525248
0,283038327198522
0,282007234004836
0,278093962814488
0,273338393357724
0,282837410332272
0,27979009602132
0,273376179952084
0,268372477684843
0,272042575012567
0,267001027808795
0,265823356940727
0,270533729743324
0,263586922618176
0,267395971698955
0,268493433896216
0,262678862311379
0,263015238339201
0,260665042261969
0,257935616751822
0,25667824482622
0,258406725558942
0,261637438420676
0,260259572120174
0,257802120904853
0,254012989541535
0,253838719531649
0,252997524188054
0,247600241282028
0,249061554540514
0,248712282729337
0,23766584968305
0,247508476088947
0,247803273504108
0,242995675452134
0,243576874885445
0,244860513712803
0,242795801785409
0,240232886096509
0,242765649214175
0,241543071867072
0,23981712464208
0,236943219518885
0,234541219286035
0,23682974886758
0,230438506466695
0,232041388072153
0,230544679363594
0,229087793155744
0,23336729180668
0,235129348021943
0,231580735277512
0,228379937620853
0,230866744410735
0,228204533916185
0,223375606330943
0,226175481356094
0,224885107820866
0,224105168096025
0,219923352684943
0,221029865372792
0,224356862473301
0,219018660861004
0,21690789940515
0,218991429329469
0,220466027937716
0,216878081070537
0,214190784609096
0,217958650786193
0,215658510547834
0,21692135910418
0,216923231325656
0,219441494107866
0,212198304138746
0,213664575633698
0,218504504567855
0,215014576733835
0,211207950404346
0,211323355950972
0,213665161033625
0,21065813097791
0,209479025950111
0,210715984661986
0,208716320686205
0,207245361076254
0,203451070687478
0,209605512827569
0,206588865952598
0,209323302274616
0,208672163378594
0,201754341117534
0,205950245446119
0,204291940449395
0,202032740737542
0,203265788249641
0,202863401754068
0,203850821565122
0,205127945013744
0,205661570084712
0,201415833017722
0,207164123528189
0,202858028696199
0,20322175583908
0,202518063804534
0,201741799399834
0,201889260043377
0,200732893527942
0,204654701421568
0,200970671688641
0,199775331760695
0,196271204577855
0,19916678223146
0,197990782273305
0,196919431205408
0,201199540169346
0,197409876272532
0,195931580212651
0,192926034390953
0,196273768067072
0,192124370179506
0,193086550148278
0,190140471005177
0,191762219665973
0,194181113214761
0,189967860682706
0,189788593537935
0,189760045582349
0,18912325139664
0,193369677992964
0,191129775494514
0,189155908779562
0,18752896643377
0,188152311727192
0,184827920728121
0,188858070552534
0,185908309419149
0,185209215431999
0,181168020842151
0,18313872664575
0,178328746940826
0,181680509711014
0,17990845420721
0,182857951827166
0,183655837294213
0,17931804334473
0,182888534036024
0,185201870370979
0,181618923930743
0,181528218174171
0,18063354164976
0,177923117218908
0,177171943269726
0,182601858650887
0,17650815064955
0,172854430914448
0,172695442229443
0,173102010976469
0,173487840885052
0,171475886168417
0,171798308827695
0,172013775090513
0,174264095200219
0,169897886283222
0,168840880717486
0,169923761285107
0,168742914702721
0,167076412614766
0,163790263470832
0,16502455220865
0,16324988042902
0,169667494760413
0,167116351533356
0,162642785464601
0,164234278662695
0,162466396238483
0,165343729660013
0,160135848786712
0,161513576746845
0,161638486273799
0,157869427743374
0,160179441070933
0,161601685119793
0,158388421246744
0,156130833660333
0,157336138011315
0,153648217629276
0,151514914318251
0,152913620052851
0,150105292407329
0,152397247143825
0,149433280113852
0,149726702156575
0,149296293062824
0,145320473277911
0,146693196548055
0,147631879435537
0,147402200396752
0,147396327821985
0,14478348689122
0,147273338563047
0,146775970637261
0,139853937772158
0,142574184669397
0,148117330390215
0,140331763702861
0,139975472268115
0,140126006696019
0,139404993766945
0,140996732716715
0,136093262446547
0,140445390928587
0,136006366892742
0,134962406453857
0,133598888880112
0,134065995551823
0,135566190892247
0,136770384128113
0,131796838150011
0,134264661946375
0,129894264650626
0,13289530263189
0,131913204897593
0,12661673595386
0,125746795770584
0,128437086838665
0,126832419608536
0,129015592494206
0,126635033570294
0,12715560030487
0,127339789211049
0,122461466767274
0,124930777880428
0,126247107949079
0,122964948960577
0,125887729420682
0,119077645157718
0,119849059966445
0,123348592588998
0,122919043016271
0,124329582381237
0,119569058722337
0,11685251528332
0,119356282549701
0,120511737310959
0,117575745425408
0,119454534956237
0,11664109926047
0,116654003214551
0,116689793758453
0,116006454540637
0,115999508182678
0,111728615834588
0,115590164047107
0,112627768261388
0,1137057278375
0,115291799071505
0,113141015301652
0,111964952941094
0,112630713720783
0,113166731451806
0,112072680779796
0,113270815462999
0,110884814936157
0,109587930719457
0,108206328758029
0,111416861638586
0,114045124620017
0,113118843097113
0,107037185346936
0,108275542730362
0,105127639605546
0,108576366288627
0,107748322014939
0,108317375964049
0,105538602318657
0,111067644665245
0,109833355786323
0,107190842363254
0,103911328744687
0,108225951661171
0,105685127360252
0,103185247818108
0,105929327348655
0,106410772667923
0,106835359536766
0,10433550826367
0,103877137377162
0,104684489654761
0,102914376391381
0,102694983789554
0,103560373125954
0,101710910229168
0,10245175587174
0,102279673938484
0,0977606548307407
0,0987169299240608
0,100539022501132
0,100396968858068
0,0986824334326731
0,0997499794989716
0,0987563889875215
0,101591145055303
0,0990431633709672
0,0984224421527889
0,0981967382112812
0,0986854387985829
0,0996018368365966
0,0985656702742531
0,0977948861989775
0,097444064471255
0,0959893719349166
0,0954535395149617
0,0950235588761855
0,0938544583139905
0,0966703431622562
0,0949587495541931
0,0939142784092005
0,0959492247128963
0,0925909878160328
0,0936899031912652
0,0931889179258046
0,0942640258899754
0,0932483096587617
0,0934617220662126
0,0926066375980708
0,093780470565742
0,0968072371748338
0,0900649967315938
0,0922458708178412
0,0917613774039688
0,0889808414714485
0,0911110746580459
0,0887509064362704
0,0928143393687281
0,0911869023126475
0,0874695825508622
0,0885356654838511
0,0910874268061699
0,0908370094473584
0,0890887301287335
0,0904381760364197
0,0881641801471249
0,0901942931860332
0,0899233632924745
0,0870217199833561
0,0891659044001973
0,0896661662133506
0,0847864533518972
0,0851346650235946
0,0863064214538764
0,0846827982093271
0,0872607265321209
0,0855407610660156
0,0831150733158154
0,0877895197368207
0,0872320569533086
0,0858825199666829
0,0833355653539423
0,0836166673038185
0,0852866082771231
0,0819711038893158
0,0849795028358145
0,0843598761370574
0,0819536246371556
0,083255002196296
0,0818268907419373
0,0791880079461481
0,0818839325678979
0,0819365427905064
0,0789689766859575
0,0816180980601815
0,0801764081170694
0,0802195072428353
0,0775107107294682
0,0797037800976495
0,0767565307431768
0,0756843144536826
0,0792930057302861
0,077599494754389
0,0790363128680648
0,0778157866823075
0,0733014434456126
0,0785350374346282
0,0748690788979416
0,0737957904877475
0,0713999487966293
0,0739619915453558
0,0737208740598687
0,075669334448535
0,074184106419567
0,0757595923917058
0,0727877845115493
0,0711068760509393
0,0689160870341762
0,0726235878990923
0,0722499042359453
0,0711483697770905
0,0695763240539835
0,0727169824340676
0,0697648445172298
0,0686760558314321
0,0700550163737792
0,0693753183150892
0,0672393443006157
0,0681191611107275
0,0675754353198666
0,0669655902361449
0,064563098789385
0,0655921278064236
0,0660515071033062
0,0657210064228772
0,0669717657774213
0,0630465301250113
0,0647969579507998
0,0653794584180498
0,0629094965116944
0,0621455515645676
0,063637986485866
0,0660517802142164
0,0626805083029973
0,0636524437998031
0,064022891012396
0,0617754765144974
0,0622358027496062
0,0628051173112154
0,0618014675739699
0,0622560171680081
0,0610829444346522
0,0595943079810884
0,0606077541449037
0,0596274616542265
0,0598588970365877
0,0575500650853756
0,060223378819937
0,060288081990812
0,0578151801505909
0,059808173639602
0,0602165252114967
0,0564709742106147
0,0596336738355598
0,0581192258417859
0,0620737114538572
0,0546322150129569
0,0542193401664455
0,0561624346372295
0,0540464584596368
0,0600108025072963
0,0561192829596283
0,0538642525455692
0,0556469217395918
0,0569031111859992
0,0548195356711468
0,0559204217615183
0,0523755643477257
0,0546124398182994
0,0535201583430618
0,0574503666260734
0,0530528486279096
0,0521434466145917
0,0522769503714669
0,0518593862100777
0,0539951379568558
0,0488366780981009
0,0536552067598828
0,0530061413731677
0,0513025851521127
0,0491132480568813
0,0546198906432194
0,0530827519782444
0,052106629955028
0,0518751807931387
0,0496770482392858
0,0482888870187722
0,0501263600612799
0,0525597204946508
0,0498010083391281
0,0531281222264588
0,0498304271612138
0,0500515987323465
0,0487880824788963
0,0467337742684493
0,0497764297706161
0,0480927537639019
0,045471227117732
0,047578625735575
0,0492995846165851
0,0500678723903363
0,0479547856940836
0,0489962006842867
0,0437934775111481
0,0455516900824548
0,0447186185597101
0,0449689331269187
0,0459945304529196
0,0434840700105611
0,0428113794623862
0,0467207906550573
0,048883160343795
0,044556918854746
0,0444658130260215
0,0452751977172354
0,0472136042149423
0,0455648274519341
0,0455208625062441
0,0417690704274348
0,0429626072455949
0,0506793045794838
0,0470659833851647
0,0455720301970303
0,0421412733837044
0,0456104050986613
0,0429780507036988
0,0470734387372327
0,0438996756445499
0,0473019021881715
0,0441733864539467
0,0448297038204693
0,0430949597985976
0,0459122398446792
0,0410065035630976
0,0441803993903554
0,0451899079887207
0,0508535900440508
0,0428698299974318
0,0444269357536413
0,0432444041631977
0,0438585386992971
0,0410887395358292
0,0405732753761815
0,0421198077002296
0,0433904137107664
0,0457321687806106
0,039770597380051
0,042460989046291
0,0417814288209033
0,0415904061773164
0,0409737907902311
0,046941269223362
0,0369833835614288
0,0487527741337563
0,0386783016326432
0,0446885782892913
0,0371715812386394
0,0459594182961492
0,0403937311560202
0,0443029144178605
0,0396172168063426
0,0414915942044998
0,0415872276711948
0,0437791601593884
0,0457281109746463
0,0437201457838832
0,0399086979713967
0,0426747411469163
0,0413841724657153
0,0428348983860964
0,0441381762973367
0,041982241145225
0,0407358537316955
0,0417862059691107
0,0391393466855248
0,0415868736219308
0,04347723507946
0,0418079070384981
0,0426360366156986
0,0421478909243479
0,0432613932515124
0,0416946823109853
0,043026478565308
0,0397115417779271
0,0430551221083396
0,0424643762524786
0,0433887887876115
0,0404107368952554
0,0421704065698647
0,0400378461386042
0,0416452825253828
0,0408578908252144
0,0413828053634121
0,0402950680466134
0,0411535909245601
0,0424560142824079
0,0419184773573214
0,0418788771431948
0,0416837410054044
0,0394763321893237
0,0414383275858996
0,0417496824508695
0,0435322866429109
0,0391949929843856
0,0427181848114406
0,0425501727152585
0,0401858525748925
0,0383346712027187
0,0397193829009998
0,0412113785092797
0,0408102770386156
0,0398542008397128
0,0416961941126644
0,0412937420022641
0,0389506632735635
0,0405358158518544
0,0415348017086845
0,0420316781991084
0,0408960631277548
0,0391696959485195
0,0407764245094032
0,0431158171004603
0,0439502012091859
0,0428553876648491
0,0419874740141283
0,0408908739113516
0,0426978565840275
0,0408034814874051
0,0396311884937152
0,0400040123525505
0,0412606647197943
0,043850151004859
0,0402428291281566
0,0392855026183397
0,0411152772650599
0,0427509394660531
0,0420426743684617
0,0420596416517193
0,0420088056419473
0,0404442815461014
0,0401721888840346
0,0395793931484614
0,0434067175423162
0,0413031746201927
0,0399660876733633
0,042742951473622
0,0425613283604055
0,0399567854478374
0,0427268672193289
0,0432529505144135
0,0436551024380142
0,0431560047673091
0,0394879415532173
0,0407698501564096
0,0425531448506896
0,0425260773991674
0,0428858058518826
0,0402440495302448
0,0439862843466648
0,0444281118124945
0,0431138939738974
0,0411335667542639
0,0435536198102493
0,043370667061425
0,0416255909419876
0,0420071430149605
0,0427815318616614
0,0423166530645248
0,0419567396661191
0,0438784872705535
0,0400476989981583
0,0421937330080688
0,0434052354106983
0,0415841628143671
0,0429298140827353
0,0425995543184885
0,041200911447386
0,0451776531409419
0,0425549297950665
0,0422339468683817
0,0430603581338171
0,044186536375326
0,0444560144480118
0,0420960726966131
0,0434318545086424
0,0437502345841524
0,0441590115021324
0,0439653171583193
0,0446143653508699
0,0451342027461539
0,0427368094113098
0,0437617942333421
0,0430945653676681
0,0439576711876534
0,0440860684016198
0,0438405001102153
0,0440113650401909
0,0428560833311745
0,0465469738284106
0,0418583012623309
0,0420884063243329
0,0432149515282509
0,0447593158072961
0,0465523453582319
0,0435084357278677
0,0429692493974812
0,0435458059998863
0,0460282476624853
0,0440046418000662
0,0444363566993423
0,0445347552743914
0,0448420852515464
0,0461406076276048
0,0457432088168434
0,044348691853972
0,0466102147084121
0,0462878224285277
0,0450779344463517
0,0460424290394724
0,0461766038177991
0,0460302854309733
0,0461412106912081
0,0456707718777898
0,0442008736691437
0,044926433246745
0,0476230706395187
0,0455073471501775
0,0465470086970017
0,0457745145062975
0,0476772978856263
0,0450442936736685
0,0464205159027805
0,0486296097571424
0,0475542884993951
0,048507228676325
0,0467056354612426
0,0464366958573053
0,0455533235562754
0,0470080692477325
0,0463551686479598
0,0474528107106918
0,0470802407732359
0,0474659609475658
0,0468501667937979
0,0469261415688268
0,0473521855996381
0,0444953934177858
0,0441151136313643
0,0451423172113011
0,0457279954914017
0,0472856677899018
0,0450573650118025
0,0454746888907543
0,0438587186963493
0,0448794690040496
0,0446345417852665
0,0458396476978625
0,0435559081223121
0,0470652197065841
0,0452408587621967
0,0435604142164538
0,0444556410312468
0,0435832351451483
0,0469812080482644
0,046629088151027
0,042207264219513
0,0437375987052358
0,0459428124279814
0,0478313227910612
0,0442710755225906
0,0448589259685963
0,043783172939928
0,0445618871429882
0,045470163557657
0,0444190116540184
0,0426726016011117
0,0445303034596035
0,0410835910577703
0,0438420123794389
0,043044294318576
0,0441644231763812
0,0452796236224496
0,0428180370688478
0,043997466117142
0,0412340650817671
0,0423377194151789
0,044329678909918
0,0427480886053071
0,0426317133712176
0,0444383211297378
0,0428413039116207
0,0440684694206031
0,044168035136395
0,0419471151926417
0,0419468276568186
0,04217666822416
0,0437646705042552
0,044393881627444
0,0435487725380675
0,0416820061910599
0,0407900392847991
0,0406066484718098
0,0431491097028861
0,0428777916213227
0,0426983059856198
0,0428445947118128
0,0436267801751973
0,0437191206858535
0,0428154202786352
0,0429344900159168
0,0424337370617114
0,0439952666522216
0,0442284855212482
0,0434439576148529
0,0398485529385129
0,043228582154161
0,0423651866331682
0,0438898945214473
0,0444220362934463
0,0451588206881869
0,0429037000783978
0,0417192128541287
0,0441631332654173
0,0430900421489778
0,0436571787344537
0,0424897151476801
0,0413702251392238
0,0419700984406721
0,0416213838265124
0,0427241114656886
0,0425493585839794
0,0443506544896315
0,041006707377654
0,0414726310461717
0,0423057000573421
0,0400163031388214
0,0432070240456824
0,0441611685147563
0,0424404106317494
0,0415720722008587
0,0412897068635398
0,0412303603210125
0,0431693039343045
0,0411992054606031
0,0410258421388442
0,0435398439929043
0,0411154910478732
0,0426353695778224
0,0421493050228138
0,041241870943486
0,0402396684485097
0,0425262319634005
0,0424230343719185
0,0424821759955401
0,0418535279412915
0,0429827478805948
0,0435016794438437
0,039469106695515
0,0407952859233983
0,0403369590867189
0,0391567253532399
0,0412135782265672
0,0388835408879139
0,0382936465180739
0,0400023385013178
0,0390625593161284
0,0394233281772629
0,0396028022846331
0,0382466966435447
0,0412331577938391
0,0391695082936229
0,039543831162924
0,0384049987220134
0,041822911136678
0,0416592971670848
0,038500861665758
0,038626925621009
0,0379004493683893
0,0394703004650011
0,0377451308363648
0,0399152623800803
0,0389248516629876
0,03899683330952
0,0380426594682731
0,0372080889944228
0,0357456165237579
0,0358553578759726
0,0387915274747077
0,0378276077289584
0,0373253902277117
0,0363628453901853
0,0356165053080932
0,0355450752389142
0,0359091366342127
0,0355868652777366
0,0365320075568338
0,0364966551409674
0,0350600132418952
0,037144696734168
0,0369228511361689
0,0365091358459242
0,0352709924423271
0,0356355158390316
0,0352129128994325
0,0357095088638835
0,0361371419118365
0,0339844649618657
0,0367404602986838
0,0359393254471286
0,0353997350755937
0,0364439976728783
0,034773971035956
0,0354594156993901
0,0377923929586845
0,0368230092946224
0,0361515657210633
0,0348940537500986
0,0348044540791638
0,0338825450004103
0,0342158399386533
0,0359046658799118
0,0366065621451092
0,033695027632687
0,0345915385954146
0,0363169828359543
0,0332683809852891
0,0345065496587213
0,0370993478102052
0,0357786567452901
0,0349492127679752
0,0346447468858408
0,0338045684636256
0,033742131532968
0,034322188082273
0,034378896220546
0,0325433403350831
0,0347699190098615
0,0336463951094861
0,03440394998133
0,033982338980423
0,034783009054149
0,034553093227009
0,0348995530139146
0,0378913375251645
0,032277466098682
0,0312875926062354
0,0350811736653473
0,0351816913616626
0,0343785057673094
0,0351814525007556
0,0336225292416481
0,0325533010953936
0,0352081166855037
0,0349610022054273
0,0332358150570375
0,0333616394206504
0,0336511045846018
0,0315547154178518
0,0321646995759656
0,0326221794273523
0,0351242756945004
0,0327759978745493
0,0338786830291559
0,0344315677642131
0,0342389173576587
0,0322956910543182
0,0317461971407203
0,0332130503669692
0,0347964823233331
0,0343550410340843
0,0344210924449507
0,0314040568930028
0,0310603005504736
0,0324148548327729
0,0315377719961101
0,0316013392106206
0,032785470395822
0,0314253768644224
0,0319979020483345
0,0324849496081945
0,0339104202076288
0,034299832653866
0,0336856626626267
0,0325234378339167
0,032792714350044
0,0317052112260827
0,0339707890780838
0,0312921417518578
0,0331571334037785
0,0329697798344966
0,0301086824851267
0,032741597026006
0,0320927016079382
0,0311815569463444
0,0340590157603813
0,0312535838528238
0,0307943087255164
0,0337958856193883
0,0335205025011729
0,034505446504849
0,0345479087754156
0,0346124559323812
0,0323999904094762
0,0342926898983989
0,0321853388632112
0,0318294469524826
0,0340804009636352
0,0338653116383571
0,0319220943778321
0,0328617435732798
0,0356244548339243
0,0328386627340273
0,0299397159706039
0,0324262860171912
0,0323412557361161
0,0330413904029814
0,0325416087225099
0,0369755266312752
0,0323997134603407
0,0320302250535204
0,0332177668282468
0,0321581661640969
0,0315186660263047
0,0328177542482455
0,0329075015118056
0,0302244829526402
0,0317660930222851
0,0351155366707969
0,0329122144494162
0,0327933691821054
0,0336180390509254
0,0322926679430967
0,0336057931251062
0,0324512307754689
0,0311997646542643
0,0311935351654673
0,0323605938251894
0,0299679839379207
0,0313418268311764
0,0348929527899375
0,0325058026309373
0,0327935823650229
0,0338919040510962
0,0349000443602444
0,030636519629112
0,0308974694919779
0,0334454897461499
0,0343896967565808
0,0336936683676504
0,0337446921774218
0,0339498936730223
0,0346217927434212
0,0342152396423172
0,0332265119226686
0,0312942827350242
0,0339371376445397
0,0306888262106646
0,0319147221068736
0,0327627048897337
0,0350024553989704
0,0322148788313003
0,0322646453891305
0,0337930854396965
0,0333844658655767
0,0323116022152711
0,0333171234900585
0,0323317996101391
0,0338631414228062
0,0367905228585786
0,0318722046849556
0,0310903305447738
0,0319798981176718
0,033333463102989
0,035613095192342
0,0350952750978234
0,0324305731758746
0,0354164569117617
0,0336683507193777
0,0325414820140616
0,0324408951676144
0,0314879176551671
0,0357712649830717
0,0353402275631277
0,0348653163542502
0,035919419564041
0,0326317636294715
0,0386450891773665
0,0349656698432831
0,0353735756731298
0,0358804572956683
0,0350123448220912
0,034470082635575
0,03480913050308
0,035892664415312
0,0358890567739432
0,035050514813824
0,0344719239193016
0,0352631348735346
0,0365087944294259
0,037143851008973
0,0361327778476127
0,036251335103612
0,0356826660797839
0,0347278260066826
0,0360077826605279
0,0369502434566929
0,036432538547859
0,0360199522146604
0,0343096781870633
0,0363179106754234
0,0378497165347115
0,0378465383284284
0,0364551957677165
0,0387195531212539
0,0380454444622709
0,038031398980739
0,0407544797397889
0,038276150691271
0,0374225319767902
0,0385643648871203
0,0349189795055155
0,0437256551563928
0,0381556388906816
0,0423878498964935
0,039078346310218
0,0393460271961728
0,0370913049397109
0,0388460030481876
0,0372113494263506
0,0388714461185729
0,0388894693467768
0,0369669781003946
0,0387951379652133
0,0391984029289196
0,0413014239892428
0,0416394984800976
0,0410544179375497
0,0403746099630831
0,0419735017807348
0,0412960939373919
0,0423502330575711
0,0387124071820004
0,0456032202915703
0,0451356849597997
0,0447312270721844
0,0432901966212505
0,0417290132220595
0,0475393015383986
0,0455188021331566
0,0446913282362135
0,0437235538165827
0,043821492092489
0,0466122801013215
0,043310954780987
0,0514108754478699
0,0465214725648079
0,0446045563436386
0,0468362326508559
0,0454912938282808
0,0472876588648826
0,0511556040841454
0,0492794496192668
0,0481835426132026
0,0539439291919564
0,0541271613215902
0,0488752283787055
0,0607317271640137
0,0531298861375322
0,0592299211557276
0,057157349307094
0,0621411150429878
0,056569767589351
0,0580535617181268
0,0593533777194772
0,0633789660196862
0,0580856494229422
0,0595002838507604
0,062727226500014
0,0668791414850504
0,0600553616267801
0,0657190622519106
0,0648441797384276
0,0631246188735965
0,0645676373270703
0,0732519533456481
0,0668875139762306
0,0671807470539226
0,0633664132941668
0,0716645279307864
0,0704256945352503
0,0662208283362444
0,0716254537533288
0,0698112537418213
0,0713631857448088
0,0742695962048284
0,0748367335869518
0,0728669880298341
0,0724157400696191
0,0738457073664428
0,0727807506237121
0,0800213311610552
0,0790381915584544
0,0809270337126282
0,0791947608144721
0,0817130571730509
0,0830374735925392
0,0834848574748318
0,087119417819423
0,0864464750942869
0,0880025885915283
0,088729531133976
0,0882713040840615
0,0909953037128495
0,0962625210933232
0,0982451374125483
0,0951189510903974
0,104151650818387
0,100359891757074
0,102794044637139
0,105569280498082
0,116046619595216
0,112701861794242
0,110699201710926
0,121914781758335
0,122818636552711
0,142625179633032
0,134431068637777
0,13991361868664
0,146959271693081
0,151587133767347
0,153738581671516
0,163350688176195
0,165066401673073
0,172857776306177
0,1780522497548
0,182620551415115
0,196855986114491
0,246906130534036
0,209067214814775
0,209445596637544
0,212306265472983
0,218552490350987
0,228509754464998
0,232114347435512
0,23809589491859
0,244817774692706
0,243676782046386
0,274642299135871
0,264862952252736
0,272159348464786
0,278206549852047
0,293646377847792
0,292563474559874
0,305467033208843
0,311930959169756
0,310382067448216
0,32118927296109
0,324019820526619
0,32864213222183
0,33437140506127
0,351837614672199
0,352819559906743
0,356667948738625
0,366268112648783
0,36695449289833
0,372326807574715
0,371606542802513
0,378915577849373
0,383340154691145
0,387776280852831
0,415105890215496
0,472019523193789
0,404498931981852
0,388662507174873
0,398453755749489
0,396078203209792
0,405821670064496
0,410688768443796
0,409832634321798
0,414014971197456
0,394432127246141
0,3999595635193
0,401174928945288
0,3997977835153
0,401252600920364
0,409684759652992
0,397137224278014
0,409203811720559
0,404605442233276
0,425647087343917
0,430752022531574
0,391062020036418
0,391089342307696
0,39426720371562
0,39575939247478
0,397394857652476
0,392740883705373
0,398815197057707
0,398757256811684
0,387861148255749
0,378351281879568
0,373220189658851
0,392504612961918
0,379909439348893
0,368132093037683
0,361126031861402
0,354668918871703
0,350630279267394
0,354910317438662
0,359767998891385
0,353104003097957
0,345349959786317
0,333793708735831
0,337811198224009
0,335436194149237
0,333677070866039
0,329440792043075
0,331669672529858
0,330990889159433
0,325077476374242
0,326811059755589
0,325102032151946
0,324366739751228
0,323263013203027
0,322996609268058
0,323235977372551
0,323802146974606
0,326371887336573
0,317213433213599
0,326092967190897
0,321855407531469
0,326239962277878
0,324139117130201
0,322787024683322
0,324591958111357
0,320981193914406
0,318803587742662
0,322241022891857
0,320260417258228
0,325126780292741
0,322014317200163
0,321714693398035
0,320433321041662
0,324924374667441
0,321505537550446
0,326808194027592
0,324907921945889
0,326154884313876
0,322976834703315
0,321490638900569
0,314843767793466
0,317189895583018
0,322752436105938
0,341745848019858
0,327404292012196
0,317332971240261
0,31367248469018
0,31498319459797
0,309694645927506
0,31347656979623
0,326580143076859
0,317107455912445
0,306620540138442
0,310185076223627
0,300459473906763
0,303119453947253
0,30673558602228
0,303194363125447
0,298805737187376
0,300216272413967
0,311878008144351
0,326173624346159
0,31811665180546
0,316886848896247
0,291891745947465
0,294758352986873
0,286278124177462
0,304979316842748
0,293770869625649
0,293426874851585
0,293981803154399
0,299927450985524
0,300355201470695
0,297666415545151
0,293952402001727
0,294056866674374
0,289663219211628
0,297867680301907
0,287290969332522
0,28821811849077
0,296622348804221
0,292170496110165
0,280414875449597
0,316575667391584
0,279430144853309
0,274044160714545
0,269516095112414
0,272366583016222
0,26826064491896
0,277461319447036
0,269446535234508
0,267872457645238
0,258946113274059
0,251214604269238
0,253109687777839
0,260816276306318
0,25381556585067
0,254067396008746
0,255044897158025
0,247135907790294
0,228852950034299
0,239984818962788
0,244507013261408
0,239051908541406
0,23120904635597
0,229294354920616
0,234358459361724
0,237870094952543
0,228577442362892
0,227588616261549
0,219868661971248
0,22511499094237
0,218020164289507
0,211152173674954
0,207482374384393
0,213480971986625
0,201416654758138
0,206861221365471
0,213625546168686
0,208515927168629
0,196753318901329
0,194795053741191
0,197768730719687
0,197156574610156
0,190981057918863
0,190796026205679
0,189714382892928
0,1968007237207
0,192666226812356
0,20325376761777
0,195217097564365
0,190348829279177
0,190997191960871
0,193677394872258
0,190819076627076
0,21064876839483
0,203716553889855
0,199920164165802
0,205739354239151
0,208059500525881
0,203915142712959
0,20799994853798
0,207562348775428
0,21434176492176
0,217090617141959
0,223939647058408
0,223626239624181
0,226465769477479
0,230836066587335
0,237701004160699
0,241367362294972
0,250989896199014
0,249215632414323
0,253311742304628
0,263995120122761
0,277123404890711
0,272861275224206
0,279543108217163
0,287210361438023
0,287312926829562
0,291977081824498
0,297368441019763
0,29736968902902
0,309850190080176
0,306982259232797
0,312480457280643
0,313725790160979
0,319119805750586
0,318470030450476
0,329690951906244
0,329877672318246
0,359334117538916
0,34389400059757
0,339003775912298
0,338950562487194
0,338774026179043
0,338477265343295
0,34618027818551
0,345718815155381
0,35475969294575
0,347723396299837
0,358728996746044
0,350855024208089
0,358713262616563
0,355894387113017
0,359870730491023
0,363013119369404
0,36666761453304
0,36243685640465
0,369097675549415
0,368973588070195
0,375562828851394
0,370982377220619
0,388272553080412
0,385876047536889
0,385096799334857
0,385211657783893
0,393543994394458
0,390394560366012
0,395158366609659
0,397547365156452
0,405116152377662
0,397095236917016
0,402737427234706
0,404555858709258
0,411416369593885
0,420527894727914
0,422134978032627
0,422228274916357
0,425843160316364
0,420226189357647
0,431214300443213
0,444999140102211
0,43623443169414
0,428147143950048
0,439428161967115
0,434349404848935
0,443376272273408
0,439276528119331
0,44789842761467
0,445164141364448
0,444278060589939
0,445952760543804
0,445911362372308
0,449385473411891
0,449777489646267
0,446588021494146
0,45907962132749
0,442521454796128
0,447689245363871
0,447823844968884
0,444698871603672
0,442805117175554
0,45834981327373
0,45193315609807
0,448565526500453
0,45149354695252
0,443859574547577
0,44945176495301
0,4517010348739
0,441543340874902
0,448702049363892
0,444135504560928
0,447625254795384
0,446242245843916
0,445979516384379
0,449384183278003
0,46081502529942
0,450604366505361
0,454778793529712
0,452321882498536
0,454590613604552
0,454067178029882
0,459386706959646
0,459564673410809
0,455059778540772
0,460822026858538
0,46189359060219
0,454400899197795
0,46232031083587
0,460124485136113
0,465427545186411
0,451588212569728
0,457274619858408
0,452356710581455
0,457392309752159
0,450461438725959
0,454416017975983
0,4455142596143
0,44142976967776
0,434009222366835
0,436074109259069
0,438465671761407
0,43190963085807
0,429966046007917
0,425568188010413
0,418491900157429
0,415886875084594
0,414437952170457
0,408228813165467
0,407983927036965
0,406068817784975
0,400897198790503
0,402119050909114
0,399092873345935
0,403397960369408
0,394089435405864
0,397959348795985
0,393677103044239
0,397204560580458
0,394955028814879
0,391550691059212
0,392857673672233
0,395630433271778
0,391405646145507
0,385329670307726
0,393172144758599
0,393115621278501
0,391891314899982
0,392155474592145
0,390915353895075
0,387747233656958
0,389505094105035
0,387330178683989
0,38895246452757
0,390328625273911
0,389443134080954
0,387490876581139
0,384850147268444
0,384962013053999
0,384567179153348
0,383718273498055
0,381669281037985
0,383477637396033
0,39078924984977
0,388130723049453
0,384082321063785
0,382925770624165
0,379655221875641
0,3869042756758
0,380586355601074
0,386542632899404
0,386089630813449
0,386535650757858
0,385850605819681
0,383915587951279
0,38457033310076
0,385399795067142
0,38444647144042
0,385648611394646
0,383825178067527
0,385080755429151
0,379711748546744
0,383626650839668
0,38060757005677
0,378065151690433
0,375286785650353
0,373744982026313
0,37557110633115
0,37417781429504
0,367020768980769
0,367901166347972
0,364287052165482
0,358988834650836
0,358686581257052
0,354487624407005
0,351814279310922
0,347072140437331
0,343171894364813
0,341198997974277
0,339132626449083
0,342502758461325
0,334326136881522
0,336875586479513
0,33667271633832
0,332486151290037
0,329664654363785
0,330367665574825
0,330331076018444
0,333655992560738
0,330266105042916
0,328757856358704
0,330414466053305
0,331806645328883
0,331917775167475
0,333861821203817
0,330937062829774
0,33555300598508
0,333731699565536
0,33275870712225
0,336926520356421
0,336088621339335
0,339332833396072
0,340958331114793
0,33737677918306
0,339845176764827
0,344161073192783
0,344244363178762
0,345452261625579
0,350651427602952
0,350855911198338
0,34991591702344
0,349872203208605
0,349853573034117
0,349232878718623
0,350226448616082
0,34818292336717
0,347921349268869
0,348284987925221
0,351696309601095
0,351997289805583
0,349964094531568
0,347608674128803
0,348414201743934
0,344749008133831
0,348846732842521
0,346259291584258
0,345518328347813
0,341245045506271
0,340314177187392
0,342280876816889
0,338991733740576
0,340541920277265
0,337528043963852
0,334292944883397
0,33608879726816
0,335683009854409
0,334231594086155
0,333091680690171
0,332025943459143
0,328942708680824
0,329473815870114
0,329623444420732
0,32799270787679
0,323535848570481
0,323532641674597
0,322165664209766
0,321111476627799
0,318362043110064
0,320790875844695
0,320894064311627
0,318379048229913
0,316728698165292
0,315413208938692
0,312171728388549
0,313065950264665
0,306927086861964
0,305036664687886
0,305244696529464
0,303042030655104
0,300349195925791
0,298967837770684
0,296767467846075
0,294111397291682
0,292538488927587
0,288718899578779
0,283736455175808
0,282423089614748
0,28191243571697
0,281737681342571
0,278606815198093
0,276268657347586
0,277158831914924
0,273803626121353
0,274535702872216
0,276649966171339
0,275009794726165
0,272328992470485
0,270198209979598
0,271914017745664
0,267693522609465
0,267065403081255
0,264071821113905
0,261340674288826
0,262277089456794
0,257264748040602
0,253379187971839
0,250387819753916
0,246056865561276
0,245548440700639
0,241442821171654
0,242572454041317
0,240989409298156
0,240603753577209
0,242767127389477
0,246645498809849
0,249548681201109
0,254624107408961
0,263444376162609
0,268920611912206
0,276939407517019
0,287288669095795
0,297716241381536
0,307258804505457
0,319489811080298
0,331782842787166
0,345805323854094
0,358274642160329
0,368573817041566
0,383464870846634
0,392618705210694
0,404412172234438
0,41843530976536
0,429935721499378
0,440348802989655
0,452340561735645
0,466327004754658
0,475226422371824
0,484219658074428
0,500484552807603
0,5016031177226
0,514354014508159
0,516647622967828
0,528493158352928
0,532084734685192
0,542846408029418
0,546293178335674
0,553858356348281
0,558045634110696
0,562861989080557
0,563016405224776
0,565661664250247
0,570023063449687
0,568376665083985
0,569242923809038
0,572576437765496
0,567355374720923
0,57196994752847
0,576290274038254
0,570521820344716
0,573875927990832
0,575197228319371
0,57851220205029
0,582251957133713
0,582030170014788
0,586853616133781
0,586366042109829
0,596457716653323
0,601132838704129
0,606896157419571
0,604378771982561
0,613604281171475
0,619328417720026
0,625610568147356
0,626210287550155
0,642032834564287
0,647894515098067
0,657394490377623
0,661593144493801
0,671876782247794
0,681652444244307
0,688439144408398
0,704034969876641
0,703755773669818
0,712892098792188
0,722653369890725
0,720997803249716
0,728379385593041
0,728929000152384
0,737698819741098
0,731250789981886
0,73978783959087
0,72890503422058
0,723911707990177
0,72644124121929
0,722653534124733
0,722152849927817
0,721907745974017
0,723807680368401
0,723981095462696
0,731229951450284
0,732836306527469
0,747589579117111
0,753631422759722
0,776703337301172
0,785657538345277
0,793844971379262
0,798412682029041
0,814968237489523
0,830347409714652
0,832840292693139
0,853502148731858
0,865426532742379
0,872322864579331
0,885143239269185
0,889638136663658
0,90054943225738
0,928135586857545
0,935621931616135
0,953108532022547
0,974754568489199
0,981397300337268
1,00054000616107
1,02483665153095
1,02340624340451
1,05141353633152
1,08375325678279
1,06912681807649
1,08407673367283
1,11191471978965
1,13118539203959
1,13863962601501
1,16154354060293
1,17591838091791
1,19474181133134
1,19223835942481
1,19766067713367
1,20731929916707
1,20036190422182
1,22262868911724
1,23744867761875
1,22113785361156
1,22774565966479
1,21491786800934
1,20367935384489
1,19103063260183
1,21421702026617
1,20918630115997
1,22928155127186
1,20361926102384
1,20256310260221
1,2045713571773
1,21842182528138
1,21258661720248
1,24955596898135
1,23357352783621
1,25123644783244
1,26331418303503
1,25115484350599
1,30357454670843
1,27425578716576
1,27838057785888
1,30148757942697
1,33234733269798
1,34814274437165
1,32653785015139
1,36266807674538
1,38096213283909
1,36493150542717
1,40572585967943
1,39508108524622
1,36890151238484
1,41046644290871
1,41478830416639
1,43881039432217
1,45765607952459
1,41303767316441
1,49717348851489
1,44114693018435
1,43332337541515
1,43051780087018
1,45035628256287
1,47490025619426
1,46462203616519
1,42246715374408
1,46267713858725
1,47865640967521
1,4864202501418
1,45000474751269
1,451079825459
1,50090086504455
1,47601981532205
1,47826983065173
1,47731578951622
1,44771936889658
1,42192135682348
1,46592904060256
1,42638018669924
1,39583493797429
1,36651059691248
1,31603859426403
1,29629698778766
1,2532165529222
1,2272714259423
1,13860510740685
1,12532091412352
1,08343178760953
1,04106769803994
1,0057934169086
0,99899428077269
0,964287341549688
0,96722627158816
0,951881079181099
0,927103595445842
0,921966925256864
0,913266543822815
0,913053160642643
0,904122100489204
0,882543527844214
0,877538827946322
0,879087760609583
0,855990179140109
0,854305333739363
0,825050089517667
0,825507026905123
0,807204281582322
0,789527435201509
0,764741678843258
0,757183263892588
0,733328579131693
0,713289587160936
0,683554441357205
0,660318102140168
0,634858858196843
0,610214480729739
0,591630517424739
0,555777152449565
0,531191722416528
0,509362445009928
0,480952861077024
0,45553984935135
0,434606800658129
0,412467001995905
0,393513473295195
0,378692478678465
0,362674564085089
0,347120432787513
0,331523565298563
0,321533955574943
0,311077368810974
0,299244268712485
0,289196820481033
0,284405527004189
0,277962244676103
0,273337977219297
0,266897348867322
0,267116420084993
0,264017119941528
0,261742032359969
0,258980746458018
0,261293361683016
0,259579144117837
0,257235178662807
0,260461142373978
0,258491762014381
0,260255678660875
0,261757955639439
0,267259115012612
0,268984871477045
0,26717364722619
0,266294411860571
0,260575937661078
0,26305683724711
0,261113902552119
0,262059853320406
0,254876970363545
0,259822890135846
0,255155937727979
0,253320734605562
0,244229983408977
0,246788995451098
0,24415795882115
0,243871327169898
0,242221384983474
0,246502629673641
0,246637386592741
0,246059522990142
0,247700606226433
0,242660630992455
0,248926213870447
0,257147660240712
0,255756241962226
0,257868706215841
0,261793820990487
0,261825702046574
0,26252287783812
0,271932029000998
0,272097337859623
0,27210463037231
0,27653718031857
0,275457075693296
0,274880587581196
0,276744028450173
0,27910996304296
0,275358159422156
0,279580906700297
0,281267193053249
0,276908255153196
0,281894900281899
0,278133784498874
0,279193564846497
0,290922782529523
0,291825487674365
0,291563514811481
0,296269687672316
0,300055413760426
0,305277607683007
0,316203694749458
0,319612919846092
0,33247896685467
0,351457533935564
0,354671068876971
0,361446526317759
0,36625724774896
0,375172857655593
0,381870220203151
0,386917293061879
0,38308539068954
0,379816758599805
0,383925516090222
0,378429490108817
0,36203162174107
0,361177860603266
0,354796642456385
0,345358156110552
0,3445030071619
0,34350558089809
0,331281329126186
0,326832016115805
0,333767168041563
0,33489611565977
0,32985057142452
0,329507301602683
0,333147499718878
0,33104732919941
0,334587628720896
0,332223574343085
0,32687501797136
0,329818186426968
0,318940777638838
0,320409021171245
0,316580259171604
0,313107337277047
0,304790965520645
0,309426854279309
0,301827852392641
0,300685438894822
0,302292037362152
0,292533891640779
0,297695128128339
0,29747095485006
0,297545932327658
0,289602045528311
0,288624318047958
0,282053283431782
0,288113939640009
0,279603647970008
0,279561326914007
0,284947619583062
0,276546607416325
0,275607628788612
0,276613049529139
0,271547831782136
0,270195097328501
0,264051341552243
0,263930592043024
0,264317950254759
0,261746383115804
0,261705630096975
0,261496121561593
0,262191012155381
0,252909403791125
0,266435505917666
0,252699618616673
0,247737755734664
0,239109700724042
0,250963537577851
0,247996550152532
0,243613885561832
0,245588367974616
0,249411794726363
0,243478369828199
0,236480913019767
0,232543445771523
0,246546603308518
0,245179765438262
0,246449038428917
0,231320636506498
0,240568833767498
0,249011540318172
0,250469120075347
0,23058579707181
0,240985768169564
0,242645183259796
0,236570737413906
0,241510123834735
0,243562111917212
0,24196907122239
0,237453365868551
0,239341773446651
0,250617745478735
0,244419855482603
0,260057010930523
0,261162585384305
0,258113401111242
0,266332962100792
0,26832136021866
0,26334444378907
0,275251743343103
0,262701451023751
0,274981322032712
0,283388031658096
0,289259642892253
0,292590209062194
0,285341175620347
0,282694121701721
0,300968766523301
0,315278427596767
0,320162005972497
0,330008996888049
0,335048988309075
0,33050748450471
0,348664629825686
0,361492525908992
0,376521009726259
0,381439093353183
0,396265125992275
0,409663105168902
0,41614934791992
0,436368773514977
0,448330284295393
0,440915429938368
0,460689038949886
0,460070782974522
0,457453472781179
0,467713289322516
0,481068193551998
0,457846065900172
0,455054429702982
0,441990881845726
0,44359585709481
0,462121269635783
0,453001793219702
0,441247414184303
0,453861789746126
0,441033713221362
0,45038434323125
0,439994665991331
0,417541586393963
0,417631396117827
0,434656372564343
0,423549221298735
0,43306233220772
0,418909384721755
0,411422184792966
0,417128671666197
0,417324533471131
0,423587191984114
0,407798185721596
0,39877345331714
0,396514972927325
0,395081750058967
0,397337557517887
0,371851397680374
0,383683448923238
0,397805789268594
0,39545886520268
0,389317463766693
0,402189703547007
0,382279584146935
0,385253882785734
0,409426362743978
0,407767969393011
0,370417009753136
0,385317167706698
0,391373588779767
0,410072741494415
0,382589913112367
0,372800645502121
0,378482277178839
0,374385967144588
0,379904862529624
0,388273220478414
0,39524139470497
0,385458812724686
0,366091369834769
0,419479985520315
0,406948749390742
0,387635549791039
0,374415448634546
0,419208838413903
0,416529958677362
0,397426303666326
0,407837847332771
0,42712664940184
0,417762790647548
0,407994600448896
0,42501096418085
0,419817935970967
0,434767816868161
0,414189346978041
0,416812509154462
0,481427497637155
0,427894251682725
0,433636902658831
0,463324092016271
0,510249955980484
0,499084986652708
0,459330941169689
0,473234233810605
0,566078882143719
0,535401119751372
0,491520770413663
0,540480049431254
0,524315676522068
0,548507665550977
0,582283713546656
0,522215728783418
0,562899013573158
0,603387016335543
0,544308637427527
0,59207328108485
0,6072851474364
0,543182454170551
0,513294635257212
0,520218960875519
0,513503984755474
0,501005658421207
0,558338391026324
0,498390199274024
0,493242182987933
0,518471126858391
0,518760608177223
0,464323310334378
0,518122476051063
0,541582037732955
0,59780612732218
0,550501606253756
0,540621177851275
0,589031982440759
0,560254493118335
0,469217830354056
0,503684620224532
0,594958906078654
0,623896078027499
0,479965228910203
0,457102184039415
0,492792443540253
0,551786985308425
0,499319794235842
0,596525257193926
0,600821289452377
0,438003559907759
0,469344545629211
0,694706943668445
0,744195172705732
0,547950585784212
0,347318382053959
0,338655946336354
0,494461163166865
0,642280462305644
0,549580730862409
0,557030742001304
0,648947080848191
0,627398771406361
0,470839771762292
0,451545831674192
0,525095605558577
0,474944505639509
0,605218775118054
0,667883810574524
0,368583222552601
0,438337789943476
0,391228964028921
0,683204810666476
0,92296811292106
0,63198116598433
0,373807785747464
