3596
4000,36533379555
650,420452594757
1
2
2
0,0381534039440439
0,0352377241733244
0,0408082707351118
0,0314566636336843
0,0422976206743988
0,0328398521046386
0,0421261320130862
0,0362395307362131
0,0308370437570791
0,0333451015226676
0,0357040773611304
0,0330789360797092
0,0391485542798561
0,0340483901841799
0,0299668787863871
0,0266384439893948
0,0408586548619998
0,032475825637726
0,0352427401947035
0,0334360041200103
0,0395959361760308
0,0302530769262587
0,035008170326665
0,029107918867284
0,037142986202742
0,0337703591303746
0,0368606768670352
0,0243103328389491
0,038472673876294
0,0349140630993419
0,0324448632711579
0,0277847530450526
0,0347740094927257
0,0324154701068544
0,0380490752515704
0,0341158076113365
0,042414710104908
0,0354646915721436
0,0288438490476882
0,0310954155277168
0,0396319954007826
0,0272674895131904
0,0348607002696806
0,0363352065235322
0,0337645192552649
0,0342229939325213
0,0404868462624895
0,0319131546512132
0,0334695509069613
0,0323892895792572
0,0354770638220366
0,0395200794573917
0,037588954687608
0,0339313154018849
0,0416424654400324
0,0232774941054207
0,0261772315442958
0,0286231593590368
0,0312508534666829
0,0300126397512479
0,0395838203930868
0,0324553860847032
0,0324905946372857
0,0242130852015744
0,0326130473173528
0,0302600671431774
0,0318165148960377
0,0335281738283963
0,0359376080409415
0,0273055629943578
0,0396396267882879
0,0235555715955096
0,0355274227893395
0,0221530174615216
0,0251593392243302
0,0241444391046098
0,0291727783560155
0,0280557181126896
0,0336717334948402
0,0238414768320795
0,0441048468526067
0,0276375112698416
0,033381953337079
0,0292039815559839
0,0334538462719442
0,0226105635179241
0,033924885874889
0,0222379886242123
0,0424046664202523
0,0265026746114184
0,0333497061286654
0,0285478083779459
0,0262565582318302
0,0215637725020985
0,0337863841830109
0,0242490323093952
0,0452354200050612
0,0171712082928438
0,0309140170251873
0,0200302634705826
0,0383116644155723
0,0246786491061584
0,0385243057172309
0,0428689642421664
0,0167893020425548
0,0241994310350398
0,0143501545086812
0,0210436891393646
0,0290173114981546
0,0258760909392651
0,02951643483062
0,0222384549797259
0,0389459666856525
0,0254850444992195
0,0371412924446914
0,0270318381673874
0,0407983088453288
0,0241940680223434
0,0284873270617112
0,0172273795129254
0,0429516030726472
0,0117111383653299
0,0278046578264717
0,0216080911252241
0,0182881871991343
0,0193421731978334
0,0416548252503922
0,0171893916939468
0,0284503077601275
0,0190065667242228
0,0314713577870675
0,0161040274587971
0,0317484226683086
0,0283817862294803
0,0298988649870352
0,0175102434737221
0,0207798584933489
0,0294135825940622
0,0252176333394241
0,0187247009939013
0,0271847312351754
0,0267277422950189
0,0382314077571775
0,0220651048219805
0,0329558146303133
0,023060059430129
0,0331095455979989
0,0089868641299418
0,0364007863738322
0,020290297778063
0,0262430866118379
0,0300848530753078
0,0240396893280223
0,0172336388533503
0,0481324416770481
-0,00491227948971732
0,0376674245578116
0,0316337119362876
0,0152938109491308
0,0274789127770901
0,0162787900260014
0,0274332646472137
0,0253539445498644
0,0327298035747251
0,0190216511676628
0,0257452398539541
0,0244648007040194
0,0344252147004766
0,0187627543176147
0,0265661735592365
0,0286095315121397
0,0207286665071866
0,0416642492333787
0,0122694658766845
0,0402929127313153
0,0130257428948677
0,0267215681466611
0,0151388701554598
0,0339461748006789
0,0151483024954852
0,0286900399466875
0,0222842665726303
0,0202326424557935
0,0316683653034726
0,022392515958752
0,0123542846253352
0,0308195877594969
0,0240039204357319
0,0242055461764008
0,0196105969222891
0,0300653669867392
0,0235164013916575
0,0245542211400152
0,0207432112908247
0,0169334689329773
0,0361004601676616
0,00792021989718832
0,0264787496438598
0,0231867836487521
0,0278550553030281
0,0231857772173022
0,0249087260991367
0,0283439941333349
0,0237195502904609
0,0237577400927953
0,0355787940347303
0,0420436522372277
0,0234460145267822
0,0113430025358095
0,0209501626363259
0,0213884115045469
0,0337817377153113
0,013581040578425
0,0221203467325874
0,0259278574101592
0,0232325337748656
0,027759868798539
0,0163206279821733
0,0284986788257412
0,0226160691583224
0,0266578689697882
0,0261167810648158
0,0191261191013811
0,0232425460488098
0,0303539609583775
0,0273962031141389
0,0359962584958589
0,0251825402087779
0,0246459799103595
0,0255756227767883
0,0292099380419142
0,029465110049067
0,0290586416002777
0,0254297751074438
0,0295592342318658
0,0181495827709688
0,0298863251217957
0,0267559176797847
0,0361211174957908
0,0300252823629672
0,0207757285237603
0,0278231399419535
0,0253633646184157
0,0267180738771745
0,0287744619390771
0,0340017502953391
0,0102499062330494
0,032468589819478
0,0114857411274714
0,033239865109567
0,0175710274668505
0,0320328041745535
0,0267077646996179
0,0312163809433514
0,0264961024837046
0,0355293536549461
0,0338954852357825
0,0250301563122051
0,0256964215303408
0,0320368777932295
0,0194050341688187
0,0305071655346608
0,0228577232225336
0,0189815377712469
0,0449268138046195
0,0101301494747289
0,0380689224348744
0,0401989146703785
0,0329374905446652
0,0345780661052546
0,0135037391077965
0,0325939662622868
0,0395774255953086
0,0235839063802749
0,0199547770396452
0,0220064796568391
0,0241888792310652
0,0294409581897383
0,0377636926472553
0,0240328932478439
0,0374493588795088
0,0259482927749223
0,0377220987739431
0,0584142680214987
0,0082414218733587
0,0428260457766338
-0,00206292884181937
0,0327521932958688
0,0304642878893265
0,0322749215794856
0,0306276844993538
0,0387301174450456
0,0244896966864278
0,0370752053251311
0,0229638727175265
0,0320893336871232
0,0490321380853487
0,0224665377407298
0,0330790378838698
0,0313551676675157
0,0352773178769441
0,0337957647497813
0,0286387619171128
0,0329889082860852
0,0443150027544209
0,0230899750272574
0,0308055740623367
0,0386207267582142
0,0169773603377757
0,0316228987863052
0,0355616359086755
0,0176380165957938
0,0371879776376262
0,0297328958035528
0,0343257862968019
0,0366393109068886
0,0354633257683248
0,0316355126997541
0,0514306251487896
0,0254976170142478
0,0412790566051048
0,0307553882983384
0,041190006898912
0,0408695862512381
0,0396428750721395
0,0410500671126343
0,041381374477382
0,0421325723953544
0,0424280265738736
0,0444700194066245
0,0440074352045591
0,0278658960016652
0,0558114856336496
0,0120646486758821
0,0452600212155889
0,0368529261347699
0,0343444746320585
0,0346858610321416
0,0409878029434934
0,0378259231657142
0,0470531358904431
0,0500119966777848
0,0504678201019118
0,0504494418105953
0,0469606998875522
0,0504153277638261
0,0656911684457014
0,0617966898310957
0,0373156177556508
0,047912870010935
0,049910576160604
0,0710070384779543
0,0449546931072357
0,0574468421782904
0,0655721728622264
0,0417864249936713
0,0584551577519291
0,0571290882807013
0,0673360142449845
0,0587599808836027
0,0641837102625275
0,0578084811875214
0,0713518868647453
0,0637510256139677
0,0728617759960295
0,0606926103326462
0,0796376177325879
0,0834322116154361
0,0577825723718214
0,0808791823042653
0,076895647039029
0,0740657615516593
0,0908564573696979
0,0752467430218944
0,0979526573816021
0,084600303631794
0,0773405159632783
0,103567263961018
0,0737265788573276
0,0871124348466786
0,0868082184231672
0,0976925011448686
0,0854340108679835
0,0944209627807266
0,100118902895718
0,0992845279951999
0,0964799190908855
0,110159935521589
0,0932127374538723
0,104584031120025
0,101566459552079
0,125666119168287
0,102844396322967
0,12448103034297
0,104061970356869
0,132181628593501
0,123214332290183
0,169316118455619
0,101479874650889
0,121539290321073
0,113470549967031
0,12041269980909
0,119017219057635
0,132104051509667
0,135804066475789
0,13340538098845
0,147596336521177
0,148042181900519
0,14165895870955
0,135130412815882
0,132016037129771
0,167823314594505
0,142280386628381
0,144275653899653
0,149900680036631
0,175997380021708
0,146005273580014
0,168046797031116
0,162408044467048
0,172577265382843
0,178666966325612
0,167653729964067
0,164947709499381
0,176240049680056
0,183769550493467
0,176819226179276
0,200391727528698
0,183968678770134
0,183726551863044
0,186504815903289
0,187449107572791
0,209454329953419
0,193701342748391
0,191872168444472
0,204673367944059
0,213418751812873
0,202435528044466
0,216332077255834
0,19969199983524
0,241183553727562
0,22212190759054
0,232720831899574
0,239387912548353
0,237989444402157
0,231874967156484
0,233480151775395
0,233494174519349
0,237242304666148
0,248049409037517
0,263955967477406
0,261765217572167
0,249026339416318
0,26956475657217
0,265811875109883
0,265282731112461
0,275479498124629
0,281674353937203
0,280642320929332
0,274460360604877
0,304839072847039
0,263733413136986
0,306587762752072
0,291637021338224
0,302590514641163
0,332614024579955
0,284256854291342
0,302656771954177
0,307620275795608
0,322345057104783
0,318640452593145
0,32078885505388
0,320506582579998
0,312009100065128
0,327440462647874
0,321553607859223
0,349473046150326
0,344004040481296
0,369466848895974
0,348118970507825
0,369935979264864
0,359862625140126
0,367817686763109
0,36101651764432
0,347731958935003
0,373375319249767
0,386350256840949
0,369823102488336
0,394461854810315
0,374365145184352
0,394872114653149
0,381172887546508
0,407146519074276
0,404057113090629
0,409826358810597
0,406264087933447
0,416958751498645
0,40977027666973
0,436148051297622
0,430815613711548
0,44058093857657
0,432040811798262
0,465197894694973
0,444990295500545
0,485766639850893
0,436654507362772
0,483226241296099
0,459641450244969
0,503117044134825
0,455903396620518
0,471116910547337
0,471579058979393
0,515125039332113
0,48451792232391
0,524883822622266
0,465271636852631
0,534684594888375
0,508869312479589
0,533461633851927
0,50093556793042
0,53368681860382
0,512523652915318
0,537494254988586
0,514490053833093
0,547666271580514
0,515510078469563
0,585380316179526
0,520045578409631
0,559804791724096
0,553987596426572
0,583970993671069
0,560203792443912
0,592919527784567
0,553493921942547
0,589242341916066
0,580776004153372
0,633508040751828
0,575839212879437
0,600913404047797
0,58268400887377
0,643157329128124
0,589398740527552
0,614929785064322
0,629489411230623
0,647718042173356
0,601507529335556
0,65961149494716
0,628942110036259
0,679161590258413
0,629839155532861
0,652016829424137
0,662363632077587
0,65959086337161
0,669068110704597
0,717151440226357
0,668390792485937
0,720064625254895
0,635706184514382
0,732238078541824
0,677126219824796
0,716158911754516
0,682109564874218
0,742466125871476
0,687681396725422
0,730277313342837
0,708348385247943
0,764698232174638
0,684687454378469
0,734938085225365
0,705281403075583
0,743566536908203
0,731474516780017
0,768181561109496
0,715081729610429
0,809654492191153
0,731684993086903
0,78359954378706
0,747099395727329
0,790546010248333
0,70929531125298
0,819806865450294
0,806742432681148
0,81673876740578
0,786516431513055
0,903834442731697
0,760811668693831
0,854240110870997
0,809357276951888
0,906521717271368
0,775827736324138
0,851423831043875
0,849757757014113
0,886525211559523
0,807379905915183
0,850663577789786
0,782409216786216
0,880489054553887
0,858082853911308
0,943545180594079
0,848542883205795
0,912780711621605
0,84338980156057
0,91261866949882
0,824162980830019
0,895548142259977
0,835705145310198
0,962257069721737
0,850153495434746
0,8727190100167
0,922033115387218
0,930287708502821
0,864983490228622
0,939129297449891
0,954465186772352
0,990665331501166
0,905858198097573
0,999194312922546
0,935493854788904
1,02062894036329
0,925343438770225
1,00601227828641
0,936817252613129
0,982986640788127
0,99262266947842
0,953885879117376
0,95828781649335
0,993178202869514
0,941528013127566
1,04111312070981
0,913460019005343
1,02409276522049
0,916189655970122
1,04668853360825
0,925344267550026
1,07070229635164
0,94047764476306
1,10549925759838
0,920562422621274
0,995269465946583
0,964273745681597
1,12162097892601
0,954626752092924
1,03547548602704
0,996809784740862
1,07930168329159
1,00978299441866
0,977504351245774
1,00531575131946
1,12294468251442
1,00871753825714
1,14540861771907
0,970417718174562
1,02520797177267
0,954633254229457
1,03011401349187
1,0361945730305
1,15793444546582
1,03706082889383
1,16437702470835
1,05031995480902
1,17398132999073
1,12253912687345
1,09263108820844
1,05956028339109
1,05743569979079
1,03185860802435
1,17724701948307
1,07087472948697
1,2026253613995
1,09597429090472
1,13559398060441
1,02704150621922
1,1751206337902
1,10559734530221
1,17768526422577
1,06385739511156
1,14792481105275
1,05559467883652
1,19943522915054
1,05200967610406
1,25803220382945
1,18743849875002
1,2340623251701
1,03538818875369
1,20158143642491
1,11505179885525
1,29059321726842
1,07484843877491
1,13816347961992
1,14587463746656
1,15952468389466
1,09544666236183
1,21456082240225
1,07550354389057
1,21920232699145
1,14074701614384
1,23424101944863
1,16187495984837
1,15647789950616
1,17537235191474
1,18792020905665
1,13955483154571
1,18606180432156
1,10326921880673
1,24217447379901
1,08202678008457
1,27251941377
1,16919270468599
1,19976997520408
1,09196763740415
1,1729097468947
1,11651516228461
1,15675840350141
1,09114692746751
1,21354742253373
1,21447519285864
1,24340035273454
1,16086461618496
1,23122812299428
1,15739934927536
1,14111268799387
1,30398102181568
1,2402416910923
1,09007721890885
1,22638727770382
1,17911597088336
1,27457226447674
1,25257407538359
1,25565127981015
1,19666640168733
1,21189694803509
1,18477131909447
1,2778792301401
1,20892185061396
1,28565878539887
1,24982307975373
1,19956725124929
1,15854175601858
1,17507446106714
1,12099598895437
1,18175662488619
1,10666571547232
1,15503850504568
1,21935937646329
1,22767875787413
1,13702185603943
1,26434385775808
1,15361980526784
1,25429807463501
1,17457683875923
1,20248469396452
1,19834787418772
1,26415883721628
1,16597250294575
1,21928852490101
1,22792536767145
1,18331464818828
1,13879322859111
1,25985515597814
1,13047810639847
1,27059628812784
1,10824304901222
1,20332284621716
1,20470706383624
1,33615245613393
1,20879317171424
1,23154750234946
1,19993144539219
1,23071432930455
1,18937589058411
1,33083052606119
1,0973898000418
1,24217498071143
1,20741826039488
1,26720450606535
1,19499171661331
1,11358188882639
1,24145310146997
1,21643109926892
1,140003617934
1,25170569452694
1,18480507196188
1,20513441621879
1,14341659494631
1,22608624126031
1,11427952707074
1,1885640763557
1,17708912004339
1,22963729670572
1,20123619772017
1,2092031245286
1,19866947621895
1,17992182285496
1,22342952789986
1,2013211700217
1,08946329820181
1,21360655840721
1,15551894804244
1,21350050261873
1,10753544795707
1,20376880908632
1,10430149323925
1,2287481991478
1,12319539423152
1,13803565533391
1,14004159483101
1,18503163786622
1,14164475841059
1,19831078504998
1,1163995132018
1,25812441321471
1,099545124704
1,17558774805661
1,11557156893305
1,11366769297011
1,09817420496824
1,15293251285477
1,09391410100362
1,12433815369878
1,09038756246491
1,13033634011942
1,11538899548695
1,1242599498061
1,1324816293217
1,15838894327195
1,05425125734485
1,10975450821531
1,07791266925196
1,10285690586438
1,04730721175646
1,14141701714127
1,05501386380239
1,07482132916046
1,06146722750597
1,07292832643042
1,13641246057819
1,13965672690131
1,04123261157421
1,09061334844234
1,11900432911484
1,08915208688566
1,0931416777998
1,07275841906858
1,05663803363761
1,06450403563347
1,02734338975008
1,11744400893558
1,04318636770684
1,09095057963057
1,05330260716748
1,07356906806068
1,0372591403756
1,03590088376598
1,02581790741393
1,06086513592715
1,01251407753439
1,03271369497213
0,987374411707532
1,06492817540701
1,01970837395562
1,00489595489202
1,01547555218986
1,02359213678053
0,956710807939225
1,01902079521608
0,992305414262095
1,01084975707906
1,0011863200813
1,00457051473841
0,964258282280048
0,971919792280364
0,952116977635377
1,00634796364769
0,970739633836707
0,957539288162249
0,964120987803938
0,970410551919257
0,952667530342045
0,995799815287282
0,909317421252148
0,953248093361571
0,89934995298769
0,943164781964197
0,918336813448951
0,906686227236383
0,915370504600047
0,935893668361539
0,93147888162362
0,934045679326321
0,902785052710128
0,884834943829815
0,879330248522017
0,920073038350972
0,891002393109259
0,897783140156445
0,883169228783109
0,909546967385542
0,843698916789782
0,892015533340799
0,859480040673753
0,871306137288889
0,85035097710372
0,873792928084006
0,852460051909635
0,850132208527875
0,827362561621422
0,892360870539736
0,842888423090234
0,860229291593728
0,839686507387142
0,827546488862789
0,817503376604049
0,840908804542681
0,801856435627587
0,819484318052849
0,804710911862353
0,820280851453319
0,80835862764727
0,795906453739645
0,781636833840009
0,776575226197943
0,773456773583711
0,806989604063778
0,787900159805707
0,795704612575781
0,759046967994702
0,780449621275036
0,754138564873648
0,770064025743619
0,756805320904437
0,777686462713308
0,757478124847149
0,764780398074998
0,750792768066422
0,746865479273035
0,731351517366674
0,763398905724024
0,739640545569811
0,734035072763042
0,730576701932563
0,741761882877891
0,718125772871022
0,721255731757348
0,712574745968235
0,707817588643102
0,702246419136376
0,70432174929254
0,688130593955232
0,692700085672869
0,689896879191779
0,69036764524676
0,674148487403789
0,702424924957206
0,67750710373388
0,672357811289107
0,664286686541224
0,676882072216553
0,667933582569679
0,672729690772622
0,650843132694659
0,658799570951912
0,65640663472137
0,667291486464249
0,651328381792917
0,663193322951285
0,651924137754423
0,64150381593408
0,634663914806348
0,639369646740014
0,638065419595065
0,64333010239987
0,624889370555623
0,628921277972927
0,610425652677286
0,628460415871286
0,61415109775335
0,607628555966424
0,589700278115019
0,615644906762131
0,614232628384515
0,613999772533407
0,60821523807283
0,597202525450472
0,595380667586552
0,590576283832668
0,583310818424119
0,58585471221246
0,581024271854999
0,585389166005571
0,579436630504333
0,584098242617439
0,574518979354667
0,589234246323904
0,560826450194184
0,577589116474326
0,564876249410505
0,569067309154324
0,558822228137548
0,560209459329439
0,553026933354992
0,575178993442187
0,548721236484137
0,538473721517484
0,541432427302075
0,544540910989378
0,527160537188635
0,543852163774439
0,530420462288468
0,542616226416809
0,536247253467641
0,528407957125828
0,524917710259497
0,528929663791324
0,524398396130675
0,518241332348667
0,507947746372485
0,515494127117267
0,503651204715692
0,514912936401371
0,498403763700368
0,504593903123303
0,497835001869895
0,496454335262908
0,500380267027016
0,501614339207938
0,502668504673788
0,491493237308535
0,482647661809364
0,489209780533163
0,478372913868527
0,486933711399256
0,475701710793268
0,474628739851238
0,472336722324065
0,467020958387988
0,46799031753369
0,476233250477374
0,457226798633178
0,468806898440976
0,462367184013217
0,453111628977272
0,453788213457508
0,455919723569087
0,456965834851778
0,4590904178309
0,441815627099299
0,450280940701823
0,447086200278222
0,44314557410563
0,437091248536955
0,435421459204553
0,434241851292856
0,440366202629277
0,432025592016582
0,433530723818706
0,428787813452211
0,435626322690828
0,427742794831087
0,422072989422875
0,422786756221179
0,428002344097232
0,415628530479381
0,423038022082873
0,416450602734238
0,415777476317794
0,4151317506185
0,420712937077113
0,410809986301252
0,412358341962762
0,40701369547417
0,413098586204924
0,405299205557517
0,409845630330165
0,401530670985455
0,412133238491061
0,400400922079457
0,40401470986724
0,406932080475545
0,411315754987159
0,402626015935673
0,408485410240077
0,395408245414138
0,401431370426941
0,402970060961872
0,407730441092792
0,403628040439128
0,409436053414181
0,411285371106203
0,408863353894822
0,399568457528641
0,404459104667422
0,401849057432402
0,408462676682062
0,406271734516476
0,414904620919913
0,413940351589159
0,41075764270791
0,420114612441367
0,425434535121663
0,418119131756626
0,426907166388715
0,422461884599507
0,423689921590621
0,430214858424327
0,431372107722308
0,429050830337587
0,43892374345441
0,428777620720466
0,43639817746219
0,443199865158068
0,446496782671737
0,441616592455781
0,448756231216102
0,451454025053467
0,453325829387875
0,454006586172661
0,460945260940751
0,459536128235646
0,467405509656222
0,470996688662152
0,465803511305474
0,461502689171732
0,480755938265729
0,470726524439657
0,47014841492394
0,470314931671553
0,483894076430704
0,481188124253761
0,484076410921112
0,480877352420016
0,488102715678829
0,491950792103949
0,489459204931893
0,493194167429639
0,505001291343086
0,500883672242449
0,502301858007008
0,509741481895384
0,516387509479251
0,515905860812134
0,520140786974578
0,515604587342831
0,530367645998595
0,529562934519869
0,53634560383185
0,536445336391699
0,536760480304216
0,551224889146362
0,56326883242773
0,546448443913104
0,551091404782725
0,550066777536916
0,549849413014912
0,549589580331003
0,550526395253237
0,545175403284594
0,562717403233195
0,555524290571254
0,555586441814129
0,563240491804692
0,547549002214286
0,548841104701839
0,562546620701517
0,554901824333474
0,557902186767897
0,553312712133046
0,556651163926075
0,547484182545239
0,546962266198559
0,5454571736911
0,543481103400577
0,539458296340552
0,531637530383036
0,528876582807967
0,537304210769083
0,548251227255472
0,549632098321966
0,525635081182811
0,535917983304647
0,540377985947123
0,541997576987961
0,536592973914646
0,535672443557574
0,541281148789295
0,538834493036626
0,536737120267723
0,546624996727233
0,540969552695833
0,539250777531245
0,539028071543738
0,542299354216208
0,538524578122673
0,538510469324734
0,536790269090597
0,535542466189905
0,53222591466978
0,538076631946413
0,534112621615764
0,530290177475218
0,531434602537692
0,535685209287675
0,536375516898917
0,537086177710372
0,529122644868428
0,530368220240207
0,522577488659612
0,525885766946022
0,526976133231826
0,532299797287467
0,527682316523788
0,517827997051321
0,521245836472931
0,52354366809793
0,515305964521296
0,522403073167944
0,522608961120882
0,511486885962279
0,512442779147592
0,510646619938467
0,498658475423287
0,497149203211506
0,485751333305604
0,488050584470148
0,486423997866456
0,488386374753615
0,483078981270305
0,467888549663681
0,475500596623857
0,474385790755101
0,470195604051539
0,477637806925533
0,471909566987672
0,466108801082039
0,464565060550621
0,462054526555299
0,45396742351366
0,450522973616945
0,445399810302181
0,446318567279094
0,433936123937464
0,438844373164462
0,436297529282259
0,42797836976599
0,424092498884272
0,417904216373438
0,415577380128241
0,415352342952833
0,41315084180299
0,41369444539605
0,412610442705565
0,4054604878784
0,403239403882845
0,403014387894679
0,399595529988382
0,397156727059574
0,395086058931864
0,397686444495531
0,389935903550569
0,383687722443103
0,386047483309839
0,388051983743764
0,38602674482076
0,383780345552664
0,380500076307243
0,383523962522315
0,376136510596726
0,376590632376835
0,375094243965413
0,369638713206532
0,365548148074923
0,371310673461751
0,37403094167855
0,367024762046431
0,358654163081148
0,359476242932045
0,362214563653979
0,362567904888898
0,360601087654378
0,359053400332667
0,349466297574626
0,355144876746439
0,356322527114362
0,354118535696211
0,354022115260772
0,351003981368775
0,354698496929133
0,355603137033446
0,348392801193032
0,35012691998435
0,341895436854411
0,339269036115196
0,34355981347734
0,341373175609882
0,336879707541528
0,337895897787091
0,337545113357254
0,337765283912531
0,338300257383067
0,336889510753146
0,336215876459611
0,334212126442384
0,32930000619747
0,334503569321751
0,333241173268775
0,328681823465626
0,333465237591638
0,329935277103752
0,327161241344293
0,329513065462531
0,328190308911032
0,320483851281068
0,319550987165565
0,328576940365294
0,324906579717414
0,319930275156902
0,320108853990568
0,32026494746335
0,317438136455105
0,32027810076018
0,320910028700453
0,316576624598654
0,316863622551614
0,309747447332688
0,313418191729671
0,317331995569187
0,312724337845446
0,312405123327648
0,310927219013021
0,315794411221759
0,311520287465717
0,306058350184499
0,309020909437651
0,305327618832345
0,310871175865551
0,313402759421959
0,307884528586065
0,304005380991693
0,304088555854401
0,305743370185804
0,303991869991459
0,298455402692452
0,298959841754401
0,300220167077888
0,300845737925139
0,300163461497491
0,304716443698171
0,307161566519425
0,301700519812851
0,300275880341808
0,302204884176452
0,298138103340915
0,298301917895918
0,298017828846115
0,295725282444313
0,295538192482171
0,298819337526105
0,297718242531149
0,296594128785227
0,29440272971867
0,296150851828747
0,296275369153692
0,295225868969836
0,290737463241033
0,294802400911221
0,29531729282754
0,294763298328164
0,294329977950998
0,29204660593434
0,293953267588977
0,292996610214328
0,294944990979789
0,293820523804012
0,286121093294664
0,288799718196484
0,290259645965114
0,287490921198646
0,292276997505018
0,290546471985155
0,280670459376262
0,284911430902074
0,290026127447608
0,284273582792339
0,287447613513839
0,285030812284
0,282703302103649
0,283572178684265
0,285893882654514
0,283047307384571
0,282738705729099
0,282529366738865
0,279748682435417
0,280167110032481
0,281654671740588
0,278748298263746
0,278611226132482
0,278476389768169
0,276340265746112
0,277107190388804
0,277012186200047
0,272282719318434
0,275313595431231
0,27821843839838
0,269649629732037
0,271356101583673
0,272896518392282
0,271186879355293
0,274750578949886
0,271611405382377
0,270010874617178
0,275112419612125
0,272352699126935
0,273150750651958
0,272907115317877
0,266986083053153
0,261052801890506
0,269134590247291
0,264109119128892
0,265224818632563
0,262287538686052
0,26252518415839
0,26887593536745
0,264730300434905
0,265151428879156
0,26510616782977
0,26416541506384
0,258765060245405
0,260860614679859
0,259954783937804
0,257375365208095
0,259357982225688
0,256625466638545
0,256551162363725
0,258117013571789
0,259145183431484
0,254468159303204
0,257223623495743
0,249317620768599
0,257479719205304
0,25339849550531
0,252536914188426
0,252733537466247
0,254849106986098
0,24881242722846
0,24858677432245
0,248663530783763
0,252220252985105
0,246598961596645
0,250686839332861
0,245514654440253
0,241357498306244
0,239694943454132
0,242742261203286
0,246776018152148
0,241343337004066
0,240334397032431
0,241154407345727
0,234155413201514
0,23629002012251
0,235275345048705
0,240500451228211
0,238554708907706
0,236461132880505
0,236638423708027
0,229541413775452
0,231864936639938
0,228286894301299
0,234663290730398
0,232735166718017
0,23188803256074
0,227547272299874
0,230201639881816
0,230433898826111
0,225689640877127
0,229042386996398
0,226945995726817
0,229356865832331
0,226106217264757
0,222005287770299
0,222548201367279
0,223775703686434
0,220072128407598
0,224996453140504
0,221066050562243
0,222530627011766
0,220222176832756
0,219660025442014
0,222482560313642
0,222299353211433
0,219472726474454
0,217098072919526
0,211941557934136
0,216964491369974
0,217196078468338
0,219215822038343
0,213333824726889
0,212352586393885
0,213765930388561
0,214610801908202
0,212182521648472
0,206743398262025
0,211199033472257
0,215989049851994
0,206742543038737
0,209223361881018
0,209409491058396
0,209653747153156
0,209000304772947
0,205576486974954
0,206423762377951
0,207277157670698
0,206603596793462
0,203902964191637
0,205667854874283
0,203477937867891
0,201967621250387
0,206768491474968
0,2014819329698
0,200794121808128
0,2035869457944
0,205506991502891
0,19803013316826
0,198252312310322
0,202810765739992
0,199162680884547
0,195610288492454
0,196185351592274
0,195275388661854
0,199054317312972
0,19617524979157
0,20015940164258
0,198696770348668
0,196785469823588
0,197633426689418
0,196817904123542
0,194695128912156
0,197265013606895
0,194707781361234
0,193839252128971
0,196960413347697
0,197445193017218
0,194094551411112
0,194991230106843
0,194402918128679
0,194193663470131
0,190486360047587
0,19352884227142
0,194049630367993
0,194868206943922
0,191506185077278
0,192939694628574
0,192967193402305
0,187534738876287
0,186222738958039
0,192379260855383
0,189490171328765
0,192818107124933
0,190389326747535
0,189854722500089
0,188203166004941
0,186813611505252
0,186047807267061
0,187934463687071
0,181585730019564
0,182631716312925
0,184622181348932
0,187988091750029
0,185472268816947
0,183443894438026
0,183010155775189
0,184839033513269
0,185759211988336
0,18260616519414
0,184591597499224
0,182112715074523
0,184993624573869
0,1836431134988
0,181645053960607
0,183052953572909
0,178184536331659
0,184588759382092
0,180068950770873
0,179840262894354
0,177147581173383
0,17820849085475
0,181033161128006
0,178699843725386
0,175222752009329
0,178120199265373
0,175488444016198
0,181024542850615
0,177861786800303
0,177095515461138
0,17877041290696
0,173096152387101
0,175199204783995
0,172758887017239
0,173448222488521
0,17637750483453
0,17414817580834
0,174313393685468
0,171170392931965
0,176301803762143
0,177179508843318
0,17469081182738
0,170073846835568
0,174054419872773
0,172713986651485
0,172278094710567
0,171183943535067
0,174869935039782
0,172380836388622
0,171670693473664
0,168498760211042
0,170424021424627
0,171918096544056
0,172951835094919
0,16673946033169
0,170312505712304
0,167688768652738
0,165107515147614
0,165518220292841
0,164794350751193
0,163859413962385
0,163577542811826
0,165200642177803
0,168910782416602
0,163592475404836
0,166473345878664
0,16295053517064
0,161937065183475
0,160425260431191
0,162413042367361
0,159458807875494
0,16504506269768
0,161155672021738
0,164012831724621
0,155529643924205
0,161090161143294
0,157642893246467
0,158649992914416
0,16009555445876
0,153645349677936
0,157868468365792
0,156959696588101
0,156143616053629
0,155954845870454
0,156339352149697
0,154427727950042
0,149305264469479
0,152827661123477
0,150098826049066
0,155216854698357
0,146905426127209
0,150300421588012
0,150820252593747
0,153498813955617
0,147536394602817
0,148298370526522
0,147809350300024
0,148306454975065
0,147748650334636
0,15125807535787
0,144701109441272
0,14759962625332
0,146963410111295
0,145013358375755
0,14380008807017
0,147982593746827
0,142611289981477
0,143775867718982
0,141568011346225
0,14220822189444
0,141846168327382
0,139396349445679
0,140467867403165
0,140647512260719
0,140637148239789
0,140906867973642
0,137910855256068
0,136481879450174
0,138811618077243
0,142469061577971
0,136359760999682
0,140399286146004
0,134775213702945
0,138280795843718
0,13689229947047
0,136860274474639
0,133047837532233
0,135250874179445
0,13515430537496
0,132030579965828
0,130696327607078
0,130357251727864
0,132765711776716
0,133659991385248
0,132253664010774
0,132681188423988
0,129071099248741
0,129855347358601
0,125951331262687
0,129492470920223
0,129613790844566
0,128685145986811
0,126697705246686
0,127393112097914
0,127977300400056
0,125853026076768
0,124451163762011
0,125564167973325
0,123032162552288
0,124181622377448
0,126290018411292
0,127709991168699
0,12242458249031
0,123569822146704
0,120991613752822
0,125918903693415
0,121910304833626
0,124223704620083
0,116443047648042
0,121823769218493
0,120000950518667
0,119709958819375
0,12094904821199
0,120904720651413
0,119050303311134
0,11927885182782
0,117456080778266
0,119237515125962
0,119368970889969
0,120408184125792
0,113552063577569
0,121562362044963
0,113321757311115
0,117831178948778
0,115616765472371
0,117611043278503
0,117679065952141
0,116341137688383
0,112503708115696
0,115996231444812
0,113487455476321
0,115690560409834
0,112888774880931
0,116311225697257
0,108030703130594
0,113195913744564
0,112384334299891
0,115191639942182
0,113019715845842
0,117351039160063
0,104073840554027
0,111705314699667
0,103100305520778
0,109325278685578
0,10747694372996
0,107147362212272
0,10206386379211
0,113027009538104
0,108298788395112
0,112053250504824
0,106106702233819
0,110365675830756
0,107086863630539
0,109543347061876
0,107597945315745
0,106615780195505
0,101449920796781
0,112984392823291
0,103352559393877
0,109768261693525
0,104406258241084
0,109121102225107
0,100431162523901
0,110587473970174
0,102704127004141
0,108523304642393
0,101627826717966
0,107487411294394
0,0981131792868847
0,103590058424702
0,101959510239156
0,105920564190388
0,101350199508607
0,110098772395423
0,101105989487411
0,109041795696808
0,10025966913963
0,106180129791448
0,0980653780441281
0,10323951658855
0,0957614549803181
0,106471722001212
0,104110568851089
0,100303417881928
0,0956630658033724
0,098278689143237
0,102290614241387
0,0974552673252519
0,107231170576164
0,0944698423738537
0,114908473827157
0,0912642168564157
0,113499776209516
0,0868129405881226
0,11443542825761
0,0893784271159086
0,113567795911872
0,0863889287388287
0,108665077679695
0,0958244732135641
0,104091271028614
0,0941049108095648
0,10169385190532
0,0975770904227254
0,0999892366588325
0,0992686121437906
0,0986034627158616
0,102133930238898
0,0995516838347032
0,0958688231097693
0,0976521396305252
0,095933771110229
0,100535497913094
0,095975867523037
0,0980577565403179
0,0971547947826972
0,100802822982636
0,096142726039045
0,10014817017353
0,0974001606314182
0,0961786899319629
0,0965645665654308
0,0990943184772774
0,100856046998235
0,0979721029775079
0,095835726522562
0,0984804744716571
0,0965091012794607
0,0955549546370499
0,0961083615633932
0,0981538475664518
0,0974099085394895
0,0960097075838712
0,0968830250848341
0,0970201046784819
0,0965276577866387
0,0972208752058692
0,0961844862623707
0,0976113279740161
0,0969738859396756
0,0966835313178318
0,09687119427742
0,096287459485852
0,0937445864707276
0,0963179715867791
0,0936112088822771
0,0979205246316205
0,0967844030697136
0,0951094644652143
0,0978870831038897
0,095978995627493
0,0931363372929217
0,0973648057633198
0,0950283645888494
0,0962070521969405
0,0939894596874233
0,0970128535662031
0,0962828610618389
0,095278287557126
0,0973929260414889
0,0958474239969666
0,0959532159519807
0,0962641131923785
0,0943728940071712
0,0974060178853348
0,0945175218344522
0,0932587116138596
0,0963448379091661
0,097920486233335
0,0950332411165047
0,092976595014032
0,0944302423500319
0,094431930024146
0,0981261427570015
0,0955587345306008
0,0924541775155363
0,0937809412305532
0,0963386850887935
0,095104975640042
0,0954053972266787
0,0960482364826093
0,0952407800080527
0,0955298261612971
0,095551268599442
0,0924052161918932
0,0965433557485474
0,0978303552188662
0,0966002625005838
0,0969245832274304
0,0950296896541114
0,0951425548638806
0,0957809622147919
0,0931569882140914
0,0964814164243837
0,096370017925088
0,0957790439515865
0,0965951768642087
0,0972109650423011
0,0963618897264317
0,0957778788366947
0,096448640864701
0,0977498661699274
0,0968224568127935
0,0939311323831855
0,096672987577848
0,0957577692933063
0,0965831409288747
0,0945568477211495
0,0968194201399173
0,0948560076976289
0,0958864385337844
0,0981840679444654
0,0961177450071416
0,0985442162574868
0,100610838930275
0,0973945311132628
0,0937103393021763
0,0969866828539462
0,0977353455712983
0,0981278135930068
0,0956193339057824
0,0977756895559941
0,09802083146918
0,0965796690277441
0,0984750656798126
0,097486924211308
0,0991262251304703
0,0965594384157974
0,0979994613145742
0,0990627627995794
0,0974089332634239
0,100665738634687
0,0987215709384216
0,0991088184945222
0,0958832254323723
0,0992846095512021
0,0968229826677097
0,0945348579153749
0,0989476334000748
0,100841490454746
0,0984064302318404
0,0982444043604126
0,0983705196551151
0,0974026172889498
0,0981806205523409
0,0983011724329509
0,0978473011441355
0,0975477123266966
0,0984796949254693
0,0988185290138133
0,0957499929797173
0,10021618681169
0,0994813215165683
0,0979766438890363
0,0993191424056164
0,099118659540517
0,0991973632421868
0,102771623997114
0,0995331052022268
0,101573579612065
0,0984953139149187
0,0999351690198867
0,10217116342148
0,100330760202804
0,100643202348616
0,101301096075127
0,103489542821912
0,10029363945602
0,101262628990872
0,103374994084399
0,103174167238803
0,103044232077368
0,100906048044888
0,0965840147833369
0,102090524897098
0,102920982837768
0,101373779210325
0,0988581644318738
0,100940450560354
0,0995318412865209
0,102363094116433
0,0996757619693246
0,0973563355395716
0,100702100851979
0,0968345634227803
0,0983435813158135
0,0988284584723991
0,0995616670139234
0,0984722862126108
0,100817536661685
0,0970329189944928
0,0976782519783617
0,096990885987464
0,0978895730515678
0,0978075271715553
0,097699152602153
0,097325849696572
0,0955571751247762
0,0956037325059808
0,0951417277142337
0,0981545915334558
0,0976048820310669
0,0947883092043867
0,0959077468252053
0,095186852095398
0,0980880553388901
0,0959112005150151
0,0975513127409965
0,0955248489278436
0,0977504245350888
0,0960285840977325
0,096334917662049
0,0935033921421678
0,0946604874691148
0,0939219125940195
0,0986727069887156
0,0936794236308114
0,0958795113417051
0,0948971121609578
0,0950181478626783
0,0941270264542922
0,0911943059448156
0,0907203197902984
0,0923297309873864
0,0922354762226428
0,0935598106248795
0,0933014167700435
0,0925849739033725
0,0946199825341648
0,0930872237931277
0,0923775536875779
0,0947684197789521
0,0925170217481288
0,0927614275286879
0,0934152759930001
0,0930937686858913
0,0890237959606606
0,0945059277426184
0,0922796286539864
0,0933167509496478
0,0906910341251419
0,0903837140258875
0,0892614094443161
0,0929064178400682
0,0935944086637566
0,0912544443511259
0,0918887148498832
0,0916783619520732
0,0919563303166525
0,0901031816765972
0,0905754701848565
0,08927711106522
0,089658716818241
0,0925002331782248
0,0918832979034721
0,0916105314842581
0,0917553544058637
0,0905882159091273
0,0894422613025513
0,0911387943052543
0,0912327928090299
0,0918066122186565
0,0894121433085348
0,0912418022555099
0,0894674327011564
0,0933704596766073
0,0912634517633403
0,0868530256363707
0,0924321735277301
0,0910750242422295
0,0882911329144015
0,0889165613147682
0,0881744312344929
0,0890173497752527
0,0909734259944783
0,0910274363624645
0,0894535960333587
0,0873562772814081
0,0892398473424864
0,088477259945728
0,087268778146746
0,0874622667627372
0,0872911630175677
0,0875675484127988
0,0884151806070092
0,0875746717146329
0,0864074979150291
0,0875079600168132
0,0879125720370216
0,0872592467680472
0,0863399198030241
0,0880404145076598
0,0870168250443216
0,0862672688838782
0,0846049389506352
0,0858501177332854
0,0847400902529741
0,0856241388684151
0,0863498795509889
0,0851981031180509
0,0813192760281943
0,0843575776868148
0,0830993957131693
0,0840811011507181
0,0837274122528856
0,0823436899070568
0,0815541814647836
0,0821200090133481
0,0827012018863731
0,0835649442822095
0,0825227652428653
0,0827232722630584
0,0826010947722463
0,0804947256878961
0,0800978162169398
0,0832224154780198
0,0777882909878275
0,0809956971409305
0,0805820410319057
0,0801860532338971
0,0788498090626031
0,0795066015434322
0,0794426693116073
0,077254117354364
0,0798181063451566
0,0771609240636144
0,0765566821712679
0,0783782964519246
0,076072136340313
0,0777520350724706
0,0771038634561949
0,0765606899239661
0,0751764801511754
0,0769994031792777
0,0747006516380623
0,0769017718859402
0,0737592536421785
0,0753929570157731
0,0729338179189989
0,076280606123049
0,0733449526635983
0,0756768998649499
0,0735514487657421
0,0718187151408022
0,0749427483102098
0,0749574917103297
0,0753959976027113
0,0735507005901995
0,0724692681287887
0,071967223974951
0,0745039544138533
0,0717499568314938
0,071992034245926
0,0722991733785104
0,071659557287675
0,0718169432417942
0,0710421732436976
0,0714539597213571
0,0746182949995315
0,072272259070601
0,0720104954309298
0,073456512277822
0,0713487321917326
0,0690620966605929
0,0710434198994334
0,0708171824606498
0,0703228682674686
0,0710026859960188
0,0726424957711303
0,0714933314219087
0,0704431266078658
0,0687718410194803
0,0699022769793599
0,0704929514953432
0,0706733326680089
0,0693123916092398
0,0687753503925895
0,0688059606227346
0,0679709772349025
0,0687056811935938
0,070939251586253
0,0693505540910037
0,0656565772778426
0,0694776755234535
0,0688419240794834
0,0674793255368498
0,068253817786062
0,0676925600974937
0,0677004218122525
0,064836163365235
0,06792664473689
0,0677528618037573
0,067301539373849
0,0669510189248714
0,0670129117317354
0,066588951995507
0,0667424570340164
0,069814879522158
0,0622526965569656
0,0678305615519997
0,0638805736340313
0,0683421939792458
0,0657045739671015
0,0640364666610431
0,0644459301616118
0,0670495858098544
0,064953206019825
0,0680131796883085
0,0623382898222862
0,0650419194430369
0,0648591142204702
0,0637877832034519
0,0616727891355009
0,0653161761008976
0,0631836656163293
0,0638947337966339
0,0643808559431518
0,066709481111284
0,0644862859403957
0,0644164076327332
0,0638625589270795
0,0655199129671104
0,0619209794379447
0,0721922908305414
0,0628993837745768
0,0662153571487164
0,0629679237609064
0,0626796728709176
0,0645641115857831
0,0658491838523998
0,0653268882335122
0,0653416386214781
0,0646557262274712
0,060340633893165
0,0647266496606753
0,0624457750578109
0,0653564713976738
0,0640320377267829
0,0653593239071986
0,0629724721433351
0,0634343839573959
0,0637776795102148
0,0612991428318856
0,0616740362242856
0,0622601700300044
0,0643007462074219
0,0623681762677213
0,0621995568811142
0,0634469279502412
0,0620815898739645
0,0631619382780874
0,0619080452477541
0,0636250973092001
0,0639614132133344
0,0679144086187723
0,0569021916699696
0,065133291171903
0,062372836426643
0,0621963728180618
0,0621242491979142
0,0614922810333228
0,0625325149943472
0,0615587025350534
0,0595209365598493
0,0634015761628283
0,0633119900018445
0,063589624110142
0,0621777807489734
0,0616635127729226
0,0643913303140715
0,0636880849600586
0,0631718460115482
0,0611285805973424
0,0634876715305814
0,0617951102493343
0,0622855616281489
0,0645960369780509
0,0611900744445737
0,0653689835193576
0,0603978322299485
0,0624176914429202
0,0595129413028009
0,0626570652170179
0,0613140179524562
0,0630081684059197
0,0614369304385767
0,0632679215715025
0,0624566126896372
0,061823770540203
0,0632836159839739
0,0651254257007004
0,0601205019459322
0,0660107398973575
0,0617612292694414
0,062402805134984
0,0586321851332604
0,0655126487665798
0,0603995049056022
0,063171561345907
0,0626624859750468
0,0653136499316487
0,0615149562781628
0,0641512529363855
0,0644523250008222
0,0607510911317706
0,0684431604457331
0,0599708326400133
0,0624559937569269
0,0616352540711398
0,0627786117099658
0,0647939889722351
0,0640381371436896
0,062386954735531
0,0650047513779695
0,0631120093927795
0,0633469661821901
0,0623178460382623
0,0604532669230034
0,0644271987390201
0,0636541626299482
0,0647736469320234
0,0663502346428148
0,0586280132721667
0,0723574523709788
0,0628491998087812
0,0677267003738451
0,0661127943493227
0,0648621116440064
0,0663955244177775
0,0665852518856114
0,0674651163376777
0,0676463922561128
0,0669058133065207
0,0647062314218321
0,0652477566472809
0,0658870577744235
0,0679006866631175
0,0670219497934726
0,066173258534517
0,067314454896779
0,0663012939492776
0,0678726817015935
0,0683539950008034
0,0660274276937371
0,0693494972555023
0,067120452166098
0,0678864519950131
0,0682696960508075
0,0698906996619935
0,0680577970173055
0,0749065175294518
0,0717334234244276
0,0680185648200521
0,0719876434613824
0,0721584103053391
0,0700551403494514
0,070978432759789
0,0649578783649739
0,0802599870586702
0,0664172902107181
0,0790473862912003
0,0682212751592551
0,0734484493787316
0,0679314547834663
0,0731744797950718
0,0667764980421304
0,0750968463820913
0,0703602512966763
0,070666291191816
0,072910802557672
0,0717766072971592
0,0760138401838392
0,0716764085815384
0,0754082480601914
0,0723641288295094
0,0758570295527923
0,0757984899517418
0,0787216307057356
0,0727628028324336
0,0841175818091339
0,0786473554838017
0,0773194434152853
0,080188458999944
0,0774694049150123
0,08598890409433
0,080480721264677
0,0788120630580681
0,080559568916332
0,0792969776983052
0,0845625599199444
0,0797327466957403
0,088635151687392
0,082616841592119
0,0807592103519089
0,0865034269385858
0,0832433446494767
0,0888777600222174
0,0935986205260347
0,0919379512052206
0,0923651045261336
0,0962660920592753
0,0986960441129819
0,0968454067012435
0,107750943289397
0,0950737235112534
0,11493875231857
0,0983241683303605
0,113599690237544
0,103241328965541
0,110207807155469
0,106220688957556
0,115769098085849
0,106624652272352
0,111092612452849
0,106743380197815
0,119608706922556
0,10317379165199
0,111681010087919
0,10969234592918
0,114954610778467
0,114827881069848
0,127938332877675
0,112355229710481
0,118800187382982
0,112926509696966
0,121306568609275
0,119495056022814
0,117451951075668
0,120039301694404
0,119631482986883
0,122932106223758
0,123505907990119
0,12381704415613
0,124759512691964
0,122012473136385
0,12793131512316
0,12312681995903
0,137345865468166
0,131315717611679
0,135839889646034
0,133992507587902
0,134650021115454
0,134241569673333
0,133978915552104
0,137676100710477
0,141024108889126
0,140985959070081
0,140835432930078
0,147516557432543
0,152461823774153
0,149578144932143
0,157624961684013
0,147610920551993
0,167222771488931
0,156971332113012
0,166323320198047
0,170386938434198
0,205377369998905
0,182258005391587
0,179170633289721
0,195788787801501
0,185307676108893
0,215074549350577
0,209625085196853
0,2145067698356
0,220827765234144
0,22805441828446
0,231763881932584
0,246181369779616
0,250812275793765
0,260796735975988
0,266096532339294
0,268451432929882
0,260690805261694
0,301775519352704
0,310055126863715
0,314104336684697
0,309600598487765
0,320455682849066
0,334865580376947
0,336908945568798
0,343999857866988
0,363451257439485
0,345216937169024
0,397332516004976
0,380750102136562
0,386621256861061
0,387968979711166
0,41601104402513
0,413629490392507
0,41779584491188
0,453922999616734
0,438739260420105
0,453675104668998
0,458359234388924
0,471147038253591
0,466048710744583
0,496997694746422
0,50553433010877
0,493756826993139
0,510620177825581
0,516490018757408
0,525307530755461
0,535820478324912
0,538806804125448
0,536336724013887
0,550692361973449
0,579639009326518
0,619083786217104
0,583649261022106
0,557325373847973
0,568543380017891
0,557614703235125
0,590390036979852
0,592375073660606
0,571779806785482
0,598369189443127
0,566477641112827
0,570309999380924
0,571329947282236
0,578635149373195
0,572135941091871
0,581235579580031
0,581226634315901
0,58600459230327
0,582692700985953
0,563316517681705
0,64336208112243
0,585318595198455
0,561600299863809
0,565364339545856
0,576182515417923
0,572549945632962
0,572805300833614
0,561190132348079
0,586197345077237
0,570370963358871
0,551471070418092
0,550695757950447
0,536369523948797
0,553439095294083
0,529969010950773
0,524833418404438
0,519575993468158
0,510776713978839
0,508060045489068
0,514333614113263
0,528345866552536
0,494032804877164
0,49525682056028
0,484966082027437
0,484389487812322
0,489685883787586
0,477816947262168
0,474730493413195
0,476101045228966
0,472620457837419
0,470175092989809
0,472112848831459
0,468042531247423
0,461536039871483
0,45948916823915
0,467706534394176
0,459362136574657
0,462447029289727
0,45675003447702
0,461865187425895
0,45850676704329
0,465375796934356
0,46397922208879
0,461134074480712
0,458687180896819
0,458772139951461
0,456771364183411
0,464912997057178
0,465947272054943
0,4667637817376
0,45644511438513
0,457868151894683
0,45888478006897
0,463151850621064
0,463395442791854
0,468932321500062
0,46990852698782
0,470902825701705
0,460282373607704
0,459299855804107
0,462044147986832
0,455340171771267
0,446328261496553
0,463103570399132
0,477738434211422
0,452613560590562
0,462899226526289
0,461145452282876
0,45191924414217
0,44906348180576
0,463279777241125
0,457581973704109
0,446191534768089
0,450062747247455
0,442684573236935
0,441800776714029
0,441944881298037
0,436527433873465
0,439387950383147
0,432276238475646
0,423898262642399
0,493266016320978
0,480267934914347
0,487115530148488
0,443582550337779
0,438106859898902
0,433243993696573
0,460481264376592
0,437768050003759
0,439601554285531
0,434015697828247
0,437819147106394
0,446118875979172
0,43549142217647
0,434941560673942
0,427716740171246
0,431819240070584
0,445859569813307
0,435528840286919
0,425063305496031
0,442989629719663
0,439114778751359
0,452441706039817
0,501982920902547
0,427029231218173
0,41180303570245
0,405101626938683
0,405284868133537
0,399975881802265
0,403062522388154
0,406703658247279
0,395438989651017
0,396256832610214
0,388239735731021
0,387500777200775
0,383436007526266
0,382505857415332
0,374578208943334
0,373785166053751
0,372359444497957
0,358365972908548
0,376847836216949
0,363837024616066
0,384581929208139
0,362740839928878
0,352829202427446
0,343711755595832
0,368082275097805
0,352383418637928
0,345364310883683
0,342782964723909
0,340981092757001
0,337010136631704
0,331691514425433
0,324160076408283
0,32883869155471
0,308535938184616
0,333536375772523
0,339467741177307
0,31968227216573
0,310133557041734
0,3032338276293
0,301661633971106
0,301620182241739
0,293031044907241
0,295182876657679
0,281220681814219
0,302980683843232
0,288115839574731
0,303614346433045
0,297230854001774
0,29460797913824
0,294264460685304
0,297863440145706
0,289096090765044
0,30683610183093
0,300833820091772
0,3037090726892
0,296080028203357
0,314056016864705
0,307312378334753
0,313457171964757
0,312762032999365
0,318284624626891
0,317273733149604
0,330290936368068
0,329012920562969
0,337812013656123
0,339604067831477
0,346143703445338
0,334049956878684
0,362978091847308
0,363076326823186
0,371562558621004
0,385306429494675
0,391680009873949
0,404215906380718
0,398594001729426
0,408116049723782
0,41660188336053
0,416609121247239
0,430266078263778
0,42753155252438
0,437275965978607
0,437613528533919
0,44215011849016
0,440310898611185
0,454761013981389
0,455680210909942
0,462872295788239
0,455558622238414
0,461533031011704
0,494898300421879
0,471615699879773
0,474926980223979
0,484970831110719
0,482841782704507
0,490660651645896
0,488958685076685
0,500908390423267
0,483664475780174
0,50373464527054
0,497772056205196
0,496800278411823
0,495781159035341
0,502746625444921
0,504587893915047
0,508364918390556
0,51121816119625
0,515968159742234
0,50957574105447
0,512997827476842
0,510689108102361
0,535127133172211
0,538335202172134
0,529846841827128
0,537147392585787
0,544797705913879
0,540420832824128
0,545153735925809
0,548977390972184
0,56982470229737
0,556991169533672
0,5670191581875
0,56123676835439
0,570216865065515
0,569512181933362
0,5837755564739
0,587198115650721
0,589114885300764
0,580898139461566
0,587515968282129
0,609782004620505
0,590619667358664
0,598339503280766
0,59503761390678
0,595462529427628
0,607930302592313
0,599954373548915
0,616710398522648
0,613374455790205
0,614388724923684
0,603006960720678
0,612952260226966
0,618005020906881
0,617129935098792
0,607215453883812
0,62067853969506
0,621180682643553
0,611185313160418
0,611510355391985
0,621534451897672
0,612520658779086
0,612437487788773
0,6139525280939
0,610676647398646
0,618791210318209
0,610514989110999
0,614815638353565
0,619111333520521
0,611469735714724
0,613022756439902
0,613915642728083
0,614432628445308
0,610757445202404
0,615260390951714
0,631651378883536
0,625768528863842
0,622400796565378
0,61668205242391
0,62015892176552
0,620294675180929
0,623117856125468
0,633518577054876
0,629686467978277
0,635712500326361
0,62884759616662
0,636998074471113
0,628922250659393
0,633520021849842
0,631953807274943
0,63510653957162
0,629563697970838
0,639501909439762
0,63631977166022
0,629902968322986
0,621120300329002
0,626757558123304
0,618903064637399
0,619488492196731
0,607417371122366
0,607853376711509
0,608139786210354
0,60654823935353
0,597095926154071
0,591955414947243
0,588190201243455
0,58555393166444
0,583123115817086
0,581327147652858
0,575630024644801
0,572596800867601
0,569273621577392
0,562872669656701
0,559297673892971
0,566610020147554
0,561806440457784
0,566293484956063
0,557575593508601
0,558504266241868
0,559596222151813
0,557061593812848
0,555599552123561
0,554483451219187
0,549480263501157
0,555138427744019
0,547881628793373
0,565555720103487
0,557794604735803
0,556467295813227
0,552063486977264
0,553443928061732
0,549392533959999
0,55162969533453
0,549823372668508
0,553530048171996
0,551494601885926
0,549233549546242
0,552814153938442
0,550009876918959
0,54837932558297
0,550498487882855
0,547572935196208
0,545356250418625
0,547988836048701
0,546496808180168
0,546962079656285
0,547202269580276
0,541213002088358
0,544119630798615
0,550582022098444
0,548619866595436
0,551875884129235
0,551761852397889
0,544604504566166
0,552671703689102
0,547188490266834
0,548426096351915
0,547100460829485
0,546963362017512
0,549155890644703
0,545108988696022
0,546873260287908
0,546304059726935
0,54819031000334
0,538526780231074
0,54343994341454
0,540792486248353
0,533529177693342
0,534925075240512
0,522557935415239
0,527072177173471
0,523416874704443
0,519862750723407
0,515483132007185
0,510656826702558
0,505951426612136
0,507200626201362
0,499102453920334
0,497672956086646
0,495797526263262
0,489339820959095
0,486867739897783
0,486215092307131
0,483459332919386
0,487564838913061
0,485509478018809
0,486622936174398
0,479926114288875
0,481986468349101
0,477397951206637
0,478382690354595
0,478995137848156
0,481094310071786
0,477695696757837
0,481494030783814
0,479898660457753
0,480577642922439
0,483779995214065
0,485949052823814
0,486294731154976
0,488635820775579
0,487170961875047
0,488094993980436
0,491276470870355
0,495725677010603
0,497159018989747
0,500322277535481
0,495545860164689
0,502633116624924
0,500221683440965
0,505103312146092
0,503936462171554
0,508842045297423
0,505224353361031
0,509853493976705
0,508229985939126
0,504055816786132
0,50678777871006
0,504769672188522
0,503078749860377
0,504995498605477
0,505530230318419
0,504104983903123
0,49807414546384
0,501929325507211
0,498663800952411
0,499966521839183
0,496539087815469
0,494197425068012
0,496113303937456
0,493215262454619
0,490491645033381
0,489707712504032
0,48780484868701
0,488908266747379
0,486620142635881
0,484803014742037
0,485347864469117
0,47985961168228
0,480190218586291
0,478355016954795
0,478520701129081
0,47686282258268
0,47152159891707
0,472061535647385
0,468191685720847
0,471855130789283
0,464491699714393
0,46468877949951
0,463892913528172
0,465232825770061
0,460303631406194
0,459304224613921
0,457322626242243
0,456639695316269
0,449012951478034
0,44957635366846
0,444642659529396
0,441390122307934
0,439238220911501
0,436469744910785
0,433900029890437
0,429611262952542
0,430806527457838
0,425242616354354
0,416857298426625
0,415821322713514
0,410688267419628
0,41476085238911
0,408550815850374
0,409032358746517
0,404187019669185
0,402573066708444
0,404962527993221
0,40545759243355
0,402062683983687
0,401067602090892
0,398638308717646
0,396130498017326
0,394565100830628
0,391203609406139
0,387440673441926
0,384014257194098
0,37954786203524
0,378801353813853
0,370598206285178
0,365311591601997
0,360510994118598
0,355933899778274
0,351594855199731
0,349739142531015
0,351595091199259
0,353856208851179
0,352314543019668
0,355925352127585
0,360435833454285
0,363836637188808
0,374289817838771
0,381922140384601
0,389445017930326
0,401337736699738
0,41500567344324
0,427157371391322
0,442559043321612
0,460692547233171
0,475773209246468
0,491557459893731
0,503590830486456
0,521853308843194
0,534544674160454
0,549840067107815
0,564508728718274
0,579895556915341
0,595310928066112
0,613013395581271
0,623269248036659
0,637811477214622
0,652616688849357
0,665306049896548
0,67689577997783
0,683067781402539
0,694311819434233
0,710878726198981
0,711112689069331
0,723566784426651
0,731429997488958
0,738392584539259
0,751998273200105
0,752639841618694
0,744741852099169
0,752521742885743
0,755708616129543
0,763729066673033
0,757909691184732
0,764049390971266
0,758758601775139
0,763091450474913
0,766713140092987
0,769605755665411
0,771569545226715
0,77143826239257
0,768535943983829
0,777868314596597
0,77959251493989
0,77955766077658
0,785950187702577
0,789026942401779
0,790719503772395
0,802206310456848
0,808121434553764
0,814049834029909
0,812844005574266
0,826148765321717
0,826022026106982
0,838519811712514
0,854254016288003
0,863281543378813
0,87648321490724
0,882739202916953
0,901110874231126
0,905171654404187
0,913235545656997
0,932771923166817
0,931336192077038
0,936248195770953
0,955456820556658
0,96146325727189
0,961744750113576
0,961326975819412
0,951301826742933
0,957871559598261
0,961861001546915
0,949191817621924
0,955643898459059
0,956760391446571
0,952692015668768
0,948344071637844
0,945959111186971
0,944571299376618
0,954403707778896
0,958319735130871
0,967665422720945
0,982152840358163
1,00415358222106
1,00819750274177
1,03125144150356
1,03707070673021
1,05823668770828
1,0666080533608
1,07249317046982
1,10245049757767
1,11817756374518
1,1164148126105
1,13198031274014
1,14942541155144
1,19182712605174
1,17474269506897
1,19663583113927
1,21517461824997
1,22369221929122
1,24643298433344
1,25606742139846
1,30881468728328
1,32480991167388
1,32491446932455
1,34701961697854
1,37069287348167
1,41880998566839
1,38424854058561
1,44119181494215
1,43014598763773
1,44613516648466
1,45343542580682
1,48147608225854
1,50535044516975
1,47977321150327
1,48181561256882
1,54741134400392
1,53812222201219
1,58483951816811
1,52531793508564
1,56426187243065
1,58914432594673
1,56514658623443
1,52077739746446
1,52339829509124
1,5437845098419
1,5719814891398
1,51035076694786
1,50251504725969
1,45331301582266
1,577379383938
1,54746762784085
1,51262646536045
1,6419258713485
1,58051081858525
1,53808074805502
1,64425551812836
1,58576077771882
1,64411183491153
1,63882403017699
1,68011799271126
1,67017489615983
1,68391740397368
1,65465090162799
1,75080439496223
1,64860418659846
1,7928585192634
1,75079248692237
1,72821700750592
1,731549176283
1,77287316200976
1,79986545502677
1,83091651249904
1,82853860230879
1,89009477967532
1,79730169637149
1,91174679968035
1,80388044457759
1,83972289170651
1,85593212405622
1,74021155831898
1,81466144654031
1,78829006401337
1,8210840847109
1,89752783012096
1,8739686378359
1,80238284313477
1,81821568245973
1,87184232065722
1,80026660874988
1,83911268327157
1,80624260887948
1,92439223573978
1,72854111513842
1,74726870682495
1,75392200668669
1,86459250156213
1,72065035138526
1,67635299893896
1,64144086478431
1,71620949634844
1,61439991207796
1,62075555075938
1,55701006549316
1,53397036680638
1,4836430852697
1,45882750063253
1,43316941349265
1,46602142906126
1,39072782112709
1,38240252384975
1,38181662358802
1,39757702481188
1,34732785520042
1,39032328931972
1,34433821932799
1,35265152065563
1,30515757517206
1,34361188252014
1,29937955466549
1,30956593829498
1,26787334610377
1,28757302064098
1,26339976403702
1,26523330377259
1,23727787634108
1,23374365665442
1,19829134894254
1,16753586466528
1,15245810645429
1,14195036862034
1,11122820684563
1,08398698408658
1,04320909497411
1,04326592560903
0,984356027794739
0,963916415651228
0,903913878961376
0,880400012806492
0,840155131187598
0,828679115194619
0,781162763334996
0,757575527473008
0,729118828640017
0,708277954150003
0,678098390433303
0,664862357862974
0,637759910076548
0,623830520734838
0,599800407765591
0,590972287373078
0,568058586459771
0,567710844167789
0,558148076658665
0,548580092912012
0,546466926061183
0,539218644874922
0,532550884184129
0,531130702777328
0,527217854979891
0,531693333806468
0,520590510379047
0,530603464208265
0,525424892019213
0,531694431436273
0,524184969999334
0,52813928546449
0,529391975819754
0,522744343196238
0,522969101913631
0,516994608914788
0,514278735813828
0,521927037391827
0,513155938065457
0,509454696158808
0,500848734089184
0,49149521625318
0,490990979100311
0,486078200781797
0,481999013367731
0,479853716833505
0,474824761743694
0,484586574037875
0,476475428473447
0,482780150504249
0,486052554819307
0,481780727618572
0,485755720217383
0,489377571015022
0,482038821798216
0,496258841865737
0,495510500866909
0,50644272913267
0,498184509471244
0,506523075909833
0,505831555628348
0,503588917963745
0,510395114049409
0,509237177015221
0,512612674795756
0,520633300372846
0,515578792985113
0,513807134368826
0,515503650135032
0,511780992044128
0,506849769464389
0,506917451133897
0,511379228758677
0,520442306831275
0,52755111622992
0,529793816233337
0,525016781990227
0,535951010173385
0,536986146126651
0,548792301363166
0,561837235663024
0,566550869283635
0,578722870792412
0,597835569491084
0,60023316005771
0,623740020866709
0,636166048463184
0,633261067917381
0,650057525547547
0,65252623694852
0,664095898168483
0,672001144985214
0,648512297024429
0,653673030084696
0,633866318226465
0,629763796593116
0,6242553961032
0,629722782055484
0,602787994932492
0,602505163150116
0,60475992191574
0,591137227732365
0,592560136222636
0,606065833553424
0,601233695156628
0,597547327314343
0,601869177072102
0,602416337753023
0,602685425722121
0,608554656806794
0,592343736005211
0,59913032749211
0,591397243939378
0,580370843040143
0,575578268795095
0,579157754999982
0,570107355415741
0,573937662614606
0,556042689403792
0,56242619123224
0,560708227524921
0,550377608799908
0,544257853660091
0,536224090610292
0,528995906285056
0,532400350532372
0,532203872820976
0,551556605860466
0,542295810612035
0,52794852149705
0,5137386580412
0,525164063099211
0,521615950312256
0,521116441591137
0,514349015135934
0,524462197134639
0,517009293810562
0,511899194137279
0,506622462170623
0,509103050483398
0,490733841727431
0,497476452158315
0,499152775883352
0,483169430018455
0,469523790760351
0,500951447207718
0,489811436283788
0,476561938078113
0,471184425533657
0,491061323479277
0,476546824122532
0,470093622859445
0,474708635482589
0,476543687993746
0,470368915669565
0,463778991941013
0,457386938368435
0,475646001438244
0,467639957433428
0,468793498449977
0,45839940262929
0,464857339738293
0,462930846094485
0,463638942014497
0,457140786016158
0,473819441778649
0,479545215304602
0,478065370602219
0,465863940407143
0,489948877010133
0,465179850158567
0,486872976431674
0,489090723705426
0,485772402224305
0,484714803194479
0,497138018858748
0,480216358606544
0,475624686958127
0,47529886947961
0,502615848101015
0,494177930192877
0,499343137357619
0,506549330234072
0,508924508692721
0,523635091760957
0,544486427384033
0,506121694945332
0,529954967507467
0,518607894003611
0,550326762209498
0,558060247944596
0,557758365651901
0,567754559745775
0,581760903283129
0,592122176619906
0,615988974783346
0,614572858481652
0,625613247485843
0,652148535815136
0,702229172384819
0,682327763330265
0,702835700622085
0,711126575225572
0,707490401839075
0,745705548748686
0,766667898767385
0,754300763280602
0,776992446072529
0,777323014480888
0,765802846773568
0,756378656342617
0,776428683803371
0,781074484045225
0,802110094116811
0,764131076393854
0,762401043559699
0,726967885090373
0,755677402791157
0,779086783438311
0,799828764684551
0,772964580242397
0,769697872047601
0,758045402243926
0,762100115087512
0,711974631630964
0,742875221842103
0,742673939554806
0,754414515708462
0,704588272351531
0,688352936485052
0,726715415698785
0,718796204447732
0,688919543583549
0,76501182474717
0,747480529935656
0,728108033494014
0,672194438847882
0,741142484058564
0,695379397105448
0,684715086228574
0,708411281678579
0,70639588476664
0,673961069243558
0,713063440144918
0,685588941941612
0,678363431488914
0,657682133042847
0,730714116507318
0,717804612930739
0,777578208611289
0,682519978159405
0,718880194180418
0,669994559161799
0,704210135844778
0,682208978874941
0,673736380629359
0,687116730857213
0,69226786979642
0,66996302586632
0,71903297665702
0,722878424963875
0,729844960830709
0,653076198924524
0,74751474907833
0,747096243800034
0,712729461303545
0,741843620658298
0,713482596304108
0,77136950775087
0,772521614427449
0,740252227489676
0,757860905678747
0,798241385311429
0,828226636709527
0,660982587371291
0,746969220240242
0,74750857674222
0,746125908936256
0,79861118255902
0,924175276867355
0,785993046076471
0,772905609661243
0,839167291317128
0,804147269393952
0,742159454680846
0,762937328043815
0,842964287421851
0,966127461423223
0,890638538929203
1,13792814417882
0,966506620994977
0,823235214147961
0,883290605838777
0,941439989683999
0,899939669805254
0,974251617106369
0,987143550356782
0,976541788415483
0,934416911780364
0,981123974261986
0,74005687023393
0,916155807298402
1,01824356188931
1,04212477220458
0,862509620299278
0,873774772246196
0,944251827887977
1,04349800105199
0,865254341244936
0,749013600408013
0,731223321974394
0,960234111507842
0,969034132883939
0,839456541846643
0,890164571821188
1,15485515846862
0,825124128442978
0,842117803632346
1,0033783865975
0,996577593199778
0,935830591383352
1,11179810464553
0,950923107484329
0,789906124076842
0,885262602031388
0,983301039500327
0,903222752082947
1,31410465326712
0,814489767473574
0,884785847111789
5
5
0,689751427611099
0,84796023732536
0,865126011040436
0,807188589881361
0,61077375393719
0,654340841183505
1,09867737646959
1,26415460786336
5
0,920315418803817
0,631575114985335
1,53780394401784
2,00867719154214
0,76967735077887
0,730673054214373
0,862376447156597
0,996165948946909
1,12853425001881
0,57302485157859
