3596
4000,36533379555
650,420452594757
1
2
2
0,03760442876
0,0487074854842841
0,0413671250631215
0,0373190305881201
0,0438970407769107
0,0444006528833068
0,03415228490091
0,0459279162409205
0,0375763952998219
0,0427245375273839
0,0365282225715633
0,0382553947075628
0,0371576158283933
0,0390078020236228
0,0364493820241271
0,0403443726814088
0,0335766157725324
0,0461753663464906
0,0356461953034588
0,0375501669699166
0,0424664169997959
0,0439388416751374
0,0383686045968313
0,0439318652703837
0,0362663464578828
0,049328494561527
0,0350238866490051
0,0320479648219864
0,0477739056212093
0,0569867479158028
0,0355900864603439
0,0426372849245609
0,0431885143805578
0,0399281174317164
0,0373192609904383
0,0338994447539038
0,0346468869628753
0,0465672174761516
0,035785528515865
0,0434088734694541
0,0361905763617363
0,0432666994680902
0,0361672410636193
0,0440507263302961
0,0340045158313492
0,0423966218582279
0,039046565521656
0,0416871707572772
0,0388137443276544
0,0400088378453203
0,0378636106988098
0,0367907978381051
0,0412939251909077
0,0504071192540515
0,0361529550156385
0,0450240278969648
0,0390152907324653
0,0393263628004484
0,0444180947384633
0,0341033532114339
0,0420502668503601
0,0557846679936114
0,0446884755524559
0,0426839281378027
0,0404482004590829
0,03692954319606
0,0333595300632081
0,0376250765848453
0,0322128485303753
0,0362971419273774
0,0371399211662557
0,0438855847111864
0,0509665056291104
0,0381861438107207
0,0422714114280026
0,0438451234595115
0,040804040065873
0,0362042943054472
0,0289976275764155
0,0337678581231392
0,049795446975006
0,0457787633249722
0,040980983079619
0,0273832093323781
0,0346265664724811
0,0583011901862776
0,0323742857350536
0,0284644594452919
0,0630369691764279
0,0498209845893621
0,0331581852871917
0,0325190522399086
0,0435239820512782
0,0406696439784863
0,0357618664459081
0,040750819392173
0,0399737214733016
0,0324016495585632
0,0308531903164403
0,0389920104734667
0,0168664162035341
0,0458490889112224
0,0638673324286778
0,0418135918258248
0,0509178191616958
0,0489952950798569
0,0212509494172555
0,072536514563755
0,0548006528281026
0,0398555119575096
0,0356277700043937
0,0276328052913867
0,0370084756420653
0,0352360065569816
0,0254215276479062
0,0439204201606002
0,0730597623909036
0,0462663598338662
0,0398537008567627
0,0353089742373836
0,0115381598001145
0,0428645148458963
0,0698647155309657
0,0378843705238505
0,0394305555694299
0,0376339115065024
0,0112979855389452
0,0588581462420088
0,0611262511065343
0,0413123985265904
0,0343721624975765
0,0424260835996343
0,0200643445720246
0,028738118797036
0,0672814458881028
0,0618180079103373
0,0337836127861566
0,0131826641823142
0,0316166460285609
0,0728930087787245
0,055706231019506
0,03897965767154
0,0244233221721287
0,0332749647304109
0,0721655698326669
0,049694857503454
0,0262909721994703
0,0563028280393307
0,0547888248085316
0,0420758852653563
0,0341806324027126
0,0243677528656893
0,0308896785537069
0,0425253883838619
-0,00656845792919899
0,0354940919074725
0,0706928012979306
0,0651183560577078
0,0784475693616936
0,0558243915561346
0,037471259638874
0,0484569301823185
0,0288713588960261
0,0434145480177813
0,036319926321401
0,0252314058507663
0,0411225641616201
0,0556498561128339
0,0315686683585698
0,0366066650950499
0,0665362202752475
0,0340426779699163
0,0152433647114406
0,0806754220367567
0,053851975748989
0,0228806667183877
0,0646348924343713
0,0560470870483922
0,0137097672532139
0,0417157514234312
0,0722763408252405
0,0450758159220903
0,0265775352739527
0,0240964347991481
0,0270140059529994
0,0554573936856529
0,0435550307746877
0,0428961682331647
0,0331030074765352
0,0228574561736429
0,0243517443087016
0,0788373868015288
0,054900839156579
0,0554480790716703
0,0330461510708007
0,0186994640337915
0,0255371707855999
0,0732316012621972
0,0422059576690185
0,0311092148306794
0,0337389401879635
0,0372121353621108
0,0324949111340961
0,0401271441060864
0,0247916869721054
0,0225833132469557
0,06165890778185
0,0694339216866116
0,0333693013639204
0,0304612697702032
0,021968838221225
0,0155826246044208
0,0645277037581728
0,0615398234597385
0,047900121117725
0,0298055578868668
0,021938590200649
0,0524931645619958
0,0504314003779683
0,0379591163244238
0,0384610909008268
0,0354706647620425
0,0343781658482548
0,0336193020234942
0,0364003539748629
0,0385012600200075
0,0318451994262696
0,0357482725763752
0,0359167482620186
0,0327539410230442
0,0444917112096268
0,0368835383727721
0,035796545894998
0,0330407460034249
0,020814304791173
0,0440406764313684
0,0455751560946195
0,0440864534848375
0,0346109380670056
0,0426089133918135
0,0346804275295109
0,0366254873070319
0,0315419379377932
0,0393240883471009
0,0231710909276737
0,0351907644731242
0,0554549948764247
0,0586301940270075
0,0305135715802183
0,0257629815276564
0,0387798390714034
0,0482008500964691
0,0432737715842957
0,0368477356094152
0,0381932974574258
0,0187101555790908
0,027274257726712
0,0591425352332446
0,0529026603261219
0,0281884758957044
0,0412683120035491
0,04461635365134
0,0461556549628389
0,00520543142356795
0,0157563653605793
0,0870454516874822
0,041551595666744
0,025258578120572
0,0878346717599191
0,0638447133744746
0,0495918443672663
0,0183494253222971
-0,0141633838762801
0,0635951448844062
0,102517304279838
0,0419746971067418
0,0326905562174526
0,0414884268087663
0,039001733193433
0,0394565906224845
0,0365185239106737
0,0393692036997272
0,0334974028126703
0,0904426290869487
0,0637363681199196
0,0221727783132298
0,0420254502572805
0,0764343100813268
0,050881214930498
0,0418796260381041
0,0324148948115841
0,0275256889589262
0,050667333123574
0,0403213919707832
0,0553816757193384
0,0298089695662199
0,0411591713497525
0,0556032297133928
0,0554604529589606
0,0221213309128839
0,0471364031505069
0,0444869807270589
0,0439673470323939
0,029888600433813
0,0416391667953319
0,0396555363844467
0,0195146420042245
0,0179595169686319
0,0795026092119988
0,0450356364455401
0,0376548121817518
0,0532793860874013
0,0491218626967239
0,0358153380192622
0,0399321259740769
0,0270674640524559
0,039286962601798
0,0259410153202039
0,0226233293471534
0,0520362009662625
0,0525414964238153
0,0408583237777715
0,0412401051374604
0,0322751231801829
0,0333428381688348
0,037631142967985
0,0356010322912522
0,0403879889406337
0,041536202981214
0,0190657507669624
0,0429799490652823
0,0584025536649334
0,0237159895284154
0,0618665059372067
0,0801296737126287
0,0461540932213079
0,0347195248191839
0,0372500918266189
0,0414243603438611
0,035172576424995
0,0383423389246191
0,0321621314054243
0,0349897028077312
0,0534843926267724
0,0399278095742833
0,0300232352589209
0,0133894336701595
0,0667780316627552
0,093831187581335
0,063305851659718
0,0395260617305898
0,0138559239672128
0,0666406875773918
0,0367055867633411
0,0747426595794339
0,0647218189190177
0,0503633491672753
0,0343742934298905
0,0481328580822985
0,0407822585642175
0,0424417611124825
0,0360122307472664
0,0435894597734726
0,0446421114875343
0,0417368512677943
0,043164070907568
0,0353388960203683
0,0284679023437988
0,0688825740394519
0,0539508713600144
0,0513608337723897
0,0452886618278505
0,0242772905125618
0,0602995942604245
0,0608760183883614
0,0917184808694772
0,0591299500742887
0,0637365705997186
0,0767591366544216
0,0674145670131896
0,0442634489665504
0,042903064192939
0,047392879990343
0,0538454631087968
0,0505415047601233
0,0521106584428002
0,0487412915077421
0,0561672548301342
0,0521033799936763
0,0613617885518842
0,0456729305630956
0,0541310554518361
0,0750858353429827
0,0639248103373371
0,053177602118664
0,0337146706872653
0,0354664353432444
0,0827147028773247
0,110748606005092
0,0628175704279354
0,0744301112011138
0,0580610195223321
0,0675646163526271
0,0515544869163358
0,0721979903035308
0,05601094756669
0,0517437886809687
0,0834350316195103
0,0663986463402305
0,0738942898500664
0,0809873956351693
0,0640943523115308
0,089740453028542
0,0632360540333423
0,0777008582906901
0,0989555555567902
0,084077422958722
0,0465261212003749
0,09741673908699
0,0794338301159172
0,0964557622443853
0,0806154693792289
0,0852367359391141
0,0767544016097196
0,0782823862619041
0,0751348513460352
0,0762858266947968
0,0883102626347824
0,0888558226742291
0,0867272914354767
0,0942552303660139
0,0781817363594202
0,0842497103851545
0,0965439359811064
0,0832333390534843
0,0918528995483909
0,103848883698238
0,093295207240834
0,0974201903207992
0,0651675152939971
0,121096382061068
0,094403841250175
0,125080110671481
0,117534555943562
0,111408315632968
0,0952503259019364
0,121476647037984
0,0982297395025542
0,106019430694275
0,102060102453088
0,118249651214136
0,110980470177184
0,113888134830993
0,109982432273619
0,115713111898275
0,120004785564748
0,120919400355502
0,111782187306564
0,124382763037836
0,125389960437687
0,128708793201431
0,108007418823258
0,133562367718903
0,129940945399619
0,161671477313704
0,141786971413485
0,142884515671817
0,13406373069379
0,14484441431624
0,129754635437049
0,135299847948849
0,135796534490715
0,140709457469475
0,136014305817258
0,151186666383296
0,149172910028509
0,161023735555599
0,142636520096924
0,156346336259585
0,163530803549393
0,173665812466426
0,159928088420989
0,166247324941577
0,153662043074458
0,162310419342628
0,170663150960841
0,179678336359625
0,173753900045527
0,178311013999956
0,174889349748141
0,18280857383785
0,173016825903287
0,180235604402444
0,171683694603314
0,185559962734918
0,17458493242414
0,184495201675671
0,194150210663253
0,205144078777792
0,1941946121074
0,196991970980203
0,196758425732835
0,210442924327147
0,200073573803044
0,208589653805962
0,20234486197761
0,230248359987341
0,202183757263311
0,220821840535067
0,197600006597552
0,224817983679769
0,226619485542096
0,230598048829433
0,209219346870703
0,216656795497458
0,221292970574608
0,239232639068068
0,226008109899809
0,225903223314298
0,222509026663976
0,237969438988356
0,225501618134522
0,248683055760999
0,241221503818437
0,259501893002798
0,246349882313136
0,263163873528151
0,239131044020777
0,264662796476131
0,257373387948933
0,26075073031924
0,253193086614252
0,27285117016868
0,278318535765113
0,27673553233101
0,262046016822868
0,27719914323539
0,268825129850674
0,267077073953547
0,285402285070079
0,281924591878394
0,273849092813932
0,291671712607019
0,28454834328813
0,306013813887381
0,291894499062203
0,305578319500288
0,28731748667297
0,315628699067616
0,30038625955108
0,308407159856068
0,309285218449413
0,325414479628201
0,29567828449881
0,320420528172358
0,300243711794076
0,319604401928275
0,316075716960701
0,32171080664104
0,325567488052222
0,331071721601617
0,323882663292812
0,354512252511767
0,334203194798277
0,344148592805537
0,333537398278946
0,338970539187401
0,338882068128445
0,332260792896393
0,326903166181204
0,346457187665941
0,339942962566646
0,355593934982473
0,351261114726578
0,37480180184744
0,361921292587623
0,363245153697841
0,338498750136157
0,368925149417032
0,364493119160639
0,383976970873239
0,365685503054439
0,397622948269288
0,361229183245625
0,382368886654657
0,358159671566429
0,392542872903756
0,377311675187949
0,394269287006361
0,374802366487963
0,383535434414456
0,374290743042679
0,424812387559109
0,390291440731189
0,409771179993067
0,39763806247649
0,421468827046465
0,411513312223892
0,401456716180075
0,392084331192544
0,420714961933698
0,402620850937224
0,419219459742755
0,40149825709032
0,422495280958668
0,416987848528898
0,425307899137235
0,417675109293773
0,451520783708742
0,426141731495265
0,428332896923023
0,403697672535802
0,443622057796598
0,42698997791702
0,44662482900471
0,429199732207422
0,446083125534101
0,434161593937111
0,462512083898474
0,43377873699831
0,436675552940575
0,436606277916429
0,472492640632686
0,430558778341932
0,442317543267378
0,437206432028421
0,455917327972419
0,451248553280922
0,458400889642086
0,448440588463296
0,463343207550353
0,449894352043032
0,477844722905488
0,444311066566772
0,488777284712165
0,461706655978094
0,480441778926935
0,449702864956955
0,485570037908836
0,460393681247228
0,485789974077078
0,457666625184223
0,470848577263645
0,464040936440501
0,483924845389295
0,481185018504074
0,493864871876874
0,465094818625441
0,483114118669791
0,465243304665934
0,5025875387956
0,488114221286624
0,503435383498052
0,473602997020256
0,512392061627194
0,482822205996086
0,478620030526847
0,474908118539751
0,502301964904169
0,468896467789048
0,502296771371471
0,499676739582633
0,486383950157402
0,494798473624356
0,516967683553714
0,496395155601475
0,509987666494238
0,47779915279816
0,511296187858946
0,493472868873267
0,528419690147175
0,509478309006529
0,496033759669979
0,492239216214068
0,507674740987923
0,494557599333795
0,51362539017401
0,493411354950267
0,529548740047649
0,505186520318063
0,515367864817641
0,497751259254065
0,525674064424498
0,501146956903166
0,520811969265855
0,507287469875396
0,509753755504671
0,506950631979266
0,533067348044349
0,510097827338842
0,5399691914827
0,504191715858404
0,508236474958561
0,497948570143259
0,523150106028741
0,501846439855595
0,514880075367952
0,508210681784104
0,526402836219347
0,527063283235485
0,521066620195968
0,508986564106429
0,514495369364401
0,50309136583943
0,503101927061264
0,516845143689813
0,520023398169798
0,501833075301123
0,531629581403711
0,50978568640222
0,516225241216898
0,503312340186038
0,528845204244376
0,507184181227122
0,545367449282477
0,50039894253511
0,527591229795347
0,497362091166398
0,521449580668641
0,501741256057328
0,535612661161827
0,501273341788321
0,524654131247005
0,507754618601629
0,522550989926888
0,50680958942278
0,52904224876978
0,497684351192275
0,524026366875944
0,514378583437681
0,512517381638552
0,498044397391328
0,530170179411676
0,505430576664241
0,520006082722668
0,511241797755707
0,520593205862149
0,502149462316452
0,519103197209593
0,502346087621147
0,503863089451056
0,496825459883821
0,502651508944072
0,484132916636609
0,513864501376304
0,492994659562326
0,500525258711934
0,500892251992674
0,512321081270425
0,482002528739864
0,503681874152578
0,486301647972689
0,512526383006739
0,48680000445677
0,515777457708172
0,485144652006379
0,49970805451418
0,502939931668586
0,500553922235998
0,494965960505028
0,508958224927709
0,498506680862995
0,50063913617944
0,491514165422055
0,499262050128457
0,476257041627815
0,495771862346219
0,478476334380745
0,494235597588848
0,487679341207456
0,494832515218696
0,474280499329141
0,494358326552243
0,471007683052963
0,491008626173504
0,47151464337443
0,5017824039804
0,478365855393236
0,488662187770108
0,464624315533179
0,478393307022571
0,469721511855711
0,496254778021159
0,46408341726452
0,475262741288063
0,452329569704542
0,479093113114674
0,46679003949376
0,474777914353395
0,451154445528822
0,478421259441061
0,459709741197755
0,471771928059582
0,470074405204441
0,464736996709697
0,448726455352817
0,466935520632992
0,460495331539248
0,464386703392122
0,43985314463007
0,471044666210272
0,449999577359515
0,456285369128019
0,439644481739885
0,450624758574798
0,443129697190578
0,458258874149976
0,429887511933568
0,444481255983511
0,434388418043385
0,43557461263737
0,433203996463018
0,440163045514804
0,417328509492208
0,446376763644975
0,418059192636581
0,437323122695085
0,41730575667159
0,43805985593388
0,416810327229552
0,428123589147949
0,408736882307335
0,423278098365513
0,421183902862194
0,428473608750022
0,405053292920491
0,417545392993556
0,409086885302735
0,425094793443605
0,406977520553633
0,406359257149848
0,398108987477111
0,414673010543186
0,399428366591421
0,398419454856151
0,402851851406568
0,407457758830326
0,391942066485853
0,411510733009943
0,384734826981554
0,396377808866537
0,385858042632574
0,398566351396547
0,382047128516827
0,394530050570639
0,376526318563346
0,390644200676941
0,372783446397769
0,380665026956328
0,371027552453147
0,382077788720875
0,371961459930626
0,378274354934461
0,371417621539084
0,383643117321193
0,364288457203749
0,368196702532391
0,362370173285455
0,37031680555465
0,347164319290289
0,36134925550887
0,346193592988083
0,373630872776635
0,356803263441943
0,361049751908287
0,344331882952913
0,356004190481703
0,340899924417369
0,354276243526035
0,336323061359805
0,349983712389492
0,336830174621788
0,348078402207247
0,329223205585899
0,352602358640448
0,327126115168837
0,339996129384344
0,330991645936151
0,332542248337076
0,330374309639185
0,329676019715753
0,318844063250219
0,332890377450649
0,321067646850362
0,316281805098787
0,311124791864513
0,319540197046643
0,307658784752661
0,313124559722655
0,301346450269326
0,310457207737359
0,299546716906803
0,307063910731156
0,302647544788846
0,30523061290486
0,297765159075128
0,30319755119264
0,299519235190501
0,305410231882732
0,283701624456406
0,302192220311917
0,286857448558807
0,297916481903718
0,274620586052848
0,285418123349934
0,274630800142593
0,282216439153355
0,278815338654947
0,281316866442665
0,274273086549013
0,287788875267784
0,269291743650391
0,279619083368479
0,265375600558304
0,272010483056126
0,262219197139346
0,278457862937234
0,259838745664693
0,268074634054457
0,260233387409258
0,266795867526561
0,253604276110108
0,26130877067324
0,24948276254875
0,257797259542689
0,247397071219821
0,259026454173888
0,237010151615491
0,249204969808726
0,239714824980131
0,248489289292691
0,236994891175347
0,248715087503861
0,237745199082126
0,244601314090342
0,239718209104469
0,238048314613309
0,232771993681505
0,235493903208948
0,229034193118313
0,234891965809381
0,233754676709589
0,230433777482545
0,221096488885455
0,229818896604523
0,226069534441519
0,225795235446225
0,220841465587679
0,233233800287552
0,214800381929446
0,218761924955946
0,21010432818281
0,219468828486497
0,214235999657708
0,217919944115047
0,212063577400111
0,217487558126053
0,209345235532647
0,212129531203963
0,205975052107608
0,200917435974838
0,201215528163905
0,208616422480736
0,19987277349063
0,202230868620836
0,189737742399969
0,205672885866655
0,19424758104888
0,197387725558653
0,190946855622666
0,195327672734732
0,192117385152009
0,202636000803575
0,191563419817365
0,196414792369056
0,182173645094311
0,193303106631098
0,180127990844583
0,191108281018348
0,180601964157581
0,185662649614971
0,185020672026452
0,187012807834644
0,174441373836882
0,188132430171761
0,176588374747339
0,179429140623378
0,172142051110204
0,176165102636656
0,171145565112847
0,180169434192519
0,170795150567441
0,17404653335894
0,171762963403619
0,17433866167735
0,16014441531694
0,172755562484704
0,163017068594245
0,176104152069376
0,161966541240681
0,162549305296463
0,155753069474218
0,16990062448348
0,160254088656208
0,167718803491205
0,151908610226374
0,165398565615237
0,159611352958568
0,163676584821076
0,159280159636711
0,16191347503206
0,146787664065989
0,155909447284992
0,148261278358825
0,157817818682307
0,152388857778291
0,156062606976991
0,147185480584117
0,146682631217589
0,146703957887843
0,151055590343154
0,142983010111072
0,151312607929379
0,140394122354322
0,147406346606833
0,143012574166333
0,14730758837227
0,140962207061502
0,139679053749952
0,134009041339566
0,147350413267591
0,135370609559537
0,140447542053732
0,131918343413537
0,143649687368851
0,130636596921203
0,140621368154245
0,130227892278857
0,138789847111929
0,132565252945219
0,137338621316374
0,128904604636955
0,136292148320089
0,123076633799722
0,135875388185573
0,126436280008349
0,131630404291593
0,123784348175797
0,132072959536357
0,12376400093127
0,133783685840277
0,129605646054025
0,129974089236025
0,117840158788546
0,12388197836186
0,120035885744532
0,128060053089268
0,118443164234773
0,120891304681277
0,118989178517739
0,122566004058004
0,118520960785365
0,120921549795857
0,116641577125867
0,116947390594426
0,115264300504608
0,125968407838616
0,113689199545747
0,12569287420553
0,116480917798927
0,118613925404502
0,114323083403573
0,12127853574796
0,113229726888159
0,117595701814528
0,110703670726022
0,11918206904362
0,11770725854914
0,122621388743904
0,114317710475699
0,121342612237693
0,1181811882923
0,121619117771589
0,118067664350754
0,119716773956847
0,116799125490763
0,115882224762043
0,114801440766719
0,123958814947114
0,117856811034644
0,123599828152419
0,116750940229178
0,126440850105477
0,11869883879771
0,126574775276799
0,117831939347662
0,124696736328834
0,120411023165787
0,127104893034604
0,122348310163369
0,127853849537468
0,126676570846831
0,132194074980049
0,125220127481422
0,132165429096287
0,127997990417359
0,135209497049762
0,127774170242487
0,140315961127072
0,130603515176616
0,139494599281066
0,132042166611706
0,140232269998484
0,130124869702789
0,139301805977157
0,135883393222995
0,146669412194848
0,136799533514424
0,142905331921445
0,141284845587934
0,14567544614604
0,146989275671672
0,151296339716693
0,145841743790816
0,154062279660467
0,146742464544043
0,156245409568359
0,149508235248248
0,156041344393028
0,149816483554365
0,161525428501398
0,156043989179896
0,159796748321373
0,156535843229896
0,160670374699635
0,158491030263692
0,171117843536604
0,163636691450062
0,171643146884567
0,165344102573804
0,166856249587647
0,164462936207669
0,175449547236064
0,168409442384744
0,175220364345836
0,164358217107387
0,171988347155807
0,165617552406042
0,173511665078131
0,166998205250444
0,178312667702589
0,172961655431881
0,176813582156408
0,170828918427709
0,182057894477776
0,172175391416795
0,178139436923188
0,170030029180188
0,174845755896213
0,175080795414078
0,177081057022947
0,165372436662972
0,17933671299147
0,174157152513988
0,176251369725779
0,168132686252768
0,178359330702886
0,172079376996909
0,17347655822911
0,169640756951309
0,175431731157536
0,169753903044379
0,177509488810927
0,168560878079855
0,171144430126495
0,165247037884104
0,175346588500966
0,167597373722462
0,172713616129996
0,168791389722344
0,177067594068037
0,167967746404757
0,171429428146256
0,171526338658917
0,176312791786028
0,172729220383265
0,174723868791331
0,172600961396672
0,174275814300143
0,170305990527123
0,179445660204803
0,172464567797972
0,173257225810257
0,170404471759697
0,174888497186203
0,170116153042838
0,177897778929439
0,165506904485311
0,179507862893455
0,163833772927252
0,175138584149585
0,164387636705483
0,171410972196997
0,166928313947178
0,170573389997768
0,164157581966979
0,167390101509959
0,16261878633293
0,168022022132166
0,155011476226506
0,162417481516325
0,155380274907846
0,165313271868438
0,156407987797958
0,159506308373567
0,151468835895682
0,157715531917455
0,151658816334672
0,155720656967903
0,145904558755612
0,154154938597166
0,14428818123472
0,146090557017171
0,143002797074606
0,14639278334323
0,133937516292468
0,141564384826158
0,138723600600504
0,14158967847607
0,133040382036105
0,13958800348767
0,132980352460513
0,136133661148413
0,129123012154205
0,136483096002704
0,126184744051219
0,137832595045358
0,127539808705876
0,130127866567182
0,124855314540796
0,129103349618098
0,124326982802159
0,125352511374646
0,118866124564302
0,126918527887994
0,119717404213937
0,12559562551499
0,117623011950055
0,116903109892257
0,111839679688807
0,115497194998099
0,111159443189571
0,115078298404718
0,108147574378746
0,117634507293053
0,113888543834783
0,111327345526305
0,107752254028754
0,10832059829642
0,106926968108325
0,111315374969523
0,104593061978839
0,110598307389799
0,104332471179474
0,106507635149545
0,105604004658221
0,107580977556342
0,103118782826103
0,106357797794146
0,101037514619968
0,108320729547723
0,102742375210654
0,104202783769536
0,0990566844423683
0,102055263657595
0,100631829400398
0,100650484329706
0,0999130518570378
0,102435488915391
0,0945004917717236
0,100765036460455
0,0958731382251734
0,102625763904919
0,0946237000300328
0,101311545079876
0,0933566095793234
0,101373729109256
0,0913817343041825
0,0960689111545384
0,0917737700666146
0,0922610069076259
0,0877113432035725
0,0970232609698318
0,0896011206619391
0,0948446896251993
0,08651819585436
0,0957045744076831
0,0865307321311152
0,0923490124811482
0,0892274073279124
0,0980451503299105
0,0872069826412952
0,0877426342722302
0,0830626297195687
0,093363130740742
0,0871173343188697
0,0933187342381067
0,0857404789518144
0,0894465164942477
0,0865569797490413
0,0927911186154642
0,0830294134534414
0,0888625259876401
0,0855096119192035
0,0876927489272662
0,08636431433082
0,0898179928619513
0,086957043474711
0,0880642721589406
0,0819468245712443
0,0872409128085127
0,0818382010546965
0,0872634335645339
0,0826693200349675
0,0883624927006411
0,0839268080887522
0,0845384926137216
0,0818746546861846
0,0836221871457772
0,0800800361277052
0,0832153311128284
0,0758535910095308
0,0847543954144079
0,0774526166736547
0,0817310553695104
0,0810550991081905
0,0859452204126001
0,0787793838502991
0,0793777332968072
0,0769422920304901
0,0827567764274149
0,0772344348419052
0,0822128373293305
0,0772140147306574
0,0820744363342701
0,0739934895762998
0,0806192803833763
0,0777404317098585
0,0829894670426361
0,0746982383649204
0,083553253968089
0,0804938732280979
0,0779144892263098
0,0755122257206927
0,0798449244949697
0,0729359289427467
0,0812169221903563
0,0746112926663434
0,0747837096415034
0,0721948351374664
0,0809263289103889
0,0722705338252134
0,0769673320838303
0,0738623913336688
0,0789678492465269
0,0732676461652498
0,0754694097339247
0,0753368130771396
0,0789918510297776
0,0757313106760269
0,0804081375012896
0,0738412681844751
0,0763412662435089
0,0760967476601038
0,0784820078748881
0,0737725733285292
0,0766010575115284
0,0745314219068604
0,0730245752589309
0,0718466385258962
0,0753874121232033
0,0716950350061843
0,0766163588286253
0,0725074705149807
0,0767285142936243
0,0705725926549327
0,0746707292434866
0,0682093058618051
0,0746182035950838
0,0683577064689091
0,0748839990049266
0,0695774040127027
0,0723428557913907
0,0713247931150685
0,0750230087885301
0,0686757054484685
0,07200487962999
0,0697723490522129
0,0716319340941833
0,0677951376280933
0,0748177203285235
0,0677788921587087
0,0744577066121159
0,0685833267140323
0,0702215569826606
0,0699530247917351
0,0706286880853835
0,068455178005167
0,0734465254868635
0,0689880283073124
0,0684630870593211
0,065306956868824
0,0715493017749584
0,0645072354611876
0,0694399399637943
0,0641443904521874
0,0662923253081373
0,0649671144353118
0,0689780804420993
0,064854514252537
0,06853487931667
0,0634522727520843
0,0660790224011511
0,0621648785736949
0,068443355576739
0,0633807831075977
0,0666773969727214
0,061980633751662
0,0685962913083543
0,0634315379612989
0,0620461053731646
0,061079991045511
0,0664175993993877
0,0637678012341166
0,0655382231425618
0,05995974830216
0,0634424905518549
0,0595418350201863
0,0635213269613627
0,062117981637438
0,0654457393086208
0,0563487912093754
0,0612442924366346
0,0598125058219892
0,0657697639630065
0,0598496514924778
0,0624599615408228
0,0582069295487385
0,0609897691334551
0,0589903449832209
0,0618698138751902
0,0559310197712708
0,0635882417290226
0,0587975036811167
0,0606928815573761
0,057690466162413
0,0576654532629055
0,0549713804910438
0,0562033831816699
0,0544328377844666
0,0602131794621936
0,0531616671236134
0,0562633580842454
0,0559362181234752
0,0584756118409188
0,0518716653587867
0,0567388051743686
0,0546406251930309
0,0579280661757043
0,0547122699886494
0,0559381651043535
0,0522160476561266
0,0580916416367214
0,0550550867452386
0,0556927094417376
0,0513867058413248
0,0510387373396629
0,0481395150043066
0,0522414438683535
0,0488336770835089
0,0534594970665102
0,0479789043487955
0,0555128002988768
0,0537081239815531
0,0535089993640205
0,0502691657338551
0,0533376638955865
0,0500527259936498
0,0528904539977019
0,0512945288294282
0,0509908246517864
0,0487680419490118
0,054166233598385
0,0492184568997943
0,0540115909521637
0,0477814824458559
0,0532136542646577
0,048268139856046
0,0497418206845582
0,0476820232758538
0,0506856785850206
0,0429087801666273
0,0507442128412171
0,0450745562660841
0,0530514480278244
0,0486104683339975
0,0481554655155953
0,0479944384308627
0,0497359277891715
0,0444760920784871
0,0502313791225683
0,0439901245957028
0,0493464549319328
0,0451795448043232
0,0478748725677506
0,0434212241393906
0,046662379999562
0,0450165518413816
0,04903112919186
0,0457886054571511
0,0472135574323144
0,0458959385621703
0,045225266431537
0,0405262876915014
0,0451837793104808
0,0439183442222497
0,0458943145798438
0,0444088389738602
0,0471917416256022
0,0432236139453119
0,0464321735339805
0,0436052494642064
0,0481523381622791
0,0440781009093141
0,0446194545372802
0,0412116198872356
0,0458267199603678
0,0435343522628992
0,0471087492549236
0,0403659300132985
0,0444412283015414
0,0429092169473075
0,046608010594111
0,0410341678933448
0,0470644264567408
0,0444733350248229
0,0474035179227692
0,0434910349151235
0,0464879468477882
0,0392691603698383
0,0426293916962081
0,0408812745874674
0,0455574091048061
0,0416539383336007
0,0450386131612961
0,0457448778365623
0,0449784093942462
0,0399939303285079
0,0449957147132366
0,0388878641434076
0,0442044635250747
0,04012497150902
0,0439119569290415
0,042047863965091
0,0453319658729407
0,0425689056783149
0,0459071542796378
0,0418228930937186
0,0453069708720546
0,0415833261362493
0,0429758075928171
0,040342420258654
0,0408353386326797
0,037261813346967
0,0417899832449696
0,0399755273063145
0,0431979596057551
0,0399233027504169
0,0420045795527541
0,0392988157959631
0,0442653816963942
0,0379993311475182
0,0441268614818995
0,0401859288990195
0,0402392010500912
0,036325858383139
0,0395899216032324
0,0389681533484975
0,0403804622051687
0,0359987766221703
0,0399474559562021
0,0378078973879689
0,0377992674920606
0,0377258253002463
0,0407805405131495
0,0389143233293496
0,0428864606258388
0,0366722275824504
0,0394682657477004
0,0378987146612693
0,0406558863471541
0,0387083291049466
0,0394380373076816
0,0390475525919556
0,0398653162287915
0,0375280048174286
0,0412610441709354
0,0386190397414014
0,0380754987796176
0,0386659736444446
0,0405355748667637
0,0366210073192169
0,0405063081586695
0,0364043778325368
0,0403145313202176
0,0374449705601966
0,0397963787399747
0,0372533206748662
0,0409947218130789
0,0353821896826536
0,0357216527399083
0,0348368667763691
0,0387868295536334
0,0361013568993645
0,0380679488077283
0,0371866495485422
0,0390721434438812
0,0330165397725364
0,0380538906612043
0,0351929966372668
0,0384270115641495
0,0349255889782881
0,0343892870747987
0,0345580272446778
0,0379475003506843
0,0328264563529383
0,0373572111905382
0,033575201239948
0,0360444612489556
0,0341487551876683
0,0367633864007034
0,0332771641699387
0,0389355270498989
0,0307086346373499
0,0342517251085708
0,0337322281748303
0,0359161942412913
0,031769400763099
0,0353500418220353
0,0324327104609884
0,0346688660176546
0,0322445176477133
0,03462803855822
0,0313776880419245
0,0354674423042792
0,0325548618704626
0,0350843526414115
0,0294265594239584
0,0339582472331609
0,0326233562238792
0,0343695380543014
0,031642597427147
0,0345841714448798
0,0334240256546874
0,0328604229693911
0,031759081373996
0,0336265206472942
0,030201820532114
0,032184546746751
0,0298318310890869
0,0325032422531788
0,0296459915267992
0,0355916054150378
0,0297658924686686
0,0338294482605095
0,0316658038204586
0,0323504200729614
0,0282005820926942
0,032273932129371
0,0291649042424466
0,030781646098882
0,0289063900653676
0,0296896402749226
0,0323184826990391
0,0314133236558826
0,0294271570858017
0,0309174272784529
0,0255762469896688
0,0320796154891035
0,0278363016633341
0,0319707972585718
0,0287597963782606
0,0326566436349588
0,0267607308210432
0,0302341818702748
0,0304090664189646
0,0315951833834067
0,0251488044196256
0,02956259674644
0,0276599388741427
0,0292297610652304
0,0258961080569037
0,0301360537323845
0,0247869784096587
0,0285009267629478
0,027050368082567
0,0294419343241822
0,0282640543083758
0,0291435398432223
0,0273511030921047
0,0271745579852746
0,0246806845345299
0,0287820054317497
0,0270790427372769
0,0276728684384018
0,0259525959050089
0,0269715541373556
0,0267805306038837
0,0286287677024809
0,0265884507997702
0,0275295174250719
0,0251523887992042
0,0285225654377616
0,0232642512910205
0,0283676416047606
0,0248998985489344
0,0289428752354776
0,0247992880900567
0,0272467390425535
0,0276476603947852
0,0273589136249028
0,0241816846363837
0,02812717087386
0,0255327743478026
0,0275897277266651
0,0262965323223997
0,0296440293301516
0,0248670336202014
0,0301926655763153
0,0241885782769016
0,0279074417171646
0,0238966119138403
0,0279256006631249
0,0206861300418399
0,0313887040062814
0,0265398809358836
0,0274276311523585
0,0192723854486029
0,0261211664887502
0,0205781597793557
0,0291361701263305
0,0289041126829829
0,0343788742977497
0,0235807897832385
0,025902498608124
0,0256832795907629
0,0355530026787047
0,0253677235327835
0,0299171481600164
0,0255986767062908
0,0284123072705561
0,0236180025349467
0,0310335055960861
0,0234989364880475
0,0316680001901681
0,0207268386474483
0,0334431425645143
0,0201912884952975
0,0300502238027069
0,0271384712116319
0,0324382992048024
0,0262284658886012
0,0293221986127141
0,0210029138768717
0,0286758856382283
0,0240865059329718
0,0341300837546089
0,0184776669261186
0,0364648976118873
0,0190467680326586
0,0388711755899434
0,0164942216090274
0,0356830092600488
0,0144463582150332
0,0356973588612176
0,00732854624472108
0,0403767047520662
0,00842443006267135
0,0480708938619308
0,0109324411246966
0,0468358764160327
0,00694553713305198
0,0410688534881429
-0,0055118800119991
0,0521579381227645
0,0013019573678679
0,0526175996438032
-0,0103076350658355
0,0514802991531349
0,00300000521367664
0,0541128979880629
-0,00791445414097625
0,0461865141573924
0,00718227612751039
0,0443994361476448
0,00799372478218945
0,032086958300551
0,0215280485328614
0,0227610926988233
0,0319165927095639
0,0207705810475727
0,0341953721663136
0,0110810142691428
0,0370936102682644
0,0115625485711329
0,0335202550747141
0,0176141237800588
0,027699416086788
0,0223413536098734
0,0215638091882033
0,0274661552425746
0,0216416927411297
0,0251513988510119
0,0206591196983746
0,0234076034568831
0,0220072522971465
0,0217330939167685
0,0264123310510978
0,0213703451518294
0,0249821749309859
0,0200492314333415
0,0245762992572769
0,0243742339536209
0,0221931862394828
0,0218494912486873
0,0227583754668495
0,024132033467086
0,0224081191353532
0,0198080322211849
0,0231723945241514
0,0224008065785767
0,022261759204707
0,0201504910985446
0,0223096386455639
0,0223874318739153
0,0199377381437848
0,0217794944720889
0,0246493356660288
0,0231391487883135
0,0206918093584253
0,0197665005719295
0,0211869764183151
0,0226511702454657
0,0195439033659602
0,023204240045495
0,0219018979206589
0,0212198185443924
0,0196735875542922
0,0228795648673586
0,020212231961981
0,0210854241905039
0,0245503969795119
0,0217675691191339
0,0222525804369329
0,0223371519057827
0,0212206112271167
0,0215170664062762
0,0220287895922064
0,0224397707397327
0,0212953014147103
0,0202526672610737
0,0234236543644169
0,0217461783993743
0,0219888662991853
0,0204800071997796
0,0212701380603863
0,0204703470863256
0,0229451849569864
0,0229571127856558
0,0216450720095097
0,0193760855329887
0,0209009590049198
0,0195772789925298
0,0216950067989812
0,0214731734665844
0,0204225964446039
0,022547900659931
0,0199255779112509
0,0203539308798637
0,0209051724466785
0,0201195242388957
0,0205562605445808
0,0220519988227899
0,0211245888933566
0,0219172972877641
0,0192867570239975
0,0218643063580083
0,0216301354310683
0,0223284519038935
0,0207694824330074
0,0224212443555471
0,0214419107790884
0,0208855686767518
0,0205318166961415
0,0209803566967995
0,0206914250845178
0,0206332316932936
0,0207708458752611
0,0221105369229088
0,0193810663361381
0,0229928046306481
0,022216029395667
0,0199401934223127
0,0199049159316017
0,0195243819830543
0,019782796896187
0,0226948242034427
0,0219851213104788
0,0229520044770658
0,0200860154050053
0,0211104832753453
0,0203996352284769
0,0222979537323736
0,0229881830562227
0,0196516891718533
0,0197640877269386
0,0218299233634139
0,0210482978782888
0,0204879070709189
0,0209857644820996
0,0216532518915702
0,0207889391186215
0,0244239254627111
0,0215939595315077
0,0220269659331191
0,020999241421321
0,0208801888632214
0,0213928636290618
0,02190376374208
0,0219223895707723
0,022051657915083
0,0196656906274807
0,0221689601986682
0,0212692997450781
0,022669086470985
0,0199197486356747
0,0210380920701527
0,0200170677787264
0,0194577934965085
0,0209634220957063
0,0200914037845371
0,0226750632701446
0,0214278671188556
0,021005327035651
0,0222010819623336
0,0211563437481837
0,0215212381417734
0,023290571332124
0,0215682589031312
0,0194758319647514
0,0208071931524027
0,0208009326682437
0,0199313828191758
0,0206430539024522
0,0223914693987912
0,021266031643099
0,021587027205719
0,022014167206097
0,0220361521738194
0,0218117572448762
0,0234963220433366
0,0233014989073579
0,0218697145194121
0,0214524198450004
0,0220636316521352
0,0210039088258696
0,0227855517834097
0,0222771578176519
0,0233356892357138
0,0222538882297199
0,02274587676538
0,0208837975466488
0,0212204355639818
0,0204858171074894
0,0206893000568473
0,0216814054472744
0,0226355472589389
0,0208992569261921
0,0220189164454758
0,0208492023219304
0,020068132278099
0,020037711876569
0,0228311507953187
0,0218863145210619
0,0202121876651425
0,0218894919709
0,0240188695873051
0,0220343180759862
0,0212857574493203
0,0218361335380872
0,0226417468253522
0,0209868315509764
0,0224484814082974
0,0218533133056349
0,0204910065615201
0,0214700089083994
0,0217971159299734
0,0215399777654528
0,0212625582018117
0,0178651098795302
0,0212242016944618
0,0202707425447548
0,0200880658476583
0,0183075428714755
0,0207550221721131
0,0216043807916936
0,02317640195336
0,020172185374372
0,0198546464962099
0,0184673420352569
0,0207905000893086
0,0180794785596908
0,0198032235601151
0,0227627049323613
0,0216941721340732
0,0221658988735219
0,0214233528453502
0,0229586620661906
0,0207894566659223
0,0195890330855342
0,0195298444918292
0,0190421173142351
0,0203210453184308
0,0202729650727917
0,0194060460468211
0,01939895809908
0,0206041959160326
0,0200463629572847
0,0215965770185316
0,0197208848234161
0,0214224580429973
0,017743005055924
0,0174395807853543
0,0200473400735495
0,0184985577781579
0,018361988241686
0,0198029484837906
0,0199851516720237
0,0201049587212615
0,0195977653442927
0,021924562195551
0,0211445894153803
0,0198228387309272
0,0211942248791519
0,0193319751800375
0,0200022812232311
0,0202396738018066
0,0204499178781331
0,0196532102604608
0,0189837569310165
0,0201740400684623
0,0180907270867357
0,0193899806220193
0,0210347423338628
0,0174643154021722
0,0195895196983809
0,020649194394011
0,0186551668233545
0,0198508736856375
0,0209137898135773
0,0213081064427948
0,018823835066258
0,020638546920473
0,0206958672086943
0,0179342653555139
0,0200639334409697
0,0192650682272355
0,020624850249071
0,019938698223588
0,0190369149123885
0,0200466563650349
0,0186694081683668
0,0199777818702641
0,017477665564819
0,0197652100129109
0,0175210412307966
0,0191275018668191
0,0180806080709223
0,0191830651349919
0,0193483033444878
0,0200662999250373
0,0187482238880969
0,0199238485904852
0,0177483769872382
0,0186972883187417
0,0183601690304172
0,0176111415178222
0,0169246407058413
0,0197145411672387
0,0165213680621506
0,0190487969407356
0,019577651249968
0,0198676954589686
0,022123520465274
0,0201682593756046
0,0203782546052003
0,0194766881912181
0,0188936176232301
0,0170846695040492
0,0197723255336739
0,0181397710611696
0,0183485236729685
0,0171816027004746
0,0205992228414856
0,0178397695398553
0,0175692822586861
0,0196153214355012
0,0190649568459835
0,0198063144222684
0,020828448777214
0,0188903521580645
0,0190766400397679
0,0185240605054489
0,0214290290397697
0,0171096078115429
0,0203035262531838
0,0173487421996442
0,0190827912870346
0,0193883502616216
0,0197458763655821
0,0163283152196858
0,0177508014545894
0,0191817896452921
0,0171517228095384
0,0167536835950058
0,0167463133091314
0,0186802836453039
0,0159399065932244
0,0166862170634415
0,0169022681899981
0,0185029857691001
0,0172449013496924
0,0192524579353854
0,0177243399911571
0,015209707123058
0,0181298922154293
0,018622891946189
0,0179414374224704
0,0186660077407892
0,0149655025229332
0,0160136523360369
0,0204633010338288
0,0199141347710721
0,0135356527187652
0,0232576353643594
0,0200450493668154
0,01951998998353
0,0140418817377753
0,0179664212679384
0,0195962610974198
0,0186057946359577
0,0137807391817496
0,0186385247998614
0,0153087741142801
0,0186111128980397
0,0172777482315396
0,0163730811961755
0,0158215213193561
0,0173679806092519
0,0167417890847699
0,0173588993755433
0,0170452922164658
0,0171262863015291
0,01809328875116
0,0181656902688114
0,0160018346274632
0,0174297515168661
0,0154593267676672
0,0189479445741339
0,0152715562091747
0,0165324253866401
0,0165253691549132
0,0190623167833837
0,0168580174184051
0,0157721658664084
0,0181870789678068
0,0173790134959481
0,015927519501084
0,0163248552395539
0,0171366222842362
0,0179824104712568
0,0170457405727803
0,0151878833176811
0,0179362419616024
0,0171163429031636
0,0183584205621715
0,0184288703602804
0,0140107224508101
0,0159568335140723
0,0148031665476568
0,0169609694723866
0,0171674053967197
0,015556926731835
0,0163782387831952
0,0138158099305999
0,0210042211721876
0,00998036966456726
0,0200544343711787
0,0180962556538002
0,0274873273122211
0,0154160241894887
0,0176932324630923
0,0144760750959773
0,017707434322214
0,0145010299907728
0,0184905144065776
0,0148413341092488
0,0166572815489095
0,0156268228568491
0,0163000324561225
0,0151083604359324
0,0178472355745009
0,0137330988641289
0,015966236857513
0,0148102206138415
0,0164721990385249
0,0183042460777005
0,0130717356870205
0,0148983437906824
0,0231927020151693
0,0171445523045982
0,0214703791896538
0,0114604050698934
0,0162384213798978
0,022695078627959
0,022122066766526
0,019880961387283
0,0109018688401623
0,0193997719848278
0,0142073252485346
0,0193530314435286
0,0091211407118435
0,0197565812746998
0,0126967478697645
0,0208086345523021
0,0167328531439418
0,0212650878884189
0,015465083954546
0,0173580721191098
0,0147135468353751
0,0168047722118278
0,0143321456623116
0,013984409522731
0,0143542678224327
0,015090029732771
0,0134732427637821
0,0155175640704666
0,0120873481986701
0,0191766580188896
0,0154660269939715
0,0199992630381499
0,0129791302407147
0,0204661814124407
0,00865429387607392
0,0210169582633543
0,0180241662501271
0,0232861447479097
0,012951078213731
0,018340454103084
0,0155671582509125
0,0158700075559253
0,015942376610806
0,0179617317360686
0,0155758641455236
0,0149293817154373
0,0151251597827383
0,0123768244253015
0,0168323044984374
0,0147895942978581
0,0165779809623554
0,0160705486754598
0,0155812737498879
0,013961483623222
0,0161055013346344
0,0151832413037885
0,012907866425755
0,0200975527378617
0,0240836689759274
0,0289605119750975
0,0150275808312363
0,0220375530102615
0,0140504418870704
0,0192468537466828
0,0113457683624468
0,0174383204046555
0,0143050584674257
0,0204008607368048
0,0132228601491934
0,0194872724914001
0,0136050565954432
0,0166861446552117
0,0117878962014533
0,0190229950322864
0,0117236216889975
0,0178563350670347
0,0121892421595521
0,0186854405567482
0,0130730221483579
0,0149904486358699
0,0168879102697704
0,0184758016038868
0,0170677788054519
0,00492470470968526
0,0324743335041918
0,0225204679942776
0,0311976058396975
0,0125840853779555
0,0213189438542511
0,0138640978576067
0,0164587082308014
0,0139721317369775
0,0182097213587741
0,0148184858862636
0,0175121575768457
0,0134700377764976
0,0190827374698128
0,0151705200792921
0,0107835458945869
0,0173646698415086
0,0346676299190314
0,0243715907406682
0,0239737947611793
0,00414650037604572
0,026832235225001
0,0209759465432617
0,0228436791475274
0,0180030967612962
0,0158164094309901
0,0178769127985667
0,0170241633842718
0,0186358924292669
0,0116244157456655
0,0209311687652669
0,0147866832869986
0,0202216659156458
0,0153601721808057
0,0160465783521524
0,0159710088044662
0,0145459562117966
0,021479726351394
0,0244299383535879
0,0180284590498718
0,0199859570668554
0,0189964781621809
0,0199595262369866
0,0162128436343785
0,0193712044351867
0,00892042736519346
0,0245338965199626
0,0176922357170747
0,0213962630140502
0,0233659313636544
0,0234918308262144
0,0175110920091763
0,0174209558346339
0,0195226982885379
0,0294373936733226
0,000765486884373464
0,0326074873075616
0,0085326181808077
0,0425594951498286
0,0180424116957882
0,0269394597029869
0,0158612301688031
0,0226153998913592
0,0106528817994519
0,0171437628616474
0,0301584464071467
0,0169590095799024
0,0272787755030079
0,00483425271233757
0,0342274498929692
0,0194677288203793
0,0257447599723809
0,0167904595601686
0,0210459539379453
0,0137711005502244
0,0413548553022616
0,0114542373998707
0,0224670729806066
0,0154723112632161
0,0362666281741031
0,0449747682834057
0,014901159936113
0,0148427552331433
0,0291058639259707
0,0260911816585338
0,0260437831231325
0,0142819776933842
0,0298043944809978
0,0042692656568711
0,0222357390232242
0,0330911801055173
0,0243501727699813
0,0271212537022273
0,0186566420401528
0,0152028172051918
0,0326653135616963
0,0243117428371625
0,0234801708037892
0,0184027926161722
0,0244132393997048
0,00174560675372527
0,0727082495537477
0,00810937635151852
0,0507935312181807
0,0131363596769667
0,0464172332920815
0,0180238678021825
0,0340478020810331
0,0131938899158906
0,0365081754250766
0,0274818217749878
0,0359171777277724
0,00538508874880994
0,0421031230116485
0,0275150733332845
0,0325610069028151
0,0285862980464417
0,0244414985236941
0,0104181273982211
0,032643078816058
0,0471889273430747
0,0582976011210428
0,0276877555416976
0,0272533083018563
0,0405690816203404
0,0298768462121926
0,0282245978604281
0,0232803030384187
0,029324487809725
0,024992713729328
0,0239997269424408
0,0341086127975667
0,0257707816630528
0,0384952370012743
0,0213811538479259
0,0298600964749066
0,0189516654571274
0,0716738664267441
0,0510225764583336
0,0321363205667149
0,0500557642027529
0,0473699454025153
0,0481805372287501
0,0331332293785341
0,0303896136515233
0,0350449750264629
0,0409405141453342
0,035921711951128
0,0225970125570488
0,057888921534357
0,0306082259484996
0,0618345028121837
0,039024120935767
0,0488343564388612
0,0237366476053766
0,0211695304201403
0,167902645136129
0,051044902734889
0,0714542859786497
0,0347853505874739
0,0697023327253375
0,0703661452040554
0,065408004620748
0,0503519818339045
0,0573495153806462
0,0491169688903068
0,0642459398000616
0,0597771856660603
0,0643109232951635
0,0731421639651915
0,0661261806415575
0,0545647602350648
0,0651031511429777
0,0864994138024898
0,133093014796809
0,0883888305221623
0,0779774529560799
0,0848677204752109
0,0975274044928475
0,0833828401631469
0,0990077255653422
0,0706119081166946
0,101835436637157
0,102782328079485
0,109601871088561
0,0893637302437445
0,102510217600981
0,1262871315171
0,0824372665883011
0,148061740213319
0,105972516102369
0,134638763340036
0,101120601108747
0,127798841658023
0,108439595586686
0,114144521088878
0,133693283463796
0,133697156828286
0,129690320831783
0,123185513064295
0,129760280664054
0,12665383355049
0,133976611068184
0,133466709466866
0,115990117330348
0,141117831541025
0,0795655716428531
0,372607988176147
0,139409102363718
0,153766759873773
0,124161890353933
0,137729586754023
0,147576276614968
0,135972086745735
0,190373761237346
0,146501916811478
0,140236608082589
0,129428530475123
0,137439309066883
0,12829757489587
0,131753190193619
0,13704271138339
0,11760157706662
0,160381735759414
0,10469613842075
0,196279247518341
0,14719305898241
0,148179054295025
0,121887463246987
0,139071852689765
0,12278035628353
0,135411693133965
0,11184901273327
0,137207143334798
0,132389543580811
0,131445748014994
0,128024949377911
0,110454250278517
0,145666990694493
0,126191784164082
0,122141731482832
0,118479709944131
0,11187409704553
0,127014459121895
0,0893668034314169
0,126722905126935
0,129542684115071
0,121769378734386
0,1154739252576
0,107866248640286
0,108500898244823
0,110803721391644
0,101880753556424
0,115847271695888
0,105147230394703
0,108901378163477
0,106249658570345
0,10451363031986
0,10656807480462
0,0987344798800675
0,109866294697026
0,0967862557114577
0,106822515561243
0,099715666291188
0,105629110005764
0,1041996701855
0,100467486448894
0,101263428759578
0,0954358988010851
0,0996537463588126
0,102326665403544
0,0991961346002609
0,102786961619274
0,0975581490222549
0,101860692680127
0,0976453474804762
0,103248937697518
0,0956985986813571
0,0991193273155224
0,0953006028068251
0,0991705897975931
0,0966763477139167
0,0997460825601109
0,0995033681074442
0,0989525847131891
0,100540656514595
0,102487637951957
0,100078759771408
0,0744093425845251
0,162296426222684
0,0963305567567553
0,106087905929312
0,0904276770250019
0,103409878228371
0,0883825637135075
0,0770048933068012
0,124307467552009
0,105781893440126
0,0980320134117453
0,091523189608916
0,0791584693620104
0,107133351756635
0,0949566017694471
0,0867269244033489
0,094092821063563
0,0651830197150544
0,121673973192783
0,0629572374846762
0,199976906131107
0,126641292697376
0,112955127846708
0,0753437994582989
0,106124005249943
0,104664664445749
0,089237095218032
0,0955116956989071
0,0593394909599993
0,128369865657254
0,0946079402856357
0,0952050734672058
0,0832396488998295
0,0741751767566235
0,106835049263453
0,109221888035614
0,0797486310317953
0,105345179170962
0,0942380305721451
0,0822177207467515
0,103335983925381
0,118694074285333
0,112488884005282
0,0794418350972832
0,0924635159255805
0,0754356777583723
0,0771205533023761
0,127635665502678
0,073660418589361
0,102747768348039
0,0690615395248055
0,0822749054004167
0,0638928636022894
0,0956826969235316
0,0720077589937655
0,0739026283761393
0,118206906520404
0,0623515977159635
0,094453532064601
0,0524648143843171
0,105049659725786
0,104555923876932
0,0919381107121403
0,0527135062647322
0,10273640329465
0,0927373704753066
0,0733077186009408
0,0912951745356471
0,0612908353638081
0,0695221398530227
0,0900707951340763
0,0554018246490772
0,0888692507068817
0,0629066379010297
0,0785748361288744
0,0670971092308234
0,102943585118848
0,114999376131977
0,0777765047576436
0,0648863978959453
0,0628948932191097
0,0589106148619609
0,0753311776702917
0,0386535291022657
0,11407139131061
0,0541285851456832
0,061889149366156
0,102903756990696
0,0689747422609639
0,063198870094497
0,0700661191270701
0,0555404069937315
0,0624343946347746
0,0588426232874698
0,110164423970507
0,0605923366277485
0,0833662240105016
0,0847121235473484
0,0752644283686988
0,0715225311821844
0,073020843854979
0,0741204077031117
0,072710927209047
0,0891110539793901
0,078503369804901
0,0785642172531533
0,0879010892363921
0,0672365353574595
0,102232624398394
0,0986238853545223
0,0745082626978401
0,121585790198101
0,0729306320871818
0,160808128208167
0,0991460565399972
0,105316443645175
0,0974263353980033
0,0969730524276214
0,110339026053958
0,0906531225850009
0,107174697855461
0,13282806970846
0,103613239916981
0,120162225107132
0,107326918367457
0,118050936903744
0,10081535526575
0,147842395416746
0,0884348913794795
0,197606239942309
0,140254163082305
0,142635699769474
0,126579074849732
0,115013707285996
0,130040095683446
0,124317847785176
0,124174139597372
0,120047638255301
0,120704227184774
0,152183587707551
0,122325786929053
0,135801206492417
0,122838453662185
0,133500062961382
0,127016759011552
0,135247315325749
0,132461234437487
0,133419998719547
0,14025019717231
0,13393919744738
0,114915315683262
0,211162331558069
0,136326747439766
0,148806924257744
0,13180847291434
0,151391688602621
0,139998033825777
0,139248442315118
0,161169541922874
0,145417562523842
0,148120796272917
0,150138885958986
0,144128138396764
0,14640168337805
0,144378679431505
0,180241587174983
0,138762636478771
0,176496295475191
0,121014222887601
0,206733608255585
0,169934629645061
0,168248085810544
0,167347679749885
0,160458346027913
0,159966165146169
0,158413067797756
0,158953406702175
0,160418853454046
0,164128096729182
0,15806293386862
0,1652389089247
0,155476214270375
0,164230804381179
0,155686645911202
0,151935959707894
0,182502925646186
0,15779757385207
0,167285547994383
0,157656431923549
0,167025665173319
0,144484682975046
0,184677941679072
0,167514453375363
0,168646255677365
0,160863006467325
0,160230911364117
0,173726067830366
0,17032954763746
0,151427577775862
0,16627208210099
0,15217676540241
0,167097999687394
0,147133316063956
0,163423128438918
0,178463284059953
0,168065563639057
0,163492389198761
0,158175047158587
0,163533818111162
0,162047361606051
0,163486194534356
0,158153850714411
0,167111988569309
0,159517387558559
0,168891206381766
0,163628616000326
0,165016428379606
0,167849161999508
0,179560191505779
0,177033443213578
0,159459585028126
0,167744661684832
0,15695871541304
0,158187471316901
0,160532323438197
0,160998840104918
0,155379635814985
0,157709650432525
0,151141963549215
0,144399573182105
0,179764241362467
0,143428264367784
0,166732586193983
0,141346607471128
0,146896459254908
0,143405441639613
0,144335068256413
0,140831105396419
0,137770181287466
0,14232371921087
0,140898439681449
0,140548179066153
0,136343874418137
0,136133951232978
0,139204970509189
0,140102462117774
0,13340087522198
0,138080544341515
0,135998869809743
0,133124065636066
0,135874582066438
0,13387003908277
0,139652036722257
0,125798377342345
0,14551485370823
0,139327346094496
0,150190973224397
0,131224899679062
0,136897625727301
0,136319676797067
0,131369085892201
0,135496215575118
0,128677352637728
0,134894350064386
0,130048524244143
0,133950806663788
0,126841740282109
0,134134127974999
0,129163921389314
0,13195288091398
0,130072854333414
0,135330438830972
0,127582956749421
0,134235267485719
0,128396675436217
0,13539384533497
0,125383095700019
0,138499384706363
0,128624530813536
0,135182592303387
0,137991342915299
0,131594565229461
0,134048016699179
0,13180206723556
0,135942324666563
0,132310996238437
0,132304090618153
0,131193557432721
0,12959114428495
0,135120488963025
0,130136350775275
0,130757655357922
0,129553588399362
0,130950077722877
0,127599593154901
0,12942731821334
0,128996119015076
0,127293854528555
0,123020015543355
0,124103899334847
0,123095882422912
0,123088030681064
0,120671037641724
0,120196741636837
0,1160399233885
0,118184415050446
0,116586852145681
0,117511002225534
0,116792606078873
0,114452975399271
0,114924474708831
0,116341464667297
0,112735734400307
0,112111511840084
0,113258161149313
0,112153565659661
0,111393176294108
0,111315328280963
0,111967837946109
0,111721628537023
0,109254375260947
0,111217354637222
0,111513404595458
0,112577513302674
0,112241495723544
0,114389299403573
0,112064531062786
0,115854007658219
0,116895467380781
0,115533804983576
0,117540048399309
0,114612122432549
0,115683976299499
0,116322666061433
0,119077252001156
0,1172131094395
0,118859618837241
0,117697064764062
0,11966510472444
0,118310700267654
0,12159250344778
0,120787621387246
0,120396624329946
0,122199639237296
0,121893992407122
0,119228083994647
0,117653366621848
0,120022595045838
0,118490427472411
0,119583904459145
0,120635006712566
0,119209242842655
0,116919065317152
0,119186999908394
0,118942890922402
0,118564289876809
0,118259784859434
0,118206221149736
0,116974658214434
0,118006011208932
0,117090737190984
0,114962553366537
0,114929126226729
0,11450031432238
0,112738875959429
0,113266331284532
0,114901899860978
0,113988396826173
0,11225076289934
0,113270679885604
0,111184491547836
0,11169400813539
0,113582095592223
0,113165538227056
0,110772393842744
0,111833524026173
0,113370414603717
0,110222968296669
0,109093637401079
0,110503768228171
0,108243656956479
0,109164360483179
0,108679804263834
0,10857607357226
0,106555492785964
0,108931652077763
0,106221652858225
0,105718513782604
0,103687113319117
0,105015079121011
0,10424196666928
0,102175225387134
0,103227956794817
0,102006986988625
0,100556072416569
0,0988664084287803
0,0985725903802062
0,0980708564314903
0,0969129941941858
0,0980837203992588
0,0978475530366219
0,0973473354112901
0,0980072037058871
0,0985476624593637
0,0960142710803946
0,0984412798447689
0,0986524561201494
0,0966817623663011
0,0960710281972463
0,0952435614655704
0,0936520980648428
0,0940989555031248
0,0945975132313908
0,0912338032385497
0,0900818241060604
0,0914476501195059
0,0892027506057042
0,0886650674402094
0,0893914010560033
0,0895093479775567
0,0887399474275649
0,0876367240600122
0,0894067053322994
0,0910362741401982
0,0938536968168632
0,0979444321805278
0,0980456079530349
0,103518009173763
0,107020367414711
0,110396001042406
0,116297694107943
0,12104136405744
0,124763861336738
0,131498935158078
0,136779956110026
0,142913480982498
0,148526626139885
0,152447883878751
0,157658473223439
0,163169709143442
0,167107990789033
0,175148857109432
0,179732963320083
0,181497708170896
0,18796465833971
0,192823479129445
0,196202499784156
0,200968734110546
0,204708388043638
0,208094627390561
0,209430784844135
0,215126959073699
0,216820737843001
0,220546005840784
0,221271815676859
0,223185850820898
0,225323118342219
0,225561021832754
0,225904218215295
0,226782386456074
0,227188188160822
0,227529292077268
0,229649736128224
0,229330591410326
0,228583727163866
0,227483253667293
0,230271263460685
0,230863758954218
0,231062478773545
0,230490624368251
0,23235307275919
0,235414341815344
0,235005988371082
0,238491213394555
0,239659698845319
0,240312902298903
0,242496968698517
0,246016790517854
0,247334951117911
0,250760014006236
0,25372340039689
0,256722303360292
0,255535703952498
0,262251454816395
0,264915344195346
0,269560662987285
0,274451753506403
0,277085325257989
0,282435375382859
0,287597217174718
0,289725260219566
0,289445370322024
0,293620285541085
0,297412104432566
0,298349323753385
0,29945350839666
0,29994801126809
0,300947031061125
0,3016071661906
0,301569043268048
0,299405723153919
0,297969273953837
0,295772151544207
0,295877935066922
0,297437038085961
0,299929845205364
0,299863582598507
0,302770701353476
0,30515199863726
0,310775435352792
0,314761242112041
0,320902939607848
0,327161045857731
0,3312629270784
0,336814533938788
0,345926137645052
0,350165467514772
0,355942057280747
0,361057681833245
0,367071315341964
0,374510270095131
0,381627935973698
0,386219852518772
0,391121552422148
0,39578881243498
0,406447836196521
0,413610701294611
0,419578352415733
0,427831687342722
0,432204314471539
0,437982060139419
0,448837467059536
0,457026158902109
0,46092119926157
0,471072748940731
0,479614305113771
0,481208879411522
0,4889113723429
0,495401264024341
0,500927850764924
0,503356817249864
0,506493218543784
0,508420768550914
0,512756018451859
0,515622256446955
0,518934467918331
0,516114887824394
0,511865130430167
0,511706540683395
0,508282656700876
0,503961733867139
0,501565316002806
0,498896347026486
0,499506211893907
0,495034454879276
0,495484274957626
0,489269832809287
0,484559464252453
0,487391398886065
0,489036593211799
0,492883110577921
0,490731468995755
0,491609288620435
0,498545707830628
0,502033181147172
0,508431352223092
0,510426557292
0,515412353038235
0,518147780104533
0,517118013754582
0,519113851771153
0,52570850384
0,524937632187216
0,524921525389383
0,530568061805867
0,529233725100476
0,536658390044722
0,535439918836073
0,5290381224653
0,526556211758042
0,524485902480699
0,526243865600382
0,522373604078335
0,52345067593984
0,521956028961929
0,51796318030546
0,51835353352893
0,513883890023692
0,509276164554905
0,505380138764516
0,499549708917047
0,498831537422063
0,491819749395278
0,486620454486614
0,486268280529421
0,478115380893239
0,471410132425874
0,466978549224212
0,465727966309869
0,455553624252014
0,44417114782919
0,43251510574621
0,424051116010044
0,414146651403441
0,39916487609809
0,390600190112833
0,375129076275123
0,360926320106031
0,347396431870553
0,330967255016652
0,314930735066913
0,302414385285539
0,292818143160857
0,278255255855164
0,266462166582002
0,260451304621201
0,254538891524166
0,247550517280147
0,242911645718985
0,242038730461311
0,238316332770787
0,235488412848602
0,234155049517365
0,231498299617538
0,228724323742835
0,226119584494086
0,225845984582066
0,220676043371358
0,216146951060773
0,213351411709339
0,211644176564604
0,210302494010088
0,202861589945392
0,198928991303359
0,196807936896536
0,188116364477962
0,185847476762165
0,180633348699095
0,171769051704495
0,165599658220506
0,161915041602545
0,155256762463723
0,149935532950614
0,142432894731582
0,133672278250967
0,127358629915393
0,121060837735584
0,116800599604067
0,10973667402273
0,103297794614101
0,10350175443724
0,096885496452997
0,0902103784644036
0,0877717736858155
0,084681410357679
0,0824140894052647
0,0772095084777739
0,0745859695123815
0,0731364923012804
0,0685992947439862
0,0699900881936342
0,0699156651643756
0,0684243811181866
0,0675663195630479
0,0671325571577217
0,0660252961438305
0,0675179654241861
0,0657496534537404
0,0652506397721885
0,0676891092323267
0,0691528983494661
0,0660786278884709
0,0657752150864708
0,0666768681594235
0,0693155508500108
0,0682012729446092
0,0692017330575056
0,068979236621719
0,0668157387211008
0,068491191384274
0,0701004226411809
0,0690084336144748
0,0698258273544087
0,0683582843789892
0,0661571660208407
0,0652514095869541
0,0680741367266035
0,0638501375353056
0,0644522742721061
0,0634638035848063
0,0635382539371693
0,0654765772711573
0,0629135344118026
0,0627209040316502
0,0639065106867895
0,0624357993260153
0,0684215362806488
0,0653854407548534
0,0647610469548536
0,0679896364605942
0,0696094711738994
0,07166514934742
0,0706029021434676
0,0701317474346268
0,072865891630449
0,0698429937196518
0,0709258297835346
0,0754628468514163
0,0787307721073605
0,073274997812819
0,076171643173694
0,0777891793155917
0,0748190651054857
0,0742128253772601
0,0763921964707965
0,0761401784281976
0,0734082934902592
0,0783425454217067
0,0800734504599451
0,076669478890564
0,0789932787376929
0,080540426581558
0,0823451722164088
0,0828729930276124
0,0841099667550026
0,0844283859788907
0,0889162258915662
0,091311327140916
0,0971171768461094
0,0991466227985017
0,100258252847988
0,103588865416133
0,106865930573227
0,109555137726649
0,109739130091431
0,105035304144756
0,106800955374647
0,108664522824289
0,103720535757079
0,0969945996865075
0,103960588776087
0,100374381463412
0,0937083699642533
0,0922539311526791
0,093972250610328
0,0908875788547164
0,0905973866419698
0,0902578320519159
0,0912091238593266
0,0920637776947734
0,0911654915157748
0,0906269653101043
0,0880134567319581
0,0885699639983624
0,0902123495706353
0,089929693585375
0,0952770678251626
0,0897308790486114
0,0859774557145683
0,0855127229475832
0,0852894267255281
0,0806743759958894
0,0807433422110295
0,0813914665365295
0,0830121253656899
0,0804521454720226
0,078996258702709
0,0799488122715513
0,077530706529889
0,0744542788542955
0,0806747922464075
0,0735115847597368
0,0764104805627664
0,078104227540946
0,0763417821657134
0,0715970042445211
0,0794480813346755
0,074417779397938
0,0754179457942088
0,07554348813811
0,0716285615410077
0,072149451226266
0,0680019799308742
0,0678862247903728
0,0689999712607212
0,0664691540444953
0,0731465912195267
0,0721715312196471
0,0647635087373538
0,0644093702438777
0,0677916096878637
0,0651922048764442
0,0627662323156711
0,0649946899676352
0,0677508314387661
0,064187977525247
0,061856858292749
0,0623936271982955
0,0616076548845684
0,05785812798613
0,062121090650143
0,0592887771536838
0,0653958580340549
0,0655227480737525
0,0642176841439815
0,056296301468627
0,0550196952211307
0,0608331764293243
0,0695035022704373
0,0641487184944497
0,0598387516861812
0,0634675472198535
0,0656275785290788
0,0542855340777228
0,0577770039593974
0,0647902321624167
0,0667883833481896
0,0662475480473286
0,066386458688827
0,0675114060626252
0,0710379532015323
0,0641167303884174
0,0694428317458523
0,0692326178482074
0,0666620267981955
0,0770807954797977
0,0777741285160263
0,0699176824329569
0,0756496364407089
0,0781303597901709
0,0759022137700646
0,0730720191935539
0,0744838843038089
0,0794384104291394
0,0891393158070574
0,0816167105080482
0,0804163975180915
0,0857746728939882
0,0927345559354661
0,095339330680211
0,0906153601086206
0,0962479172446298
0,104766155590808
0,105070851270362
0,108517226962147
0,117123089528533
0,111814073515911
0,123765508905853
0,135126972371482
0,122404930685579
0,129743551083702
0,133076101100604
0,123466196549758
0,12120883384811
0,126745006887681
0,116692767946964
0,129902054321479
0,128229669462515
0,116902777503573
0,119937414883911
0,123439647838013
0,114209700174256
0,113617014950795
0,121024938026241
0,122299409381333
0,112120433816056
0,114864867740844
0,111053166640014
0,12248235769108
0,108290736340007
0,108768864873013
0,103413964999367
0,10341462507905
0,111554110043685
0,102212156781077
0,0998528318946117
0,113712518519798
0,110464090165187
0,110928681118063
0,110353670081052
0,120027404969897
0,102280503820201
0,0925253485251249
0,0878411044177117
0,0999585693340431
0,110834711194578
0,0852875704606762
0,0931580251486804
0,111751400795003
0,102001755285042
0,100778572960834
0,104725163616692
0,101552098513669
0,094535704097798
0,10981034144351
0,0864932449576908
0,102943194146627
0,102137357968494
0,109033709233577
0,106145323862283
0,110004437306383
0,0886147792907219
0,101078534301534
0,102927051590896
0,107221083498908
0,0955522496031818
0,107402555238591
0,108359783153504
0,105981387160163
0,0994721784368926
0,102387220249644
0,10078305187789
0,108063183650458
0,118894638063812
0,110795708888818
0,110697469505081
0,125064610152509
0,0971754385152533
0,126219970397697
0,110354913466823
0,110915022860439
0,12035800621762
0,113620765787265
0,122093350041123
0,130673008484722
0,116982668493103
0,125878813942316
0,124984328122433
0,160548876863697
0,147794372767866
0,136335132632897
0,139077004014939
0,164020403930453
0,156497372152244
0,133823126046991
0,13951921748946
0,157434070698619
0,161502638492325
0,153085368580892
0,129468692839736
0,152234804873065
0,167729376064907
0,144201541653531
0,146453604522927
0,15036341218932
0,0960718053398554
0,123087251970959
0,163465589034928
0,144015545446107
0,128912332832763
0,167549408707073
0,142191030747753
0,120412376047107
0,1112970147099
0,135697567901247
0,148730269326726
0,148987316940348
0,112440556659743
0,136355585999121
0,152999332447922
0,118760073645417
0,120886859632678
0,173601560585691
0,134389155304443
0,13509219597218
0,172922709431794
0,162437616837404
0,137293398673764
0,161428148532496
0,192356216710891
0,177741263513448
0,152524106718689
0,127582085252243
0,156432924485122
0,117863335253614
0,188036842469386
0,113764622037884
0,142411155450477
0,166374557963373
0,112298494571599
0,178909854228918
0,145080483365172
0,130604524480886
0,0128601939563786
0,233375331882151
0,193152971767487
0,0994184653640536
0,125792750711054
0,0852194488153725
0,156683502931521
0,163074290307829
0,237996866349345
0,11543482268853
0,0763500460362072
0,170135233765663
0,0421013665324987
