3596
4000,36533379555
650,420452594757
1
2
2
0,0450998011377504
0,0233517063016332
0,0352886005065332
0,0206450900836413
0,035029486339973
0,0271857592142714
0,0380140744149976
0,0320196424116685
0,0354450451384086
0,0261793215395912
0,0420370509808959
0,0266295208849614
0,0398110109814224
0,0232118033434841
0,0342723360127638
0,0330957571056929
0,0415221960894873
0,0193284886799573
0,0362980085367288
0,0222370576846684
0,0341128062668743
0,02310720791754
0,04147409260032
0,0257031630841381
0,0373115345102586
0,0242622109730517
0,0311984873710622
0,0232624078797855
0,0385537247117132
0,0318162077310619
0,0400389834089936
0,0246574767217636
0,0326053825767651
0,0262878306857751
0,0377954981764225
0,0266804880024136
0,0350100286634963
0,023603818772457
0,0384190136812566
0,020174727980881
0,0380139093546138
0,0278667257652817
0,0302723499283251
0,0294953989698024
0,0396269130757606
0,0266811456089331
0,0353257790068325
0,0320492130874838
0,040567328553835
0,0169283029106194
0,0330120826236118
0,0225955349075122
0,0305286830332793
0,0302473225405878
0,0252936240639709
0,021617067712845
0,0375502243619808
0,0284997571586885
0,0356362515711338
0,0237762388126924
0,0335375205166071
0,0332104324446475
0,0316123750499385
0,0246330872005315
0,024973249248872
0,0201562526925587
0,0449606696416421
0,0236057549974067
0,0322713389207967
0,0240660559874888
0,0374705563897833
0,0151280905635773
0,039444234467738
0,0207413537788228
0,0359717892518464
0,0254900036356599
0,0377704832498315
0,01874161834663
0,0357607200713853
0,0233480193170994
0,0378155505705781
0,0291453933290291
0,0410004681121341
0,0174422877148851
0,0322203627248661
0,0197298338889722
0,0404896864145689
0,00955530708923753
0,0387378059926723
0,0301295935009289
0,0313536110623978
0,0245716007659001
0,0441051511367196
0,0176178066834534
0,0366989604448844
0,0212266863050379
0,0327774368649303
0,0216087351477031
0,0351153554325549
0,00930480646193257
0,0401212766547564
-0,00505084785281011
0,0428692547258464
0,0244012900427001
0,0374925968184
0,0390716992143443
0,0110715617409905
0,0421487760860864
0,0428750592577324
0,022421829068572
0,0273078662642023
0,0223254914323913
0,0325090918225566
0,0124500062827776
0,0337797242058191
0,0110935522145332
0,0511391784316509
0,0135986638606204
0,0327053747985106
0,0182171160102021
0,028096852690229
-0,00352125402074682
0,0658786179034765
0,0264878387432537
0,0340032950824287
0,0183134996943472
0,0237238916843655
0,0162674064537955
0,0626198249258496
0,0147997042143112
0,0313511389760903
0,0134558282534184
0,0323132127398744
0,00836245777251459
0,0441435247644455
0,03381031514763
0,0279574177938693
0,0133989817288563
0,0206110782169813
0,0495194908655931
0,0345568301327664
0,0132984813006252
0,0312855463550555
0,00167553047965098
0,0574355602826537
0,0316809238459961
0,0197837169957447
0,0185361936999164
0,0501521034611128
0,0206769373286412
0,031230563764792
0,0159472756389767
0,0335525130384227
0,0232918400004949
0,0158960425695276
-0,0286165881306516
0,0717694784504013
0,00110039800023676
0,0579477054963137
0,0334162992553402
0,0338102325385608
0,0324739708982591
0,0275374223410408
0,0302754548400386
0,0245328016417133
0,0209652181038217
0,0159201586670967
0,0390359067018656
0,0301849325623808
0,00766690039415004
0,0422569193018348
0,0283801030527841
0,0240885190407405
0,0266009658046114
0,0513550227257493
-0,0069572081179558
0,0398699792755677
0,0298011924090743
0,0253984336781595
0,010778895398055
0,0486229268600288
0,0234136894530625
0,029511907765815
0,0294481294955189
0,0287898930515969
0,0273134333168872
0,0360877986556657
0,0127386564660449
0,0301236605767607
0,0120888225369981
0,0228672147183519
0,0328989468387418
0,0566317541536208
0,0258714148244195
0,0284551490691298
0,0166170401259232
0,0196517490431191
0,0528493856542074
0,0284852120580322
0,0145985422263382
0,0268819826128261
0,0215250886941488
0,0353367253503882
0,0161616118980144
0,0281634899979233
0,0162994439487782
0,0399588646604085
0,0358864019429082
0,0212118762786345
0,0188664092150148
0,0225696279845553
0,0196469066653374
0,0157916218580169
0,0450193979759518
0,0246842562060918
0,0333610006348005
0,0309831360440496
0,0129998335637256
0,039847291343325
0,0198527095742715
0,0298278898808792
0,0194471471723042
0,0282115157833776
0,0210323866998563
0,0327230065450969
0,0260804794103963
0,0313409023534254
0,0187421621591616
0,0261868244856783
0,0202791848238045
0,0347561348601576
0,0344372732775308
0,0333913548490258
0,0186644509344098
0,0264258768632113
0,0179491911787161
0,041433696705734
0,0233852060949462
0,0244834013368977
0,0219813324371065
0,0303574986331782
0,0290036699890758
0,0329276488984064
0,0190466914951212
0,0285023602242692
0,021528343338788
0,0419885940454325
0,0358683802629219
0,0168864691562435
0,030229274212555
0,0191843677100336
0,0403065879666217
0,0206869206528702
0,0311920849751916
0,0174143295973647
0,0300624427032535
0,0205575451403035
0,0331473557158334
0,027888866297822
0,0328347509613972
0,0316092999441016
0,0352025487062677
0,0220556284965155
0,029652575556714
0,0144709680578682
0,0261959622609486
0,0446540884385199
-0,000713834395663346
0,0576023382975436
0,0446093057897454
0,0311646102335926
0,0333201511811323
0,00938323968231029
0,045127204042609
0,0556857790478507
0,028808449011808
0,0367139262905683
0,0387610078496879
0,0371608943134504
0,0137750360711294
0,0368981172104225
0,0132285279264347
0,0322401858238753
0,0317363150815247
0,0590284197647381
0,0387959015172568
0,0161764889951483
0,0593518586532146
0,0289256918550178
0,0378926747212791
0,0315932592206571
0,0316879579782575
0,0316493221421794
0,0515300320307602
0,0374455618491261
0,0387423021029931
0,0308713571599111
0,0441503223324704
0,0382595472541998
0,0374169197621084
0,0406305381429829
0,0402838483794674
0,0369790549306409
0,031745433992873
0,035401652136028
0,025922388402054
0,0385096104627036
0,0188803047307113
0,0487409802005824
0,0488015084853855
0,0379728877120996
0,0447166459362219
0,0473038125782237
0,0340699365875407
0,0435756270851883
0,0367626924658454
0,0397529075024875
0,0296644801251992
0,0369486930599926
0,0318302048376709
0,0481817646657955
0,0326433555513873
0,0443915497069488
0,033161269228538
0,0398113410270713
0,0352077362072524
0,0448174057028326
0,0406757317414904
0,0394890892933437
0,0317382477112253
0,0534820834807796
0,0455328664337966
0,0442116825765655
0,0200260678136198
0,0730337051016497
0,0424781237309967
0,0482639349368855
0,0423439512014686
0,0502990567394872
0,0498367274839829
0,0507167169204375
0,0446757580195259
0,049526669440479
0,0521776522595081
0,0601968005646513
0,0431447344806621
0,052069347899463
0,0671403830178297
0,08541758521483
0,0601672501389667
0,0549109742065425
0,0589086216844307
0,0407781241598804
0,0811465030094761
0,069821617963716
0,071346396523502
0,0683553961377664
0,0594500575271702
0,0717821747725259
0,0532882005369314
0,0737509587005755
0,0644945652114992
0,0742943408753255
0,0645386417562423
0,0827605251173263
0,0681207251298136
0,0752023375985454
0,067785846820763
0,0954951303040289
0,0878340698087493
0,0873675996736186
0,0725009368110807
0,0902479325455153
0,0657504960183917
0,119513667383433
0,0794704008749028
0,118309273626332
0,087172838875076
0,102277849102681
0,0960471814943788
0,0971499446012861
0,0964394584398814
0,100216430179369
0,106590514462289
0,106142973174855
0,0986642061066726
0,109132386430038
0,10584810899748
0,115148990375248
0,10918747580637
0,114064454820388
0,122603231199788
0,120395034189621
0,133612252289108
0,116070448987865
0,124485772594432
0,127334525976504
0,149686487062818
0,138500404835557
0,14213832313502
0,118718311394947
0,144621318982356
0,135926383148909
0,143857819459941
0,141729279524765
0,141788961922502
0,158284251651079
0,137144748607876
0,172676747539055
0,154896930963977
0,160364241084203
0,156444323588131
0,151020341100389
0,180806155306518
0,155901908998756
0,16565170002198
0,173149777392192
0,170777029975666
0,169028736311025
0,175364140161365
0,174852710004395
0,17892778809228
0,190067245901771
0,171699022401864
0,19250470413319
0,180681382673029
0,194984795322162
0,202731309205384
0,212349355107224
0,203950642121441
0,210288485348497
0,199739574528454
0,221961502515878
0,215787499749999
0,228090046149834
0,213511431961971
0,213411434898738
0,220109319360402
0,22950232175632
0,238057845390926
0,22682210034687
0,249054618597738
0,241256851821282
0,238117760773482
0,249703437987597
0,246954101144888
0,245764246484798
0,246153851068308
0,262701162096434
0,255182848420449
0,255406927785971
0,270309401560269
0,276216748278161
0,263959435888289
0,281213661425077
0,282487730860318
0,269065358552263
0,277281471570745
0,277514707266956
0,285374844919854
0,287450731683875
0,305371540986989
0,303202034834212
0,322601335683028
0,3171040451754
0,311691095300476
0,31964164636813
0,305711407897326
0,334310713088378
0,304740295512449
0,31525605093742
0,33251349538367
0,343249026803113
0,323110396673132
0,329918820055384
0,339170082294779
0,356690979845379
0,358469990976517
0,366368808798436
0,340591086115488
0,371683899331488
0,367730732957086
0,362232797823078
0,368290306238715
0,376706388701125
0,371623243982038
0,375011285929266
0,384697974941815
0,394081829299398
0,391173773804501
0,401292960907037
0,388299399671171
0,414293470862626
0,415279765399096
0,409514995551771
0,411257061480936
0,427218478002426
0,427238631626597
0,428262626123741
0,438409319767537
0,441974620686058
0,441039603000933
0,451314433860675
0,456300400627387
0,460197538595096
0,454947041401848
0,463975208390174
0,465446497461407
0,443306525889137
0,445412138208313
0,479755356654511
0,478310843693286
0,505412433991972
0,48697532220494
0,481554984668427
0,481889045940271
0,494960173226713
0,501301132516953
0,498936052499582
0,503872212850102
0,513054358479232
0,517124947825877
0,525682552528859
0,534137180788117
0,514654204872579
0,532428813430167
0,525903571648451
0,519691520342537
0,544184780000742
0,563883079143815
0,541311349893291
0,560950717054648
0,544470234409529
0,555856808646868
0,567124759547409
0,584441219749633
0,577251965032764
0,584847356762501
0,588283477208998
0,598194559569107
0,609892679590561
0,609759212409699
0,602721537884597
0,623439773483373
0,600270021974185
0,632171254709988
0,623598279776429
0,643790125764712
0,650769885509697
0,639997210208941
0,644552260411547
0,669512729532594
0,656519215196569
0,661969026376428
0,647446557940672
0,653901649984845
0,642433096982677
0,646614883088824
0,654449226968768
0,688631664980233
0,692879756799428
0,692530904383294
0,68446859732682
0,700929668522683
0,684894653876603
0,7223479868626
0,702068738332371
0,672309627415201
0,698781223616729
0,727253668954093
0,731826062172324
0,73908821303592
0,747515135239989
0,768349846350786
0,756815198688044
0,775371395059308
0,74358833012505
0,762515209233356
0,743865159669729
0,786557827622216
0,772146610709137
0,771295032494713
0,753104729311184
0,773416761902905
0,745760655784362
0,779042289160395
0,791519542482459
0,781915685779982
0,772600737337301
0,824492483240876
0,811619440851092
0,802489581595243
0,81573680043784
0,854443688921968
0,813463460233141
0,803472379464839
0,796774082270214
0,860280327223982
0,807328353066606
0,828612119099992
0,800629564826559
0,846794941520995
0,819434077015901
0,828222236731676
0,831931658377013
0,840166428004631
0,827997436436527
0,914546627825755
0,877707994146954
0,870622487379859
0,837474078006057
0,867118070156596
0,876289900967665
0,897246406838693
0,850158797065688
0,878424949829776
0,923872602102053
0,934869459073575
0,922315095168104
0,899079268983912
0,843108597744113
0,952597484748218
0,94618183237303
0,969220563143824
0,889478218748612
0,945188600805299
0,921474372378926
0,946352022486758
0,910603844085279
0,931923895294968
0,920098713103781
0,970053220621688
0,93445484520703
0,947998355270006
0,972809475097428
0,939516448319175
0,913628019091891
0,996969194634684
0,941954176819419
0,948680633849124
0,921302969344233
0,953986460964051
0,962888988806054
1,00137134838875
0,973565294559554
0,998341166949534
0,984403593726572
0,957312732586208
0,942280822231766
0,996151662635481
0,945870029903857
0,994962970615154
0,984099405601392
1,05873739924635
1,01706706498193
1,01274957157439
0,983585362101827
1,08040839141344
1,01870241899279
1,04051689673867
0,993856651649137
1,02148735860877
1,04027140774258
0,99862178331064
1,01096449828208
1,04736508399212
1,00934503776746
1,07053205039893
0,990916474378165
1,02746840501878
1,03839137058784
1,04469269048263
0,998620137357628
1,03904084882214
1,00028414911588
1,05668315622811
1,09077798256988
1,07000316360541
1,06913481921256
1,12132914559619
1,09421050329762
1,12684382370947
1,03627649507389
1,07557854197212
1,03237933791373
1,04631188066503
1,04366976860964
1,04403288265287
1,07963496132154
1,09421816253848
1,08087794564965
1,08286552890756
1,02862903044215
1,11040031585654
1,05877248131786
1,04770489010268
1,05346021965188
1,11059851341495
1,04252549678675
1,11225801780948
1,03791193950513
1,10738611477399
1,10958409400767
1,14250090670162
1,05790224773139
1,11274778148902
1,08954960218005
1,10240742293978
1,03624339166169
1,13636158161707
1,09795312401831
1,08934146374365
1,05594984881912
1,07560708396993
1,06110247822093
1,10812368043367
1,10147277065925
1,12678014938035
1,07979276391527
1,09703754085572
1,05665360838098
1,15534051690863
1,04995082219686
1,12803533017517
1,09322658843062
1,12870219212375
1,08577752806999
1,14543060622864
1,08389177152131
1,12772144474382
1,07018101236563
1,13199369924237
1,09363890279341
1,10134390977388
1,07301540012189
1,09725120820483
1,05590405572509
1,10320622857365
1,07123230932706
1,11542432273498
1,06991378152134
1,17832032149576
1,09754738234353
1,07035877253358
1,06677963459031
1,11056201993272
1,08578643873358
1,11290018005292
1,08862214961864
1,17987428096255
1,10157531994512
1,12673366415506
1,08608304392382
1,10904854886815
1,07454994195958
1,09713131825169
1,0899016622474
1,11330248668634
1,07673507027749
1,14685195293202
1,07805351145419
1,08918471576963
1,07207069182888
1,12580333360005
1,11044480085211
1,15829906942118
1,07749788012423
1,079905323878
1,0942069019911
1,17720516916619
1,06017917050777
1,07734736724779
1,05334353130768
1,1253182086756
1,08475777988556
1,12490712989558
1,08564786383193
1,10939497599392
1,10887280329386
1,09170124044981
1,06456055045589
1,08741445611802
1,05461645608579
1,08926487756521
1,06851081916822
1,06086458762269
1,05914037654149
1,09614871461709
1,08873748366277
1,11724592905305
1,11439697295742
1,08179026984472
1,07680446387801
1,06448742427652
1,01052704616918
1,1113217540027
1,03395286370433
1,1012549880714
1,046565992206
1,05849265866536
1,06285752534761
1,07677690847036
1,00643881288364
1,05899166665501
1,02121108735811
1,08803478591819
1,02396299443069
1,07099968369846
1,0138901017193
1,06812970765005
1,03001568340684
1,07473100264567
1,00066587649434
1,06272934647667
1,07056252020808
1,03052033730587
0,989555314534712
1,06619792209888
1,04774737186931
1,04030658317207
1,02222007423748
1,03761778318401
0,964904770350348
1,01471929867924
0,972899809168693
1,03746408738913
1,00216625779794
1,04221680250238
0,993180692598003
1,03442331543791
0,971443787791877
1,00563185157876
0,97312765960189
1,00617051535091
0,947180422278346
0,983047523032747
0,958178047803123
0,971218044334956
0,958627113544158
0,991239171772335
0,980294177494204
0,977571977954187
0,992099829946845
1,01439926723088
0,939282460563097
0,997094395077417
0,968361536170738
0,973038410384699
0,940506540751714
0,96837110400413
0,916164208030107
0,95292171062043
0,940523158632128
0,925990952828256
0,936963352136371
0,918582932222136
0,903013005203077
0,914553939263819
0,897320383822768
0,911857226238455
0,892451613435136
0,92975448729423
0,9152837604878
0,931694162458414
0,904178978077136
0,920363959300013
0,884581578486618
0,904315313008026
0,884835238980362
0,903188510659342
0,883973205490501
0,905538576532524
0,861406033308188
0,868047042350472
0,849811990593626
0,876536370304622
0,832188907595731
0,892431509519551
0,857121528936706
0,864090687598156
0,855752181252128
0,882651461043979
0,836216377438763
0,858413808226957
0,822531950702845
0,834013441309903
0,840908747219895
0,838470133613021
0,829042469473477
0,821619604419439
0,806044147527895
0,82446667556018
0,800122659493087
0,805677827050904
0,798466344829018
0,802687338985955
0,770309073210545
0,791994227432832
0,791986022034323
0,789403022201285
0,778073081763599
0,780135690671281
0,773788961251318
0,767471330033467
0,758459037139921
0,747066786693725
0,763305470918947
0,765940824886833
0,754162513986492
0,766119433413678
0,735923779121355
0,749738419231529
0,744482098145592
0,723888330932769
0,719948122247205
0,733605108559965
0,725084017691261
0,741165206828698
0,715514365752116
0,703979915126806
0,699938870180508
0,709130446392054
0,717819376561672
0,719617218108522
0,702786342354654
0,692450142185227
0,692862980830762
0,704784564668221
0,681089152410294
0,698967591398623
0,66878393959111
0,677925246457456
0,659766839511886
0,666390426866781
0,655829522179977
0,670290658563791
0,649259299706847
0,66554269736918
0,646854938518132
0,654524955486875
0,648900717617709
0,647644087234424
0,631370071706792
0,63252173584505
0,629760680610388
0,635633194102037
0,620247965628574
0,615209596074943
0,625532562746667
0,629906163496255
0,595389890974065
0,628646014836507
0,612033516630332
0,618819943578193
0,602448516935572
0,596361967006284
0,589128669559499
0,594970810678275
0,597164151390475
0,598519256653901
0,584573878576084
0,591996664275795
0,58865075742398
0,584600149157517
0,576614479783586
0,578843581907125
0,553653415208977
0,580882523771747
0,557164753650954
0,581964647067292
0,561250900126748
0,551940119518841
0,55733422533381
0,540049142547879
0,542075746929302
0,555301827846043
0,542736389065582
0,555684247364959
0,537977008166826
0,539998033201392
0,529635717012409
0,524644498560154
0,525661407555934
0,525231261491004
0,511589647928893
0,529811749519867
0,52173656249347
0,523238057828094
0,517327818358757
0,518933612980555
0,495774175393719
0,509119977528045
0,491340838902637
0,495729452229545
0,496749648148322
0,496797822402939
0,481113559512546
0,490396600336752
0,480955805993995
0,489553084754908
0,475715264224806
0,485341846700857
0,473484973193554
0,482911280582221
0,474205322583859
0,490318783445094
0,469493059330449
0,464363617063294
0,45524276741592
0,470017793651634
0,455436760189214
0,456407357102953
0,446641818172348
0,455634536296792
0,440701273684374
0,446084330538357
0,442372333464956
0,447164613880939
0,436707954453411
0,433032759528905
0,434051887773547
0,435147234280089
0,429295327365754
0,429924790209465
0,425516670910167
0,423972852015392
0,413967363431684
0,420902175453009
0,416639918963703
0,42124903809831
0,407732202500554
0,418899350363278
0,413595188853264
0,408348526004999
0,397018488421321
0,399972661483396
0,3926547910724
0,402028804898866
0,39318934158004
0,398329653449007
0,395001450900207
0,389880165686785
0,384096796718963
0,378543383744125
0,388048871905638
0,383719906485226
0,380434418967742
0,376888155578651
0,374127762371297
0,377572004368691
0,369744123661661
0,362569231483206
0,367330962347584
0,366905844970553
0,358502448956658
0,364097326640397
0,357742975477524
0,360627475073901
0,355341721546928
0,354411364279038
0,35257043347202
0,357826262488596
0,34989558763797
0,350742490586781
0,348334553779427
0,351512732190039
0,346417242748883
0,34302511046079
0,340705037152513
0,342336517793894
0,338994956920221
0,339293699866917
0,334142835508642
0,337720924590202
0,332690343047081
0,343444118930156
0,33797829329181
0,331724593099488
0,332817004631509
0,332996640049583
0,335344645053797
0,34381362952702
0,336308459356835
0,339681983272986
0,335187177842111
0,335542532660346
0,330748219219755
0,337825692382693
0,340420958704007
0,342315199799226
0,341345997281346
0,337408124325062
0,335252983478972
0,343596909150644
0,334070049402794
0,346408913915657
0,340685961645209
0,350083453894602
0,342666049582186
0,352394374629658
0,353279158548921
0,350151916194794
0,351556118698366
0,356337528618109
0,348968614217663
0,359991052209724
0,358868087928491
0,360393341156719
0,363194916611051
0,367615736664253
0,359773237319215
0,370151341381532
0,36779237101526
0,383737639018221
0,372269280400826
0,369599372666176
0,372526731134374
0,377799689401258
0,375598782331408
0,381245905532687
0,381052630466032
0,386839783701744
0,384334270236581
0,39733462031963
0,393657460418583
0,400373145094838
0,390336885300344
0,405334549643818
0,400374466036076
0,405263791914137
0,417980213466318
0,415393915953561
0,414902005223943
0,418870256722657
0,421179756347614
0,428395801485314
0,430530970929743
0,438678577254994
0,425754920165404
0,439516852752001
0,433845100422611
0,452195052906979
0,436694236391875
0,447827587890038
0,434438916542288
0,449996303826031
0,441831655557298
0,457689122865904
0,445441878963973
0,456296428061512
0,443919257393292
0,455927511320709
0,445417387442101
0,455653118776474
0,442272678436699
0,457705412873134
0,447227535123427
0,462899387531483
0,452688043125999
0,450788541981101
0,451725834019584
0,458203374360699
0,441880624200047
0,448487166333588
0,43835013732277
0,45085502918652
0,449202597790533
0,444267441038382
0,449783574732448
0,450499387550264
0,444556220093635
0,452346451325737
0,449062226399936
0,442707420536586
0,439397003628313
0,448793019633605
0,43800321795707
0,447224217515118
0,43380827459295
0,454170246396418
0,444912384425789
0,448698666218802
0,440226570205591
0,450160850647635
0,451145671582107
0,448048685943514
0,443698803315314
0,446193863227011
0,44225903566994
0,449979309523786
0,447751986036662
0,45090043317934
0,444085002475895
0,448569947186444
0,437959061171115
0,441802669812176
0,44532812549287
0,444119114671628
0,433070858122317
0,444595148868641
0,436903254188433
0,439717536731286
0,434671898316744
0,43129050299307
0,427787881206441
0,438566210789028
0,433375606103781
0,432177380588941
0,421990581877072
0,432042744510315
0,417883395085014
0,414422643907757
0,415219973282286
0,424021429352973
0,413777937334614
0,413174661152825
0,409049849325081
0,4173489648494
0,400158328276818
0,404790258581325
0,396583961997984
0,402298379496428
0,389866098753512
0,38330572452406
0,382686886503901
0,391565873925989
0,374758410852599
0,37808702793047
0,372062275759708
0,373436638273485
0,366974487272233
0,365825228036381
0,36774751735434
0,360411305802722
0,355164903193759
0,356282379614172
0,346292407157522
0,352907963549359
0,345334625763647
0,350275804959399
0,33721094264968
0,338203057023666
0,337982082188068
0,336907453292218
0,330836984570383
0,330594028275528
0,331712748020346
0,327556793247848
0,316682113376649
0,327497975404657
0,319684379623743
0,324454270221956
0,31063821982126
0,311304833984245
0,310835132866012
0,306690192338614
0,312358615678522
0,306476977509972
0,301386416732165
0,308516891302201
0,301211040140563
0,305093828762625
0,297135345446942
0,295406193691861
0,296109919389
0,294485368309205
0,286736545372341
0,289261914546856
0,28406751193346
0,289733631936966
0,283713256683437
0,281205325081531
0,280106287811463
0,28395744262796
0,27545550972056
0,280392656913617
0,276487200707662
0,280264199136682
0,27188522845107
0,279496593248372
0,278138798897055
0,274898677107205
0,266581590856054
0,270731755017856
0,266289470560952
0,267185094834802
0,26436019111718
0,269587320111565
0,265705621601642
0,262306279539158
0,261546382940725
0,259712861905641
0,25530353948065
0,259322301887495
0,255461289006476
0,259703370604434
0,253330891973469
0,25389482381935
0,251505656459667
0,254053919698255
0,245406673768277
0,247685358942908
0,246521032866125
0,253587416140393
0,244188205945418
0,25031510201751
0,241093124645665
0,242220545095496
0,240139049314327
0,245036427317235
0,240505583676198
0,243674028481592
0,236615416125669
0,240700624317867
0,240463691031843
0,239551522507711
0,233470620747503
0,237700730659127
0,234162168540029
0,24004154306178
0,234672513538852
0,232142297946914
0,228730335484618
0,231867916703928
0,230191405712196
0,232342325376707
0,226872278734995
0,230469075046866
0,227149725836259
0,226539968265684
0,226536020196814
0,222490861716819
0,226775757193897
0,227981827376996
0,220714967610388
0,225670234715734
0,223559480146444
0,219060469537863
0,219749182582937
0,224192651719571
0,221074002533633
0,22421678598583
0,219622900212934
0,221147817162575
0,212920745699336
0,220346988014279
0,214848439585051
0,218908944708454
0,214475119930729
0,213674007041052
0,217353033121335
0,215940137946887
0,213679311294731
0,215845838036502
0,210491229668133
0,212304369748161
0,210561237870134
0,211553840179095
0,210125213252947
0,219388103823013
0,21160064389103
0,211263802607688
0,208731172796671
0,207241182595184
0,210948924744686
0,213775689985326
0,210789077040919
0,213624456257887
0,204585640775336
0,209797724850834
0,206074537226898
0,210431496828295
0,205403632947469
0,208548475559425
0,203412347874025
0,205301206534878
0,20429458721827
0,205688622978558
0,202763145669497
0,204540892831018
0,200605266995342
0,201734980772497
0,200023366168396
0,204463921919685
0,200799384129598
0,199998182870266
0,203465053650627
0,199249752845946
0,193784542747844
0,197315526965276
0,193060838981855
0,200506761360661
0,19765814672351
0,19957501336899
0,195057561996822
0,196552732789571
0,192957930205533
0,19572492193398
0,193703287291689
0,19125509430708
0,187456294824091
0,196171947431595
0,185617714262473
0,190235875771202
0,189018740128865
0,187033485252812
0,184820523819032
0,188960642333724
0,186134921211855
0,182720162795006
0,184392831360361
0,186381958295132
0,184175123274035
0,183470179304235
0,182222580683436
0,182133113654494
0,177156398413327
0,181340152917561
0,181509361543346
0,184613393661771
0,179374482466129
0,176557457604113
0,177606291077685
0,179164375652523
0,172527143347548
0,176832747545448
0,170233827759508
0,176545439605566
0,173498024072728
0,17549439855964
0,171726371402173
0,172465143033747
0,172737193254726
0,172700540910701
0,170414124442507
0,169706464403296
0,168641113631126
0,164220329249092
0,166090560493534
0,166378683032224
0,164038666269469
0,163182068522753
0,162557830471374
0,164467211459913
0,159416794256592
0,162823853847227
0,157068004413957
0,160305863353261
0,156884223570169
0,158040611815107
0,1526148988651
0,154703334781401
0,155746683959965
0,159333913187252
0,153073650203627
0,15668629692142
0,150955364061386
0,155228824239052
0,149199435358872
0,153418770388743
0,149977529763209
0,146906002428758
0,149144496173639
0,15038528702872
0,143655539115219
0,148259926956791
0,140987174431835
0,144278119431862
0,144461446664562
0,141290567913519
0,142648747044504
0,138669859047734
0,139269960384663
0,14238326519729
0,14291318529623
0,138879662225128
0,13713838931762
0,144088887265245
0,136378189976823
0,13732349035337
0,136003220023213
0,136898388943249
0,131597248376658
0,1369682072062
0,130015386662214
0,135200699411452
0,133626558515883
0,134498258369834
0,130093212251084
0,134746135021747
0,131474463845971
0,129492452906528
0,126386027624005
0,132966207862927
0,126624129703079
0,131430222596976
0,126139730969881
0,129205956003145
0,129312972562748
0,131346606692809
0,12451696321069
0,128580421458149
0,124971059533426
0,129917409729051
0,120731718302335
0,122563613639696
0,11954535740614
0,122956635356492
0,122731918122231
0,122934169035949
0,121070772055144
0,122284027363998
0,12047127132517
0,121834044950589
0,118289975356959
0,1237129195822
0,116292019545092
0,118199459805282
0,122022211207672
0,117689783345074
0,117083581410444
0,120347715969256
0,117072043382852
0,117214458084532
0,116244672325942
0,118825741768601
0,118016905212092
0,113389237356721
0,115721450693464
0,118490746145883
0,113214040318873
0,116690766323562
0,113174037699615
0,11527875434636
0,112272792397197
0,116707036567491
0,111121913849381
0,113858411057783
0,111678059812535
0,11568976155588
0,108249643418476
0,110939081275373
0,113014022803361
0,116341323703156
0,108866082232576
0,112079960324919
0,113850157018461
0,112198515421462
0,110511728192355
0,11364095887367
0,110540419280206
0,108802802689495
0,10822384947285
0,107452520368096
0,109847786933137
0,11039159582092
0,109377915128691
0,110462809043362
0,107591634039871
0,108222249156229
0,105883512207151
0,109209864506671
0,105893375494993
0,108071942640886
0,105563161016533
0,105703550712629
0,102513458150278
0,105695668998115
0,103100149665263
0,111635553715432
0,103796957510297
0,105331702982723
0,103462208228491
0,106680532511897
0,105530238291462
0,101613635764147
0,100167439331851
0,105376022388427
0,103730065031347
0,106479203378513
0,104742378090144
0,104689957326651
0,101052806829435
0,102736505031717
0,0972029865850675
0,10067553642937
0,0982088532232986
0,101222070481318
0,101664126318867
0,102597059669556
0,0991610435397517
0,099037200509884
0,0972020162155464
0,101698929291875
0,098264299968748
0,0984357778216919
0,0976304335350545
0,0990871908390118
0,098314276025944
0,101160440461764
0,0958678166572067
0,0997690425245096
0,0958018735482686
0,098808856820145
0,0952139341109733
0,0955130326672782
0,0931133032425807
0,0959549120218446
0,0945289686529954
0,0979381853937641
0,0937116224437838
0,0964258390821582
0,0930736222437781
0,09651310166939
0,0930789616542825
0,0967125657813637
0,0925219417212198
0,0942860199481683
0,0907882721504873
0,0942525239031318
0,0926393732775342
0,0912492021403737
0,0919793993173114
0,0901466117549864
0,0891075368630701
0,0918297704995779
0,0912847375987292
0,0911728825618523
0,0896269632939219
0,089574185273338
0,0893001701416791
0,0899997841391155
0,0870227838884021
0,0903211895235514
0,0857262270175644
0,0884951590633303
0,0851429386094924
0,0890280935657631
0,0875956119694486
0,087596108179171
0,0826696853557816
0,0878058328157088
0,086472971432439
0,0875609166203903
0,0845699985394599
0,0855032026451896
0,0825758243657846
0,083342447873704
0,0827957451048596
0,0870644678688535
0,0842511551139638
0,080777513658276
0,081981881623376
0,0862672175007114
0,07916728845591
0,0801819059283417
0,0766809983651278
0,0787914773145282
0,0784962113704726
0,0807848289252243
0,0775794534357277
0,0830918347359656
0,0781645701650098
0,0784185238119745
0,0762570268748162
0,0780437644260058
0,0760089542971985
0,0784245443506726
0,0777870387478708
0,0776002661845539
0,0738820084138054
0,0755782780980868
0,0730222829091206
0,0804485886893996
0,0719623243330951
0,0749035535381854
0,0767871749471848
0,0757442405508426
0,0737443734583796
0,0743424335831616
0,0725468075498048
0,0748464385446595
0,0722763268086917
0,0729154230353889
0,0717844455549024
0,0728867783823313
0,0705272052065987
0,0733844174972694
0,0718699253881812
0,0701393677511416
0,0689212112728789
0,0726851114745796
0,0699985095702668
0,068157832192875
0,0688065676661941
0,0705043899997161
0,066073054794425
0,0714639687631834
0,0681378812321477
0,0654150703971782
0,06673080196246
0,0723045205863715
0,0654780470446648
0,0696889556516374
0,0657279716854285
0,0709025202597739
0,0642703976531193
0,0692789893166093
0,064442868243992
0,0674665971394694
0,0660117478883917
0,066356781302528
0,0647418830585725
0,0667587143708005
0,0635695076635752
0,0659923473086131
0,0623992482347022
0,0672985386377233
0,0624007515027017
0,0683514626033645
0,0642678724851681
0,0653133051833748
0,063065547025656
0,0647498535375346
0,062788085561445
0,0654429342965193
0,0612214414276321
0,0657132460536235
0,062111235041437
0,0649430016881544
0,0618194823444722
0,0654736493184819
0,0608350652693259
0,0641162047524122
0,058518936066244
0,062306582237689
0,0597341548101976
0,0661709594168374
0,0612138477380106
0,0646255800047573
0,0615907275854523
0,0646156590614723
0,0639225946129847
0,063622587289273
0,061260460705329
0,0637303778094553
0,0605391325259035
0,0652200973093739
0,0612747743399892
0,0656109403131108
0,0626917100287301
0,0619783898297329
0,0581373286639481
0,0638670307869213
0,0617141238616698
0,0671471465743235
0,0586676881780565
0,0650901805650858
0,0576930719286257
0,064406239954087
0,0633494659005576
0,0675022822136574
0,0588573659502351
0,0674816408166797
0,0585045789075102
0,0713160354169954
0,0583336651498389
0,0686001561438888
0,0604035629802462
0,0598709139112643
0,0613183057417972
0,0652314046997738
0,0508845954563857
0,0602856864211466
0,0518404876860651
0,0629654864932811
0,0523960889874649
0,0696144476384028
0,050181931090941
0,067581994630772
0,0473820703200502
0,0689509791801179
0,0474227487170659
0,0671430446540542
0,0492702645259495
0,0796044051541251
0,049140509958892
0,0713570558926637
0,0450986542442174
0,0737585191258884
0,0370197111163196
0,0788979821308143
0,0449497090911518
0,0852060540909824
0,0371986135812255
0,0806725177769442
0,0373446593228498
0,0813934668703599
0,0396981638511865
0,0830958590147261
0,0330176233147371
0,0783331198900769
0,0442118133143255
0,0698379117454619
0,0479950272397798
0,0688122063742169
0,0543879342056781
0,054040388282266
0,061477077041353
0,0506657361734251
0,0663884091722298
0,0474010545783658
0,069377465655787
0,0446948221390181
0,065884929718553
0,0496614377642733
0,0598366716427661
0,0541699358651517
0,0542132662880254
0,0573040818876964
0,0531111569611864
0,057943501116533
0,0552764011233821
0,0554738366191462
0,0569422284279721
0,0527885977760076
0,05631822566729
0,0529510283852188
0,0566427550559502
0,054532867770841
0,0565760920818843
0,0569268434978096
0,054711303102743
0,0533573358637233
0,0544582342177381
0,0535138454101699
0,0529209713660852
0,0552607102759393
0,0584568863410945
0,0536594185771089
0,0500768979552838
0,052407930967064
0,05402641976248
0,0546596301773697
0,0541426964401639
0,053840334857763
0,0565566774779181
0,0553284722143198
0,0563800896533125
0,0550783405350674
0,0555522397730389
0,0540068297545242
0,0530169593975048
0,0546028403070762
0,0544990207154665
0,0558582012687399
0,0568852953048227
0,0549096378530603
0,0562931391169882
0,0546755204964429
0,0539695835285118
0,0539257423761464
0,0540477458502485
0,0552045778500619
0,0548804321141609
0,0557240655444269
0,0555091945299381
0,0556416113866007
0,0541537364855288
0,0529545484086828
0,055837496169433
0,0549452619110438
0,0552110814166061
0,0539165502126658
0,0551396954086106
0,0539240089853561
0,0566694231183567
0,0548935568729378
0,0555881482586511
0,0567161582243984
0,0572851939285057
0,054781614671145
0,0555217110693674
0,0538481006723966
0,0538474837735655
0,0568916662615402
0,05631899121674
0,0571248129176401
0,053029021359308
0,0549423789982221
0,0549518125340706
0,0580286353105104
0,0576181778883106
0,0557214374844228
0,0554867678348936
0,0567710386156636
0,0564590417050371
0,0553135840798429
0,0560007875235846
0,0563886544536603
0,0555482551719765
0,0563546735489495
0,0574980034272346
0,0572252531376926
0,0543495935284536
0,0565626602125706
0,0556081031212335
0,056635098310027
0,0558663528371397
0,0577578407964119
0,0584977391781324
0,0588896061946888
0,0591889640159284
0,0583501819596117
0,0560595125455523
0,0544936685494515
0,0556182746746531
0,0577471789074643
0,0592496942220336
0,0580486612170862
0,0581579457672507
0,0584076668816151
0,055996431949957
0,0558434858491926
0,0579625013610537
0,0590641202207133
0,0570438760555071
0,0594457467563266
0,058835775897815
0,0576342487102154
0,0583705305727658
0,0591846092053641
0,0582022044651279
0,0596374957125513
0,0593011482344982
0,0582718828228197
0,0571392092058845
0,0588196176239325
0,0589195290903583
0,0598855782956073
0,0603368151795618
0,0597130087301172
0,0602846014827354
0,059784717439784
0,0584837804633242
0,0595032891818418
0,0595072172771452
0,0607370322954291
0,0598447639092479
0,0577500078434978
0,058657796127616
0,0581994111332553
0,0585584833905719
0,0601560141280569
0,0589314532439405
0,0614779870464222
0,0605521532231585
0,058943052899359
0,0617781865519863
0,0626967971761533
0,0596213970334813
0,0614894895806651
0,0614971416105636
0,0607941057534535
0,0609743542817143
0,063340480831316
0,0607484530706527
0,0616267607036469
0,0615996583256328
0,0602315249484202
0,0621132984565075
0,0626895471046551
0,0630129128139914
0,0632644143053126
0,0615307268638567
0,0618154355432349
0,0611974250774648
0,0635083991956431
0,0634625743049742
0,0639230070242507
0,0621302488689432
0,064072635078826
0,0613379255940371
0,0630184920093976
0,0630781945675151
0,0619184449303914
0,0610637696798982
0,0627234715655238
0,0629177979364062
0,0648243354683175
0,0624009613766867
0,0645937371924891
0,0639174565079678
0,0615250389644259
0,0618543260418038
0,0644405636079052
0,0622375655252978
0,0607469539481793
0,0619084035679884
0,0634800796062474
0,0615471675709431
0,0619969485069189
0,0618500055383579
0,064159779555825
0,0617195520059292
0,0610594895672576
0,0597200109140543
0,0613240270190722
0,0592359226944519
0,0600673225041305
0,0605843956817224
0,0601214436226142
0,0598659411440698
0,0609169010709076
0,059796307460923
0,0600645265987559
0,059076276664194
0,0584061287463203
0,0600162563362995
0,0596556131271751
0,0610804936414689
0,0590507248821869
0,061136123736596
0,0610071654712359
0,0595254654844059
0,0593073051859355
0,0570729790026507
0,0608821356577395
0,0572556428743902
0,0596079013528851
0,0595541638997231
0,0595237774145556
0,0585157314578041
0,0583585083013475
0,0581527646737983
0,0586149425828966
0,0568585391897986
0,0577355615785493
0,0575569959110025
0,057434848478131
0,0571255839204853
0,0622009534829202
0,0588512452447077
0,0580431525233168
0,0576074624481
0,0578388510572236
0,0566581680042119
0,0589717599041934
0,0548416698178898
0,058623777944592
0,0582778731382598
0,0571141303171859
0,0573117812185779
0,0594474634809517
0,0579256549092445
0,0578552175003844
0,0574518971828314
0,0579574990277124
0,0568787521607217
0,0583656622371632
0,0567198436416491
0,0563316359715185
0,0561479954299111
0,0562321012660371
0,0558413490258001
0,0563377596290335
0,0551820223404293
0,0577419534903486
0,0579800849607682
0,0551896585211499
0,0546554421632926
0,0586124150671002
0,0560627741489753
0,0558073104825958
0,0540878590311977
0,0552602404882175
0,0568138438806686
0,0564695414312147
0,0545959279154602
0,0561327742658881
0,0538731904003543
0,0583329122911708
0,0549618339170517
0,0547224743094838
0,0550465365815975
0,0568141945912333
0,0550786172337228
0,0540100400189347
0,0532665879611264
0,0572245069715299
0,0535719882830466
0,0528052237607279
0,055282170942285
0,0552206771091208
0,0534698844481516
0,053893400759847
0,0511080544154866
0,055437320413084
0,0550863354862665
0,0548579786770081
0,0535299655425006
0,054605131404116
0,0539116874873983
0,0554969334058648
0,0532790700629475
0,0520144009305988
0,0521660751727808
0,0531129025477716
0,0526158124280773
0,0537985444516773
0,05249614834763
0,0516911427597075
0,050672242127071
0,0528179093130703
0,0512749334364512
0,052426970306829
0,050730382615574
0,0502862063109465
0,0505298252913401
0,0509845541684089
0,0503643020479932
0,0511981595595798
0,0494619048336301
0,0489323597155445
0,0499457830400433
0,0493551306778724
0,0491685162598421
0,0484356628702015
0,0512080716054559
0,0491662066311612
0,0466684681918511
0,0470729162859275
0,0475642058705808
0,0466359430244102
0,0454517528321094
0,0484136933795064
0,0477590123899799
0,0476291682336663
0,0442018284174773
0,0479567854750458
0,0491960825018271
0,0476464245239142
0,0463327034435008
0,0483273707619669
0,0442268169718957
0,045232098764205
0,0466500251017667
0,0451867942670079
0,0435086513703665
0,0449901672899608
0,0451915387175469
0,0450707044397005
0,0462900602626984
0,0452412267526598
0,0410441120009303
0,0496096536814145
0,04524398522418
0,04621125051618
0,0433492605862927
0,0465823037485655
0,0406782269157013
0,0446838269737311
0,041108332296276
0,0442375703985466
0,0417582446243968
0,0467076825043023
0,0425444613479943
0,0432368300306532
0,0421441401106871
0,0453979609275642
0,043933543066315
0,0433628903495591
0,0439252203329625
0,0441507269682716
0,0422563388632118
0,043407864020708
0,0417955332893017
0,0450579098969348
0,0410869724030921
0,0435838493245774
0,0410011291017248
0,046782729054102
0,0416055235951601
0,0451326467298619
0,0434514559694577
0,0432869148426437
0,0398716927103307
0,0441832748101501
0,0427981103372473
0,0427644853119695
0,0442257795103721
0,0422892212105103
0,04050362240099
0,0429154220273768
0,0426470779525417
0,0446447008838213
0,0419179576544127
0,0425394960730515
0,0404647457752912
0,0423816134501566
0,0413065818093168
0,041523036799789
0,0391131710607263
0,0412083268698822
0,0405263332265732
0,0441615029928526
0,0411208544496326
0,0349816962054608
0,0498157137864913
0,0393448045653314
0,039918049121378
0,0391306535250326
0,0439148106008328
0,0399444844858962
0,0395425974606631
0,0400825295681993
0,0393795746959252
0,037950104500089
0,0411091500524146
0,0389683510519513
0,0393944765329478
0,0393834046710662
0,0397218544518187
0,0405831111641667
0,0425455472321307
0,0401446642652586
0,040430300004441
0,0382364279587252
0,0381081747508725
0,0429245525117179
0,0436157636322449
0,0391353172735237
0,0451677680775626
0,0327879832056122
0,0424790630663251
0,0418868688414014
0,0402783635906135
0,0401392342753185
0,0375574811180982
0,0397695354764025
0,0393016445257328
0,041483305441902
0,0366366164997989
0,0466604935831694
0,037435332342603
0,0431117183979587
0,0370658951974792
0,0403775192465276
0,0389369292727633
0,0413039409966811
0,0369996359578036
0,0384427146332342
0,0378070985356012
0,0373963500430622
0,0360658206218934
0,0385200180772576
0,0374851115329869
0,0394673850442566
0,0374257090036269
0,0410960045316161
0,0384184207457439
0,040444569642933
0,0394756703617809
0,0409568517373113
0,0332915666701155
0,0515665957346065
0,0341036424747797
0,041207804624069
0,037176195713199
0,0384441076696714
0,0362797413924573
0,0398641702453229
0,0359972274168662
0,0404980420028682
0,0382329885859274
0,0414891651591744
0,039058566322188
0,0409211579806305
0,0364461937465429
0,0389300242620382
0,0382630777855527
0,0378497006253298
0,039014898915339
0,0377278038574544
0,0405223928067051
0,0356563772907025
0,0376563277286054
0,0479486015514617
0,0383689134854788
0,0452115212152236
0,0391611629598456
0,0400731217804221
0,0367166040364311
0,0408455572579897
0,0353800096743773
0,0435883629508345
0,0344715162779624
0,0405886763002726
0,0366514448450164
0,0399884200145462
0,0363659709367017
0,043509417948575
0,0341812508215692
0,0427239666339092
0,0349740378424758
0,0457788673456691
0,0341828833505518
0,0428201048924733
0,0344857449131645
0,0449892741012643
0,0356940186790003
0,0465410532366386
0,0273884360451442
0,0475486731075987
0,0544352322505231
0,0364068060840412
0,0471596262276223
0,0364671353317861
0,0413278189977159
0,0374594911797978
0,0396094287617159
0,0440182410333836
0,0403989283311148
0,0408553000548968
0,0410564281439692
0,0403206839198861
0,0431192844471332
0,0374281399768627
0,0350770537600688
0,0547499984606873
0,0410354415020307
0,0441127650422428
0,0417639571550059
0,0304819349712008
0,0519259883864052
0,0389083187494497
0,0432060446739155
0,0431066383583307
0,0406747958866669
0,0423727452875145
0,0428866475838752
0,0411923933570981
0,0406687640015656
0,0457686505911483
0,0398775630105638
0,0456363948960644
0,0383364363352698
0,0452470079009888
0,0397755993343343
0,0443174230294177
0,0470148422539714
0,0425727705281065
0,0456879276027736
0,0450681021542825
0,0393111915370369
0,0443176387819522
0,0423385553393339
0,0425719297266644
0,0416749139254976
0,0531717265361963
0,0408304037210426
0,0482841084300326
0,0489179360777132
0,0413258868968683
0,0452979479214787
0,0463694184434469
0,0493722770876494
0,0452490288231701
0,03736222219464
0,0652306823346188
0,0335619119130051
0,0615947511772738
0,0370920171105965
0,0513611507040626
0,0387759161538931
0,0522630473161978
0,0352721340969674
0,0592863370523557
0,0421900272495896
0,0497949989099034
0,0439383921153407
0,0503862680214688
0,0559519845904978
0,0507273852037334
0,0498845524517724
0,0492339860531558
0,0449050172107773
0,0492105995626865
0,053919723318929
0,0394786236188218
0,0604756366523458
0,0579957133635612
0,0567704684997065
0,0573199649122941
0,0384327863999975
0,0728406855224826
0,0473780815732906
0,0524141487301753
0,0496172015069897
0,0511106296759786
0,0543968208118604
0,0465454200979771
0,0658078675715041
0,0575544850161314
0,0483329396887466
0,0580132360160315
0,0438018760132816
0,0628781996705608
0,0583190607449867
0,0579637781043943
0,0536759547921861
0,0612845726469368
0,0433563848274483
0,0698961191746623
0,0685755816918762
0,0518646841322847
0,0763728369757393
0,0589688689477588
0,0705032372312173
0,0601103163824434
0,0656681171753567
0,0589899639681599
0,0719447491862434
0,0668868159036926
0,0619355923939013
0,0554296136827664
0,0842924565078131
0,0604638045894495
0,0759861573778098
0,0661288293016162
0,0632732695444406
0,0676322008584809
0,0951473676625388
0,0804671387416739
0,0799144823320415
0,0668971454999358
0,0906299330816337
0,0797648485143536
0,0772117573316966
0,080312508374137
0,0811710555016893
0,0827325346082292
0,0759482722752925
0,0871552054449232
0,0853002020910621
0,0853319871777377
0,0908855365751671
0,0799347969658744
0,0925642256580268
0,091862898992072
0,11827907962602
0,0846013621848151
0,114205764332675
0,102977579174639
0,0980167625775541
0,0999064367477811
0,0956142951277859
0,105757981769198
0,0996423635472841
0,106188434033413
0,0985234861638187
0,11327692880709
0,117972558812249
0,100860233322645
0,131457055675305
0,108024104367795
0,125977643454956
0,0789268648652115
0,229266810635604
0,137878302430034
0,137172485360737
0,141231477790788
0,122078425523122
0,196626223774178
0,154240652337571
0,158415299771693
0,162840178003464
0,166765865006056
0,169299532906033
0,18342286748126
0,182378717769108
0,189426159985283
0,197852603384264
0,192625488265776
0,196455059638573
0,234376939676979
0,235710866710325
0,243813020589087
0,226366259889214
0,246782764458693
0,255823818455262
0,254100738509643
0,258971120628826
0,267164045410327
0,247281263958309
0,328736920329078
0,277893014913214
0,300436502887993
0,287958025028366
0,334657344884454
0,300801244460748
0,341326824606899
0,342816194812272
0,336769079516197
0,349576147172956
0,339110913297357
0,359581322671574
0,348023828421224
0,39069099449211
0,3864977254721
0,376805120751475
0,388483781221536
0,386353494543956
0,394963440923595
0,395754140781237
0,406889666428333
0,396514791979837
0,432100115931961
0,394877140309739
0,496464792956095
0,44661271078715
0,411996910047727
0,427136550165893
0,401506094181937
0,440086873502821
0,426411457214601
0,432665920645064
0,442921332556431
0,415962436703176
0,430541161068265
0,417308890164961
0,428271012653966
0,422149588534371
0,43368911966111
0,412194900292546
0,435794963229935
0,421465083133684
0,40764132179481
0,485508786209187
0,425259636872071
0,423100683204159
0,416626538712833
0,420697653455071
0,41057004160254
0,416206559601629
0,406164855629497
0,429657099707944
0,396872349023891
0,4086683899148
0,393506755315992
0,400062934405252
0,400454696833715
0,377286365999857
0,385780282758879
0,366923508553504
0,373686472289378
0,365490216964638
0,351749558251676
0,414800586337982
0,351630167697385
0,348596272944844
0,349890170949211
0,343194070408106
0,344024208659488
0,343731880181698
0,335862276928393
0,336126071022382
0,324021033575662
0,331999216973445
0,324530496954296
0,326770310194635
0,32550371750051
0,328689238502236
0,320591626593261
0,320833847105754
0,322222030107277
0,316038997506137
0,319370081686415
0,317796390205007
0,316646509964306
0,314808691143265
0,31481306850846
0,313814590443314
0,311504540843049
0,311354352340452
0,308236216962401
0,309468695926722
0,310158075376725
0,306126868575128
0,307353786188318
0,306894627799494
0,309770333854671
0,30013478842837
0,304759065501034
0,302191244759129
0,305219508338108
0,3004256882113
0,305734123155545
0,294337601538093
0,303888909216601
0,282130097434632
0,314618172770982
0,310853244112352
0,289174941470112
0,305880453616792
0,287905773047643
0,300642973399464
0,282865171665806
0,305871406311057
0,300553229716131
0,286169287246478
0,290608061858515
0,283392057470768
0,283139123183813
0,288164015650053
0,272073191575047
0,287743154891348
0,265127867204883
0,275151434953962
0,315415175801824
0,257650114324343
0,324372307016736
0,277887426779665
0,27952875489447
0,258198096135374
0,305208143359227
0,262423563733035
0,272417220426637
0,265502446486038
0,282523506537874
0,278691318956546
0,266194935827968
0,275537971599745
0,262064794895802
0,264674779301982
0,27714549733632
0,257670739970066
0,255302650191767
0,289671789927657
0,253775466091661
0,257180350357303
0,288145696636713
0,270437161533908
0,244562686650854
0,249071784588785
0,253702140498569
0,234662518406149
0,275616570025353
0,24402442689425
0,244667300413618
0,238445650066937
0,221544888285959
0,235531300248442
0,230270318060323
0,240903997670626
0,209809404941844
0,248043998914397
0,216852908114462
0,224528378599746
0,232365205948353
0,226293924957742
0,241546623774376
0,223344910470908
0,210093992870027
0,212923668317733
0,243491301813042
0,20385949216691
0,21629976396266
0,208206332500508
0,196343352455588
0,213667332967208
0,200284687114603
0,20037905199293
0,205454826505038
0,189163998462551
0,215340623554928
0,199236879927392
0,212164293585474
0,198393712163445
0,186986794139861
0,193133555703352
0,186195725110628
0,195615087814464
0,184990878589669
0,187100850997912
0,207592526456949
0,170904570492328
0,223700222478623
0,195588828196791
0,190958069767485
0,197255029090475
0,196859533261874
0,194986327902502
0,206697602918901
0,207712058202244
0,209715335488335
0,195599787649877
0,224543612717686
0,205478889344095
0,214730336716269
0,213370231602707
0,226299948538007
0,217755894028403
0,233402322005316
0,232168502048681
0,239399766131158
0,234650345830309
0,246443131978278
0,239646250312772
0,28171502813629
0,246187255045958
0,276882249739735
0,268797440716662
0,292180828615073
0,293029414759621
0,285055365038848
0,295666596542559
0,296161642260409
0,303590991294318
0,309207922864633
0,298508678941391
0,338583880812092
0,310784131622751
0,326989591743013
0,321216277030694
0,335701703896186
0,327917732699832
0,345111074435427
0,343891506055965
0,340401961640104
0,380098674517981
0,344298953290619
0,358000863981915
0,349980457185908
0,356674396028348
0,362921169259082
0,361954860805887
0,36363568453539
0,350566822458749
0,374536996568758
0,367448519322202
0,367695506461584
0,371328637418847
0,367412976260999
0,370455597260747
0,374345809848741
0,379484769013933
0,378753968079582
0,374486615941893
0,387266755226212
0,362914083762615
0,413275551284796
0,397513734479243
0,387719107355996
0,395897999987817
0,391361326649921
0,40087282069993
0,396692302966969
0,407101359505355
0,411379536670276
0,410791398714798
0,415271285449581
0,413268732914692
0,422023554894396
0,4198587453828
0,440576500636894
0,421536217405082
0,427532451293254
0,426020611167103
0,416900528397686
0,468861399866443
0,428888702043473
0,444577475412205
0,436552144755387
0,4437033108488
0,436110212893553
0,447338644626596
0,442156869363646
0,449134532428897
0,448269874488806
0,449238183821358
0,452049206151726
0,452180647299837
0,452820808175394
0,439945289313947
0,451898411553498
0,445803484642502
0,4410385487216
0,444952186258779
0,44363140827645
0,442167096969875
0,448015596721389
0,451651425640441
0,442384202393232
0,445765186978465
0,438012264411384
0,45225060328258
0,448623525317794
0,435539064859149
0,434550742418575
0,444479663913822
0,442173577036136
0,446706736461114
0,440223917606919
0,464030525488515
0,449430205489892
0,447043955327863
0,448614485020973
0,457971139512836
0,452130563808701
0,458119227341678
0,456233764212291
0,46333809279877
0,460267773281233
0,462731599364854
0,468557157874506
0,466900985448251
0,469010193871121
0,474448967483077
0,472864945278898
0,462736479914483
0,461426562401786
0,467039329175953
0,457753742776502
0,464746793341924
0,456185362730406
0,456792865467282
0,442334820753409
0,446794914624691
0,439532675958634
0,456740382652701
0,441554198291836
0,435403456248604
0,436435427973774
0,427730163249702
0,426521563534174
0,420498280356671
0,423695343765707
0,420228751563443
0,419791121376838
0,413700128814214
0,413533000661242
0,40826651131259
0,40856492027448
0,410308282547818
0,406513705652787
0,402577423404409
0,402955412076064
0,408572478031952
0,405634933428811
0,405427422987105
0,401381527319413
0,400704851402374
0,400308017098854
0,405099602581424
0,406844647131588
0,399392127798298
0,406058078269509
0,404281795930633
0,408490336342941
0,397292672764771
0,404200374197301
0,395514179978594
0,394456141599945
0,399014217274565
0,402841418711643
0,392942225404334
0,393670756239344
0,396492743563972
0,397057673152695
0,396050959763541
0,39617070177474
0,392887461120811
0,393661646090841
0,393139291917097
0,390166898333893
0,388310840507677
0,390764676495246
0,389385242508647
0,387301755593066
0,393623659907545
0,388879233042912
0,389237704714443
0,385862229567205
0,388377019922676
0,389976168429837
0,385971847131777
0,387691033333368
0,385454043464309
0,386480268879171
0,383144711785645
0,383981209904248
0,385109194020954
0,380849216957021
0,37992169038851
0,376635938432341
0,375776101322777
0,372547051574816
0,371617236474029
0,367407024743401
0,36715605496782
0,365138884815709
0,357637764088333
0,356997380042124
0,353794956077629
0,349496880756776
0,346882660126761
0,342313800972629
0,342376311784202
0,341073760792348
0,340540652112764
0,340170264286438
0,335126636605213
0,336811662906058
0,336940176331991
0,332251287796087
0,333890265953197
0,333557635330981
0,333475620956991
0,329341024748738
0,32837854346481
0,333779209647302
0,335418448736844
0,333850340191782
0,336177931560439
0,335573614856785
0,338238120337731
0,335990254622049
0,339329871029042
0,342155566858705
0,342877376461322
0,34395012964748
0,345142191721092
0,347514097929257
0,348918340803577
0,349424747749784
0,347032344791145
0,347897125622639
0,350259160106105
0,35060812322006
0,353714344744402
0,353274553677527
0,351044694602337
0,354275310511011
0,353656721570644
0,352233832662791
0,353810253435174
0,354433817591011
0,351514706044305
0,350273324898582
0,34728133317536
0,349990658783353
0,348265136262434
0,346654378269655
0,346581833493152
0,343854760485256
0,343067538171842
0,343377431845493
0,344061840728336
0,343427189099946
0,33995284785316
0,338780211728037
0,33766730455927
0,335786605083066
0,334658620308598
0,333934116995032
0,332121373681936
0,331170904730893
0,329524079815153
0,32859887075276
0,327656750866251
0,326600736019534
0,323340488996985
0,324293465256246
0,324255319169906
0,32195514567837
0,320199100391983
0,317937325272899
0,317771734096238
0,317929631494159
0,315772309512886
0,314225474418641
0,311134097532396
0,30992941987036
0,308906956587524
0,307123043783488
0,306504400437131
0,303207093841977
0,298009220403576
0,296182894816824
0,295117373076189
0,293207874981449
0,292280123804192
0,287845720094345
0,286322491517241
0,286400179388944
0,28640014885048
0,286086449226398
0,282567337799266
0,281113053241167
0,283035697950097
0,282510296680691
0,281084753323701
0,280052628227418
0,278612179973932
0,277795762928371
0,27769738941436
0,276405452484814
0,27421056688265
0,271271822844191
0,267342627285636
0,265885853619295
0,263154431354069
0,259595963611218
0,255853966420494
0,252050059555581
0,248908737517604
0,247527817044334
0,243803703838407
0,244192163099575
0,245358674094617
0,244517100647954
0,246839530332887
0,247190696026231
0,254478969384555
0,261823210351828
0,266294573724039
0,274342834051362
0,280962315444046
0,289177132138096
0,301633477021464
0,313259798717113
0,322270617216256
0,337174832505348
0,349776505675603
0,364230966554913
0,381045832727276
0,391146183893997
0,40506550912993
0,420085640148593
0,434550536082192
0,450244558795975
0,466365742838947
0,477266203676789
0,492608079349655
0,505244440181142
0,518107886787644
0,535689806698427
0,545873895142246
0,55637180070384
0,567093289602961
0,578316158890779
0,591569839500328
0,598240089902185
0,607228728380541
0,614788358946246
0,617706169345679
0,623208607821899
0,625520108036375
0,632241074599306
0,632026610949974
0,628854759762867
0,630213769936453
0,628407716518225
0,627104683802616
0,627740287306717
0,627243570856088
0,623358027196714
0,624181878360845
0,625226266056676
0,62482943758868
0,629157229600756
0,628477515044001
0,62677791104308
0,628357435238505
0,62598173447894
0,633411537117092
0,641853945768003
0,643905191693959
0,650285639172365
0,65277138307118
0,6603263314696
0,669409606251999
0,676352374638517
0,684423510810954
0,691254620079543
0,705750982127523
0,716449650275369
0,723719715596885
0,730208225877839
0,740431121913684
0,750184826233436
0,761933516011715
0,762618553786492
0,766201915604345
0,77187729217244
0,77416582706979
0,778717604574977
0,77384777389422
0,765334077140329
0,774573371831799
0,776347224672056
0,762609840872647
0,762988323740334
0,764339257332722
0,765638446769995
0,770429182126505
0,775611650842645
0,780039347439193
0,791086125000467
0,795829783722342
0,804422896279663
0,81535487411016
0,820897306146878
0,835315602911536
0,849171533599416
0,862776873807102
0,875900136667282
0,877849782820274
0,902746118937839
0,915255422338001
0,921779352276801
0,933386303903663
0,948803022251675
0,954677005989356
0,967622421381019
0,991853965239992
1,00266660261285
1,02452960933508
1,05031382884385
1,06267328447828
1,09186160692986
1,12616691571724
1,14285226188703
1,14412361326645
1,17157226523789
1,19003897567973
1,20368838032184
1,22871750358897
1,24813960405113
1,24797928994504
1,26971088127852
1,28115083748745
1,28953228319198
1,29613782682445
1,29617351416481
1,31417134908091
1,30523774367131
1,29021464147074
1,28704303648377
1,28444607671484
1,27063788424909
1,27169891074249
1,26268562974323
1,2538067070771
1,2671778110996
1,25018848557164
1,26579916153504
1,2727839513792
1,25785219355078
1,2839245318542
1,30012928859632
1,29192579622875
1,33114092113337
1,34006833477371
1,36237557448047
1,37037950984723
1,38861209635545
1,38324159608069
1,4024065498369
1,42504065428804
1,41410223988075
1,43227454497313
1,48644191284523
1,49108967050708
1,51619893320441
1,49040023995891
1,50287812699425
1,52049069198872
1,53456879467356
1,57054160528844
1,59111287627915
1,59215799491625
1,57648008145035
1,59076963080217
1,56127162253525
1,55890087236149
1,62349117388612
1,61391700151139
1,60906689200819
1,62925335703751
1,64468979118631
1,63617612549355
1,74378608705091
1,69638046132978
1,63562115232603
1,60745423402238
1,68470977493253
1,64019059252571
1,65418854633542
1,60127176743242
1,60197916935853
1,64795453853743
1,62278853660916
1,52639211470785
1,50409550271563
1,47704133765261
1,42046002032891
1,38531875262812
1,35741330476513
1,2834276334342
1,23555983147715
1,19788834356737
1,17005679375916
1,10360876702446
1,08921243111295
1,06617176448473
1,03486892849717
1,04069265510877
1,01711885192257
0,994137403584176
0,992990688494897
0,962151076376622
0,960992800439923
0,953743593735222
0,940521336518929
0,929196827932034
0,911519857508672
0,898280119831668
0,879050983308554
0,861661634188698
0,852504718644512
0,824926776042602
0,800671703368261
0,778360060178867
0,752650346291286
0,729122558714147
0,701866102868043
0,678349948341103
0,648769035455172
0,62072185623801
0,597447204264065
0,568997979641008
0,541017116624614
0,519149691321666
0,492429046834152
0,467049738730957
0,445862917712123
0,424583432669703
0,40287988836779
0,383393879881917
0,367449226169531
0,353656679328701
0,340858376420412
0,330684949396525
0,316932139392148
0,311261220616582
0,301635773471876
0,292303545140465
0,285526638268186
0,278034489849837
0,275397412779677
0,269748393969376
0,272911770439516
0,269227801002432
0,267628381923375
0,265074589748616
0,263524136291297
0,266015837583717
0,266424581710721
0,264664900603461
0,2669636731205
0,270103175460862
0,272725518536423
0,274682921759175
0,275617615419583
0,277273364313187
0,277954575175791
0,281713998038713
0,28068003276809
0,279891032084566
0,275466033316339
0,277234207471003
0,279303158864731
0,274533659696775
0,27575705690207
0,274653789746704
0,275761970714403
0,27346253454481
0,269566804227332
0,273915719017195
0,274932636771614
0,270364226138258
0,275023297705421
0,273164063038475
0,275367087051464
0,281469304780909
0,281743096495
0,280366319146009
0,288544504042635
0,286579382028587
0,285697508611404
0,288351745281101
0,294863787156954
0,29033343874152
0,294003579296087
0,296776713102383
0,294538528443058
0,298676703868752
0,301819411122324
0,299001505329683
0,299777885758613
0,299042066947127
0,293498361909142
0,299392462531709
0,297148389932077
0,295757711906018
0,305802655054919
0,303617139738495
0,300923972397995
0,306713488185933
0,3087847058868
0,313222320158198
0,316975016189548
0,325034614395166
0,335773375510702
0,347314550060761
0,352361411098321
0,361077992229575
0,369742777126528
0,374001437592857
0,384984549626998
0,391358214696271
0,394155608800546
0,390313274878404
0,393538841477791
0,393749802913681
0,387604301761722
0,378259201823838
0,381358182224956
0,371280671387594
0,359595641934509
0,36040690307742
0,353236954982422
0,347273021849594
0,3518526007955
0,34317647693937
0,339962331074504
0,346024975467142
0,354900864656761
0,355766011413662
0,352400466223665
0,346779645170189
0,35171563744471
0,347747587973808
0,353292435964389
0,342070237001118
0,345584216927522
0,344317109709654
0,336840785195274
0,333471873652952
0,330303765342774
0,336778717729927
0,335607448816466
0,329023474138037
0,332165047521146
0,329374782230437
0,319900079436774
0,321508119806166
0,329119260452091
0,318728696080893
0,319026199543345
0,314447232579991
0,316502799713823
0,320670871398688
0,320807061158131
0,311612644934483
0,307363803151242
0,31222239531256
0,309557774063172
0,303734284632666
0,307245903412447
0,309948241904859
0,312535916225894
0,304662895168429
0,303110336993587
0,301956237633706
0,298979564545796
0,299134226808855
0,306068429307556
0,305676333535309
0,2986970000036
0,300347472201678
0,296251998933707
0,296026906176002
0,30298832253753
0,289727293927679
0,288562667993272
0,278330733201759
0,287211510143457
0,292621389324062
0,284220898849569
0,291223672337363
0,291650302924351
0,28923589831062
0,291942060729451
0,290737679321654
0,284890290647382
0,285218489011757
0,295678779905697
0,292195424260147
0,299927634689938
0,299190101616276
0,294010734369375
0,302966192037211
0,301543369792318
0,302385587133678
0,299518029807105
0,296428853788787
0,305325246071504
0,305253251307272
0,313420362443702
0,309315035542034
0,317164277446667
0,309097425429705
0,325857536515795
0,318545410577065
0,320602352940074
0,333353868275797
0,337229450136343
0,337574919401151
0,348076176965164
0,345927942378277
0,352737822084309
0,362161880644295
0,377275978103774
0,376534277526148
0,390218286735552
0,385036027249835
0,398242621564702
0,422836245974829
0,429129623418476
0,423639961642747
0,450272832315156
0,466250312893883
0,469257305979502
0,450329072765205
0,4693000710221
0,49017376598686
0,506608105783322
0,488647436791625
0,510433462795689
0,516950594237078
0,526489422388524
0,508268361553467
0,509519318108328
0,491101189311036
0,486438705722853
0,49686646746257
0,506503831115629
0,49720059486873
0,523392101641296
0,492095100866384
0,496276094441651
0,502967586971535
0,520499570663575
0,505713578738767
0,503300736726472
0,505828443777478
0,501806704355822
0,484942946613352
0,508518332268824
0,491439796112002
0,480616012734692
0,452134864560431
0,471490302567471
0,482703441191717
0,500798763698235
0,496043280482074
0,473213443923532
0,459366194956134
0,453715791515534
0,453807151159789
0,487585623193717
0,460887608708561
0,447066796502486
0,452713509810563
0,449705363855909
0,426870593088808
0,453671007914359
0,46392691723868
0,454241909504591
0,465509931870664
0,462179915993862
0,459584309723814
0,49106093847442
0,447516275617228
0,451181785512278
0,454942669876013
0,474438313994297
0,447265195005187
0,438243277616915
0,486653083795702
0,508685470937218
0,493120777207471
0,501480171487989
0,480083297188119
0,47164239280799
0,485512984286884
0,487948587072287
0,520747630153405
0,507318679452358
0,504323190229519
0,499632254672301
0,489264432820879
0,526586563332347
0,470237466826704
0,530043450883761
0,504082200309163
0,517018738124935
0,506455127856619
0,50407549199241
0,566082394756426
0,542318876759026
0,583427278981398
0,564060351089288
0,565528036534493
0,634606590319801
0,521908857998056
0,603578208835283
0,57842278749945
0,593681599667719
0,628281475828826
0,693688377472449
0,668337653047755
0,661396742367932
0,635685760555843
0,675687547806165
0,623883531574715
0,650409022485299
0,742521446500061
0,690998378744976
0,650142075085614
0,692783414324429
0,660200187874688
0,610591077232151
0,565225252694913
0,644982288261774
0,657855789246903
0,64759028003781
0,570281097466376
0,51666053600623
0,577467939813573
0,641675025442644
0,583911284583423
0,616629520586256
0,489135883463984
0,570812806741301
0,655840469482009
0,680416247995475
0,609605408220033
0,602560962552617
0,534714886751852
0,697722235258259
0,561647075710564
0,661574958898366
0,530314545468824
0,778558187998086
0,564554467370589
0,645261779386583
0,729030154285799
0,758250827177111
0,665237456608682
0,826095396186845
0,680279229517718
0,569568587145618
0,630188762329257
0,736533704480197
0,616725108396996
0,495601614950227
0,516926788092855
0,510567483370618
0,629454466500089
0,629210132125166
0,525614520426757
1,25529465370259
0,648927144876029
0,892899704712653
0,577119317932154
0,589769577877557
0,384601102850074
0,9984435256361
0,592021934291575
0,71207662708931
0,615562716284299
0,620320905790528
