3596
4000,36533379555
650,420452594757
1
2
2
0,0528622830044393
0,0283843323493167
0,0406120060956083
0,021458841990344
0,0369402345615365
0,024432984840379
0,0474332973513494
0,0361414052737428
0,0384281584334459
0,0266961876349916
0,0521156249721962
0,0388564828195111
0,0375761625343936
0,0248576842911683
0,0388533574197725
0,0335105234689298
0,0421728137782918
0,0239416927468016
0,0504485772219622
0,0266376655631055
0,042405300915493
0,0260271767743667
0,0450222758937373
0,0233613434685906
0,0459733805542875
0,0271413213276065
0,0406740272098776
0,036415273390921
0,0447903473658054
0,038380282697812
0,0512141413792257
0,0291674435510408
0,0383772775851128
0,0279243446471504
0,0407194522339617
0,0306212570089993
0,0366503752780947
0,025676022474775
0,0441830967070937
0,0232088843099464
0,0499938546186938
0,0289808755262739
0,0447885424151612
0,0313091735392118
0,036945365127865
0,0282571720731304
0,046980863627743
0,033803476752031
0,0457686301247966
0,0282167716968412
0,0408973574922438
0,0281323096025014
0,039720521989094
0,0373978998091249
0,0324925926762807
0,0229998364409058
0,0410865302223832
0,0308263640946669
0,0440165995590994
0,0290693433966124
0,0448697550332709
0,0347056019188483
0,0349416299097065
0,0295969479965394
0,0408564264984749
0,0273643536171674
0,0396164293999627
0,0283961869988904
0,0294887164587374
0,0216695274651247
0,040767802914036
0,0234305644899741
0,0459831164654356
0,0307184574190012
0,0485050956285954
0,0297779722331247
0,040284219434964
0,0274832714004433
0,0385850318245169
0,0305345869742149
0,0468923923615714
0,0305563211920568
0,0507711806569093
0,0273571867951659
0,0451612743868353
0,0228234890854508
0,0460980688782321
0,0155882204757238
0,0456235528499979
0,0369224561736399
0,0355589610582977
0,0241875706529461
0,0440512439570727
0,0260798584512846
0,0373770197653384
0,0233291064048483
0,0386178437598002
0,0242326493795184
0,0437800279954285
0,015905769392455
0,0499422086167412
0,00154687103815321
0,0689164332065572
0,0186530552998158
0,06400366156044
0,0436701718499596
0,0210598016081509
0,0414684921130291
0,0420670967532051
0,0267297738811603
0,036868889493262
0,0295339901015994
0,033766101543465
0,0232224204807577
0,039504312557558
0,0157229530177528
0,0581420665524374
0,019524036847969
0,0372409175453015
0,0259761117007579
0,0355522025612445
0,00793082365635222
0,0760130792945592
0,0252725217265958
0,0451648501807017
0,0199376191157986
0,0293863644552635
0,0225769496576192
0,0617172719806629
0,0135730012592393
0,0429694482887246
0,0176376963290475
0,0404547214917647
0,00689215245743134
0,053501791239783
0,0309398689388583
0,0412301274906543
0,0184118078639138
0,0315048941080529
0,0578255563947584
0,0419759554314596
0,0185990588979688
0,037509356115504
0,010331953882816
0,063291424902144
0,0301440482510568
0,0304566044374966
0,0198281229084704
0,0472262645250907
0,0245949840066432
0,0374384312013193
0,017453437461467
0,0452756343393296
0,0354366805529916
0,0117282489276598
-0,020958058975911
0,0887417291002516
-0,00136629544728076
0,0841288120703736
0,0234937620643298
0,0490715328888602
0,0274238209463772
0,0382283450829455
0,0283998306831935
0,031230448610976
0,021531219632117
0,0258239736762212
0,0396757228214075
0,0355520861067542
0,0157969406549417
0,0487241935292354
0,0410566058173066
0,0304858782331116
0,0271677595210305
0,054419824783407
-0,000901054242426732
0,0525298829439916
0,0266760027113328
0,0303818163253132
0,00914063476882909
0,0556479364671921
0,0253445031801926
0,0395250266748154
0,0231889642507457
0,0378139564412189
0,0322755856667346
0,039136109080105
0,0137200140410815
0,0398318392949988
0,00924796612747877
0,0398968694859576
0,0299347581419019
0,067373165088212
0,0252764078259225
0,0491817472386517
0,0143039985118176
0,0460490479529875
0,0524074743470105
0,0319306703789926
0,0237657403846718
0,0372910732943967
0,0195755042076407
0,0370745428215458
0,019569269339874
0,0369216370026133
0,00671953168977193
0,0608262317422573
0,0351022631059667
0,0333009156113382
0,0185303347593071
0,0293738525998779
0,0201261196371013
0,0394578690348563
0,0506861075724803
0,0349193104291676
0,0354302183608007
0,0343082991257523
0,0182719914022886
0,0470606632031623
0,0260133646008248
0,0423018630566961
0,0205843379399688
0,0365036121813216
0,0237184329019841
0,0367141098351567
0,0254193496851316
0,0348698973506127
0,0234381254419459
0,0343003461947675
0,0259324653981555
0,0384731930999077
0,0309056958253029
0,0352957875580003
0,0242060287380114
0,0331712755189323
0,0150552613063925
0,0489947999195501
0,0223376208446825
0,0374588594899568
0,0228571442798258
0,0365801403458222
0,0306515896373418
0,0382770420913337
0,0193546801699746
0,0438954537935236
0,0110590985996146
0,0604532827558438
0,0321432397816944
0,0277368087100443
0,0238042490751324
0,0295374543867026
0,0437318906271859
0,0292369505739403
0,0316133276623494
0,0283231411414407
0,0294632126790678
0,0237155045940282
0,0440511839662356
0,0301764446595849
0,0305641056383081
0,0407726472039815
0,0374498493401898
0,0263040580143368
0,0376387011729594
0,0130266669557543
0,0499280417513918
0,054754484520023
-0,00794467973017962
0,0741225865990115
0,041670567250762
0,0330529856185928
0,0401633948282606
0,0191584608835709
0,0629610147944012
0,0610924527085966
0,026537773622405
0,0382061093993365
0,0455545560694537
0,0420293460018235
0,0228187895289575
0,0434713490207873
0,0102556788062011
0,0546098714482134
0,0135675147603429
0,0721063729677902
0,0353248045537849
0,0259272132864452
0,0602573477166219
0,0363661059912707
0,0401052028923358
0,0340092600603422
0,0321150535316899
0,0434426914952424
0,0495767365811915
0,0364598445569522
0,0405159934112333
0,0232158152253751
0,0451921345405266
0,0448330150458144
0,0373615948837683
0,0343408306586736
0,0402797396918989
0,0333510118476879
0,0359470890251516
0,03721865062509
0,0255407531115884
0,0380344645537092
0,0146398118638744
0,0609059288829146
0,0484426723030898
0,0344506764581969
0,0485013981402694
0,048580558284144
0,0319954364170573
0,0437191217365277
0,0353519645360417
0,0386866716458922
0,0337662872246789
0,0383857788187787
0,0382005342995754
0,0527219917964402
0,029998031075988
0,0417913992000582
0,0292755005949802
0,0449286708144267
0,0338979023677533
0,0463113423670166
0,036828673319981
0,0462639339666349
0,0341553312483317
0,0454828691510393
0,0542378672093896
0,0462180779956184
0,0242475481339251
0,0847098041574575
0,0373402153818493
0,0511595121069876
0,0312796021915386
0,0476812039567538
0,040679733931683
0,0509215996708671
0,0407661022118161
0,0476664912691632
0,0454325708783471
0,0615693473321882
0,0410413369877871
0,0533413920563516
0,0559596078346021
0,109476076642521
0,055073117321091
0,0515598735302979
0,0436928456242857
0,0522753055463394
0,0822933743512915
0,0595734144170755
0,0753037758816044
0,061608297424303
0,0563787065837246
0,0684474230672452
0,0550762746117861
0,06870541170467
0,0585512317624091
0,0707747421292578
0,0594465422926163
0,0750113197500839
0,0609648460302053
0,0733505067876007
0,0541733872863025
0,0952962736278341
0,0735750001805574
0,0751375067881136
0,0718533624975518
0,0869791885352154
0,061581043399831
0,117299450807436
0,0717332296553682
0,119892765166854
0,0771522742630529
0,110475783443731
0,0795940063059537
0,0973581955704167
0,0866523610969312
0,0942423394326985
0,0930309678282491
0,103382907914392
0,08593185487322
0,104287151070307
0,090733393043535
0,113000802549779
0,0930804404948853
0,113911783690973
0,104382872919493
0,120146167154845
0,114312704558004
0,111619423200277
0,115584195547197
0,121324206323443
0,135544741004848
0,137836122388852
0,123600472015472
0,116213020317437
0,132193799116494
0,123146635346781
0,140664525021298
0,131156402109591
0,132514334739081
0,14915193572281
0,127268738383539
0,172119346380938
0,134993827798302
0,156215708537582
0,13869014049696
0,143200077416863
0,166366293802904
0,139076966609061
0,157704344628619
0,16896986142863
0,149014591529034
0,165187365950652
0,178177744346058
0,166561731232084
0,163205108628226
0,169864213103839
0,160269744058648
0,176988508268306
0,167278618669763
0,188881055489142
0,182394236978739
0,201535954251582
0,182607087418609
0,198448047151169
0,187441951010682
0,198948118066163
0,188599425879329
0,213500393179486
0,196432783422695
0,220541044855874
0,192071666029867
0,210495512001727
0,223649575609479
0,218571397454928
0,227686938456603
0,214486265100291
0,219112788733829
0,230553603901235
0,22294839986089
0,239613612784363
0,22027574048417
0,240777832575806
0,240436152787902
0,240068754393904
0,242568581494259
0,260567836649899
0,239511444356148
0,256199244885374
0,246798178803284
0,255906120117164
0,257790650609476
0,269900192617825
0,256130495885462
0,274367529615004
0,285068266740668
0,287898195356889
0,305253753882368
0,314176150142674
0,282344342599356
0,289328593895405
0,278118751218038
0,307858072801099
0,279777116427021
0,298234719817425
0,299694145098017
0,322420020856762
0,311967722657608
0,325029161172421
0,315399807504137
0,331936966191817
0,314629340200073
0,338090448164629
0,310968271597208
0,342282956619138
0,327492535632925
0,365556272067853
0,353705542816184
0,376064699917932
0,34793391423307
0,356206892002836
0,343329318085945
0,369994783838176
0,34197093283594
0,367594547858479
0,358851213749316
0,389471920327693
0,375992486803168
0,395149871095636
0,375217486565756
0,392446365138975
0,387008683082555
0,422969479335083
0,398005407167221
0,417660409733038
0,404392501715604
0,407983548276893
0,406979390141974
0,415206817942216
0,416060023352252
0,433111308784048
0,413376740758722
0,4249271518027
0,401141418492593
0,459304901924866
0,463022624206103
0,456175381911082
0,435079719265761
0,480843226706263
0,455406139408041
0,485677689560801
0,454356622895485
0,467199767138151
0,475357580779717
0,482626520877884
0,462946045450013
0,487388572264896
0,487412907895949
0,521818662258032
0,505077749750286
0,499813885101127
0,492115442201223
0,501411871332528
0,496776491431309
0,495560588959518
0,512903187814038
0,543349929152923
0,512688039811425
0,532346502413259
0,501968060393187
0,532058525412628
0,53226537078491
0,545697990652257
0,545643736011735
0,556191137648395
0,539222338191149
0,588035149389269
0,576587522144465
0,588399178937836
0,56627986741389
0,572621305203321
0,583671742260546
0,582136170766035
0,567743121074942
0,587798188190252
0,572126070269605
0,589931734744555
0,59937209451162
0,626795720352478
0,586135480924826
0,601918107803736
0,600477568520032
0,649535891204294
0,615777513639863
0,634746370937106
0,655107896714648
0,651785548748403
0,62601394511781
0,634716068269486
0,620326618459902
0,639461456402903
0,636822161788022
0,645830476704613
0,631997767253318
0,662707054535292
0,65446614159556
0,673793370721636
0,663535251059379
0,671733580256083
0,671627028602227
0,705168601248263
0,689915151205859
0,695993978441493
0,680519158768371
0,699708429128793
0,706628484959695
0,708747073840714
0,692186351378831
0,701379360860813
0,7108146372567
0,754830366172625
0,728453759058164
0,721655168507996
0,699809216208317
0,73709033937016
0,731455221798534
0,765114923970366
0,762404422738806
0,742616913831733
0,732397549331118
0,746390319880579
0,742112638824538
0,776309037175004
0,715735058716956
0,74769669292262
0,762718138543201
0,756527427031043
0,774299466084442
0,783466365786451
0,775004581127484
0,792609361959027
0,785172960211131
0,78628151628538
0,775460791286098
0,782664708724692
0,779631906445625
0,817290833275035
0,781727335039603
0,799377002110397
0,83863810169619
0,882962396690241
0,826074009264221
0,821608535009649
0,792887113528538
0,79666287151122
0,802401945128181
0,818998409492123
0,810334317368356
0,862808829886025
0,842435191398418
0,825462850944617
0,824762228129206
0,844517666846354
0,848402579053728
0,849395369167585
0,825037084152411
0,841575668941068
0,860421685421757
0,861667625904952
0,859646874427728
0,858638320971111
0,849234430983118
0,885088168394734
0,863534462696542
0,848481464213449
0,860160787214907
0,907128407154392
0,848373230575343
0,898483200674835
0,911642900817287
0,889667395562481
0,904236746374692
0,912406486675775
0,89107287261275
0,89267119395611
0,894660074044997
0,887741431842943
0,90354006006877
0,916025665563323
0,876159475251646
0,922310983960861
0,917597198165822
0,908962708341915
0,929319131515583
0,924403633980795
0,929758674577042
0,932631611450747
0,896423545915719
0,870441749358996
0,936640747908237
0,956492645013129
0,928276575117709
0,957924174145548
0,92692506332382
0,908731855179367
0,932294316876932
0,973872948196682
0,923058510483941
0,908364795627318
0,883930915697042
0,894502037433726
0,929916217035822
0,95126343136057
0,981416354934221
0,970138108808312
0,946144034733597
0,975474289201215
0,951911167196787
0,984731019034406
0,929702988335568
0,924819970045917
0,978522710758601
0,959699204531648
0,98485578374286
1,01008491526362
0,972195489922163
0,961115899822274
0,951126076623122
0,928779445660264
0,927586215552071
0,945777092673726
0,979118049191971
0,979623980373769
0,96885967070268
0,982323466276094
0,975922008404766
0,994752976625745
0,965830093533926
0,93266066104692
0,952485161548524
0,940987357841296
0,903906670746778
0,937250498634191
0,944667206067573
0,95545584634082
0,98468654308555
0,965175832566459
0,96770017890308
1,01232800074129
0,966053046814747
0,942673666502687
0,968430845215389
0,996822681878589
0,959346151968396
0,944875451708059
0,955371063873944
0,955393281479104
0,978449005412958
0,990514886428319
0,978840970631506
0,988196676241258
0,984163880161074
0,961712944268901
0,965850817745108
0,951088467407027
0,990951676383147
0,981833320334912
0,948724247776062
1,01564033131673
1,00896037085239
0,951257057303736
0,945777393602304
0,929415071938534
0,941080265148107
0,955776360807753
0,962811714269145
0,948349942418491
0,950070666632022
0,968549387234644
0,984248076423733
0,971893311816789
0,969734583635779
0,975631273840416
0,972550182155112
0,973241370312186
0,951006419483461
0,967794675795477
0,942925614325542
0,954553345279772
0,948628785060189
0,954626210981335
0,988971063349489
0,949301685335058
0,948828940312312
0,962291575503425
0,975708809990299
0,968160215904619
0,958684465683609
0,94332883050471
0,942382336064304
0,929686490177729
0,934927886518192
0,985890372032885
0,993548856408626
0,960293074137516
0,957247691758962
0,95458352632665
0,959408562211106
0,962267991103046
0,944547877707568
0,92272258665359
0,934762886717139
0,94206627134506
0,924574670789146
0,92488324248348
0,92051431795239
0,927045125448033
0,981484000059033
0,946403293582242
0,93572572785704
0,96091020926972
0,914725796159109
0,922382321987762
0,941752551590326
0,95745034081685
0,927032617671446
0,919557449552309
0,907517543356596
0,899979923400566
0,912265435660127
0,907016189972091
0,907211813424138
0,9062495992329
0,91956212250258
0,945654524240543
0,92854075359084
0,921345982727268
0,91165242432348
0,89519841699226
0,934596975927646
0,887698744155459
0,896332676740379
0,909800237643991
0,909767965478123
0,894346466443608
0,868717669010973
0,872821083231211
0,904687146989905
0,883800174588555
0,864361656037948
0,853313663304359
0,854058394496805
0,871724888645444
0,873683120258876
0,851844541632057
0,883484889669841
0,867710327375398
0,871115710657672
0,875279236031719
0,848394151530578
0,850514120226448
0,861524793553184
0,864277213100665
0,862356655157656
0,856301734053703
0,807867874157664
0,837562738672139
0,849945708893463
0,828241761290666
0,85977648943519
0,849265559440551
0,851411416020103
0,852162750345287
0,847322861668138
0,824095540319042
0,821218237384887
0,819635971250064
0,803337967964656
0,828781606060588
0,813058509232956
0,792664919737514
0,831728374005838
0,80696373823114
0,79929685078016
0,803624011347569
0,814783514370258
0,802671140421053
0,802761423357124
0,796627576919481
0,789703751143615
0,792665354831018
0,792647845552699
0,767032084772753
0,78050165308702
0,77046072556189
0,774160567667097
0,78882437854344
0,79969000884474
0,775719116183621
0,747747877488018
0,744172501220387
0,760209834590053
0,747112805223985
0,742992554413045
0,736834315485925
0,755453649139383
0,737887097942864
0,742523220631166
0,743926257601679
0,729473457400338
0,734581405056739
0,7357584929277
0,725678507652901
0,727508534797553
0,713882976479941
0,721065546506484
0,725235734269406
0,716156620925583
0,713755550125276
0,723508357390695
0,705163868289136
0,688398078771449
0,692923453710192
0,698673543527326
0,680462308194767
0,696271045013452
0,689904359793896
0,68790716464752
0,686033212292441
0,677242978709578
0,661647386510785
0,658498084829971
0,65729406188244
0,661870612386036
0,66870383789019
0,646291114424044
0,64383792772441
0,654586606779593
0,644692091781871
0,636149201420911
0,630677938102012
0,63170668044686
0,637169920833114
0,640781287814146
0,641126554313478
0,63638703757999
0,630426360707784
0,634989250030645
0,614373636449315
0,616252040012372
0,622894728127926
0,607663581899529
0,609472001862882
0,605482889414875
0,600490006539176
0,600867321622609
0,593393234113246
0,595689429112018
0,598022767135961
0,596073360435962
0,581531117345476
0,586836053263506
0,578855928211231
0,583925817314701
0,576674985481424
0,571960554381465
0,56246087620207
0,561501631853682
0,561315633013234
0,567472360510611
0,557886279248397
0,554146451029711
0,54953053376569
0,55092321773272
0,552340301624094
0,543030293365613
0,530844034441018
0,532084421321252
0,547292631483131
0,533331157888249
0,53173905777416
0,540290202411934
0,525829526667416
0,523210171929701
0,520788109886437
0,519640839144394
0,523455400340447
0,523600274273908
0,511601318127433
0,505371782048498
0,515750187862971
0,514505793558026
0,508380814214888
0,504526449540801
0,495240216219783
0,498502746421047
0,500091488422227
0,492776061143149
0,490633537801762
0,496898287247714
0,490426976284947
0,48486024967614
0,48031406920429
0,485072827150078
0,475607260217962
0,478594062995752
0,477707695839103
0,470002935350003
0,469479649863556
0,472215754847394
0,469706537958109
0,467111435297434
0,461393629781499
0,456581477792197
0,450919174980213
0,459612791645785
0,453638597300803
0,443424775089847
0,446353560925112
0,441715275342633
0,442697223105232
0,433271892573256
0,441599970375992
0,446854363941342
0,432168891587319
0,434728950898792
0,438401906034698
0,430680202878098
0,42324025264582
0,430462030247634
0,425283576644341
0,433540080762388
0,420509752239701
0,420729099584216
0,426520146620688
0,424053568861825
0,409070531297276
0,411005547420634
0,407784087761288
0,414274160260063
0,410512515556511
0,414044515165057
0,407788158590257
0,398553984660684
0,39350739935243
0,396559888019122
0,393577969774298
0,388636256256283
0,390014467837858
0,393048955212449
0,395914684374435
0,388843289394039
0,386066944799506
0,391660116191872
0,383840551091003
0,384894269910436
0,386301926769993
0,372193374480283
0,375159362715207
0,37216559987071
0,372645868458969
0,369867362048102
0,366381107512214
0,373940743822356
0,370232178981313
0,361361362133161
0,360802938489395
0,360900401246972
0,357190700910485
0,359488895836498
0,354694685236618
0,354287268651787
0,355190655372551
0,356620258302223
0,354460003986326
0,34914282976959
0,352539153783672
0,348441477927018
0,347079546527459
0,340440570103371
0,343022988874341
0,34342873774433
0,336825970150652
0,334069981449579
0,340165040459607
0,336481774315856
0,330684149979421
0,323481554084278
0,330092867348822
0,323910629013661
0,32420837542605
0,328070283200186
0,321807168490365
0,316468831032767
0,3257572000178
0,325670229027041
0,324428669835199
0,325130183736361
0,320636052019509
0,317597851471791
0,320245586367032
0,318150797006093
0,31228188579484
0,31334979271019
0,314271566264987
0,316101196630122
0,309964889371371
0,308221330446858
0,313818108438083
0,313566295272552
0,308281114431676
0,302488603866872
0,30857412135989
0,311994299298826
0,307447046275819
0,318362936525377
0,31488746069392
0,315454935716166
0,307821853606528
0,304989958445353
0,309086012123378
0,313639734899209
0,31055289261268
0,31579000674037
0,317994654593792
0,315676183037456
0,31483057501187
0,317886229480419
0,314247740968268
0,317551474912092
0,317472886563175
0,324124880122682
0,326754094303798
0,319920062857383
0,323111750058963
0,325896457013931
0,325192185177149
0,3285479341119
0,326623887892011
0,326778550674589
0,325695634846464
0,332919498986808
0,333577101392088
0,330569708375888
0,328691290632879
0,338303121704766
0,339584042342152
0,340728890285584
0,338680614994957
0,341716523006506
0,346212072431516
0,343264194619496
0,339876405529507
0,35087557435945
0,353907604186322
0,353763660907491
0,352794216527228
0,354050084483002
0,357896890374955
0,366547713496501
0,36418914089163
0,370888989940127
0,371207201836301
0,374425117378293
0,372036094149946
0,379151920554698
0,372975630174218
0,386510906098206
0,378640290027526
0,386325000462977
0,390206863819354
0,395837816543647
0,393663645159358
0,396311532081246
0,403458977590974
0,402640418219762
0,399244943987256
0,402863576842496
0,405041552320858
0,410444181748311
0,411920161717242
0,414529835661844
0,411599581678348
0,410698768329037
0,405776242083867
0,415921658247792
0,418651945269122
0,407552574129057
0,40871668278568
0,404390373236744
0,406601170037438
0,413526713241949
0,406753040519459
0,418480142783668
0,420698054711099
0,413260080318711
0,409486318971977
0,407761859310947
0,40313054485065
0,40763172004225
0,401657812768724
0,395034440400226
0,408000953659617
0,404982291041307
0,402931709872703
0,401494335125993
0,401414350024085
0,403736169193478
0,401271377779699
0,402441408204107
0,399034302655047
0,400380744059599
0,397038465708304
0,397946811078747
0,402262353222555
0,405320536351677
0,394900742805591
0,406846591836869
0,398719623732084
0,403892791837568
0,392266252679549
0,398307669075487
0,404587172233352
0,397862117840708
0,399225428341144
0,399491148205048
0,397582496225744
0,398547758019745
0,386458703893124
0,39746679173498
0,393358082944094
0,400883274912692
0,397346812943913
0,393982044697512
0,389293128084009
0,388196105613526
0,383123705079998
0,388721599985977
0,386850377219366
0,384074874418914
0,377458628945117
0,383418862979188
0,38425682397252
0,378870351560634
0,376985625788547
0,374585052167302
0,372146105216516
0,372722204496934
0,373289684758897
0,368476988872662
0,369645231291909
0,365664042217095
0,35679638594811
0,361174363052981
0,356655893046662
0,353257859233082
0,352123411720353
0,348355557439591
0,348902564128189
0,345430474956002
0,341189498546251
0,343006422645948
0,334640775719443
0,33173025107225
0,33210086467332
0,334019556123469
0,329805415226727
0,328308686652503
0,324165674729117
0,322384827414516
0,320245532748593
0,321466516106765
0,320969183616441
0,31670126103421
0,316337337821179
0,314797102460887
0,312119662745642
0,311271613084391
0,304566664091164
0,310199743970135
0,308344365690024
0,302596351238013
0,295821947396379
0,299071942364743
0,294889412732426
0,297781322083712
0,290615205547236
0,29475312939475
0,292491994620993
0,292611299935588
0,287495120690542
0,288213085398569
0,294211771631555
0,286247415652733
0,284346534867304
0,284274309726043
0,278842354773173
0,282759827648972
0,283141624867501
0,280264242432217
0,272688014606727
0,273902457377137
0,275730448775235
0,273692737190715
0,275820736762917
0,271451754551821
0,271667039987554
0,272886596582208
0,268284300316278
0,26365693962005
0,269358247219436
0,26683304123994
0,263775054367264
0,262970086402871
0,260042790310648
0,259046995471581
0,257634120634449
0,262987911359675
0,258702660890327
0,255246014530524
0,253468285370709
0,260574630824445
0,257912050551535
0,256288969604254
0,251291539960032
0,25190176291101
0,249254419636143
0,255175764359643
0,253994084317768
0,249891070383698
0,245465968051192
0,251309716392519
0,248106761365605
0,247071955507054
0,242982544719161
0,248572744312153
0,240859344783241
0,246954354459152
0,242853550158758
0,243746683823056
0,236692825287171
0,239459893591395
0,239213947050391
0,235389724103557
0,239544178210037
0,238137196289763
0,231414459878463
0,237111393108055
0,235368696218245
0,231835350321985
0,232931473224486
0,233232918832225
0,233286750721773
0,23446921039569
0,227963938930427
0,230661227521674
0,229013477887161
0,227010982618842
0,227658201753821
0,229415252728649
0,223127280220411
0,225746716123934
0,226693600858532
0,22417801358137
0,225757687604889
0,222878014390942
0,222860302534905
0,22326273152762
0,224684829065041
0,223476407155617
0,221555217781785
0,221038358851395
0,221126875450596
0,224200021436908
0,219166926232325
0,220671692961377
0,219188768962441
0,216555985538419
0,212916020176449
0,218295950369766
0,213786926430881
0,215800736105043
0,21588524182085
0,214324566969949
0,217826475418742
0,215788728304872
0,213505551935299
0,218616190738436
0,209359652075225
0,21453680633938
0,207650808851582
0,207426481671104
0,213246156955728
0,210240774488345
0,207407001397738
0,212325188156698
0,204931433611217
0,212067785058599
0,212720828543292
0,209946570246967
0,206092896773939
0,207615769165216
0,206174963830807
0,206791048700362
0,204829117220627
0,206735255384454
0,204046023833105
0,208857558695148
0,20345424283217
0,204550694608296
0,201986476814835
0,202939168139756
0,204767227927899
0,20275573257065
0,203019260536073
0,203777071572931
0,196335996167957
0,202614980369234
0,199437415552987
0,197055253876492
0,196354185306988
0,198379187075895
0,197597673508127
0,194624204675187
0,193485620967136
0,193839854202216
0,199105500169542
0,194692590198281
0,191795742050852
0,192614174764967
0,192778774053113
0,194305285306407
0,188751270350215
0,192106390385059
0,190404363671694
0,194373703813146
0,189162093905557
0,188660355679332
0,18995394693089
0,185821676980493
0,188105805773188
0,187981740347507
0,185839004449479
0,183944282121741
0,184708297539542
0,185259657381614
0,184934224943488
0,185745115160549
0,183050439374342
0,178976408108499
0,181378718104408
0,185707847362855
0,179459474810762
0,180965971917049
0,176753339387237
0,178477869236907
0,179900896499663
0,180119158363667
0,176835934770828
0,178973306628186
0,173611107877587
0,180352173540606
0,17490747430996
0,17709926834844
0,174273104835072
0,172996743614176
0,171501633749101
0,173778212046907
0,169549112422414
0,169385929252183
0,169379477473365
0,170110201765931
0,167398408150716
0,16569833647809
0,163635717071984
0,166952242041687
0,164641337862812
0,166136805764952
0,162668227060569
0,163685474417084
0,157697964687961
0,163807039247631
0,158438100331631
0,163856768547299
0,156408571391326
0,155520538992136
0,154705142792285
0,157823512923719
0,156774807659851
0,160267677334438
0,154733693115574
0,152914147657936
0,152303171354118
0,153377079322505
0,151613439029339
0,152893605399567
0,148639595586938
0,150027330252341
0,148450168708397
0,149898932221844
0,145146394857739
0,145754634366351
0,146216085660949
0,147461750262629
0,141198458957268
0,146519512520176
0,144041938221449
0,144577332918267
0,140814842293412
0,141356366251129
0,138414993365091
0,145369183512531
0,139425839314448
0,138188063591229
0,137446327251353
0,139236203375449
0,135095813869707
0,136086976030506
0,136046378124518
0,138549802784421
0,136031835395901
0,135792727053826
0,131134179009901
0,13346749010617
0,130215726849683
0,13069343375533
0,130571088258516
0,134748073748428
0,127429705340127
0,130446245179297
0,128316391751473
0,130586781049449
0,130423755230154
0,128774490044828
0,125241023918521
0,129197993952856
0,128013966686479
0,127593275633735
0,125767376513129
0,126811453158333
0,126985063704084
0,125686833300039
0,123054770840563
0,122888820136509
0,120491523718224
0,122553362248247
0,121349246701499
0,119658999112864
0,121200445300008
0,12377970218591
0,12131058620637
0,120669725082373
0,120170720839068
0,122546841525254
0,121362471999224
0,119803892312133
0,116253949499635
0,116798395590342
0,116170183106151
0,121086268805311
0,117064114217439
0,117426445450822
0,113523382951102
0,116735518812198
0,112779799861393
0,119561690211009
0,114768354172996
0,114839354585995
0,115872822718627
0,115255517048039
0,112710418873784
0,111715485706242
0,112505996197076
0,114780364390544
0,111143465688687
0,112715157511783
0,115050858977124
0,114046241719232
0,108595856560944
0,111149948187721
0,112039416570376
0,110466535610123
0,110789757732907
0,112751899404648
0,111153724358943
0,11166971274481
0,10929231987539
0,109364623574185
0,110268937812456
0,113365721020482
0,107566750942392
0,10850175439949
0,106057966203533
0,108262274925985
0,10563901674629
0,108813412136843
0,105509589043494
0,107272637919841
0,104079297200163
0,106676916861988
0,104928545060137
0,106526849486084
0,107081214229337
0,10858518071457
0,10274437248472
0,105815849961203
0,104030446367109
0,104188969478113
0,0995609097901716
0,103166377847511
0,102146500608836
0,102566599306581
0,0997050473568229
0,102568530351203
0,100603959634836
0,101674150714634
0,103160199021458
0,103953125828468
0,100044895651259
0,102197850392465
0,0978193552722479
0,100044969741434
0,100157449959135
0,100885667803891
0,0974794350033375
0,09954318860848
0,096737406326974
0,0999272066925374
0,0956360797890906
0,099359683987165
0,0964005968998203
0,0985287840808795
0,0948017450203232
0,0979501666620311
0,0944141276246036
0,0988425752587164
0,0945486168357459
0,0946436001908628
0,0937231789979095
0,0930320237127316
0,0942259988502166
0,0965435636436691
0,0941413708602222
0,0962046068686775
0,0912297056757393
0,0928518276619679
0,091466529967187
0,0932989624611611
0,0922721626567151
0,0946275546240938
0,0943619441780897
0,0926909875282997
0,0898091993918095
0,0922516527674755
0,0931901302147223
0,0932121115958401
0,0903165049842881
0,0903857907719569
0,0899724441369114
0,0890237027636173
0,0887387132171742
0,0903021912113298
0,0882514302094615
0,0937976403685003
0,0874083642134201
0,0879943427706415
0,0831710307509036
0,0877486354191394
0,0855722107139956
0,0887716814588428
0,0843158176925208
0,0868541290809589
0,0860523742986048
0,0861605729201545
0,0856530021437236
0,0861846141000545
0,0812663441226311
0,0846120453787515
0,0809699535405002
0,0810552935368496
0,0832668077502244
0,0846497561445566
0,0791727854956959
0,0823610091664495
0,0812801717345272
0,0794978807382777
0,0808383011728689
0,0806714482524571
0,0788434919466965
0,0820929181800871
0,076943808820815
0,0772101020171544
0,0768980526868523
0,0805299653286856
0,0761661633430386
0,0785519892399967
0,0749245134080208
0,0775571898380165
0,074082234574868
0,0762156437079554
0,0742637709729242
0,0768504453870135
0,0739893329085859
0,0757924237774293
0,07339123316276
0,0754743542142678
0,0727781180101506
0,0734197615183613
0,070381612308114
0,0733266736570018
0,0741703098990935
0,0744818695661478
0,0729974033958212
0,0704221226592805
0,0701609746421812
0,0711045095846311
0,0714691577923881
0,0698255726316901
0,0657672906506322
0,0703304167026073
0,0689922125222823
0,0725333885368531
0,0669052553221067
0,067109639847709
0,0665840847085827
0,0698699411595162
0,0662329970982202
0,0675576573100881
0,0660949613101001
0,0670299278898912
0,0656674137100633
0,0679620121635312
0,0658928478121123
0,0661148476751284
0,0679622743872428
0,0687091376332876
0,0620886186146392
0,0665656448366025
0,0603457858034989
0,0651931824427491
0,0612686745322519
0,0653700396614554
0,0632564447777039
0,0625632075829492
0,064309910003593
0,0629354844857577
0,0642068493472607
0,0640157684531223
0,0614281735977845
0,0635308713073181
0,0603419180654408
0,0650981427300221
0,0618450742637293
0,0647805296006213
0,0622349154787459
0,0628048530616867
0,0606205457525183
0,0637330948289047
0,0591683868253523
0,0592126154852231
0,0595563776408546
0,0604828890950912
0,0589474733342932
0,0615180762611193
0,0577334606346451
0,059631542892133
0,0593307715208732
0,058415126311329
0,0591418532658755
0,0605218228459217
0,058038251168257
0,06203114656938
0,0577375844421991
0,0594509567244983
0,0585176466453093
0,0616550917008215
0,0588160678694075
0,0590578769694195
0,0549857499153148
0,0573172195832519
0,0560700606133894
0,0606910546250304
0,0575479073382726
0,0627656720954878
0,0617428642735632
0,0568058769648241
0,0526360588652826
0,0592441169027693
0,057522143070467
0,0630549230903355
0,0518726072679054
0,0560984847489983
0,0562702636978772
0,0566190987776952
0,0585499700564215
0,0628938580234308
0,0526428439332785
0,066095125441705
0,0546177766370858
0,0641648190737252
0,0535945358328188
0,0600384498223167
0,0587937990115007
0,0545711525654382
0,0566228026553917
0,0587310436104966
0,0503884566562874
0,0537107829694902
0,0506680756451738
0,0554640134155899
0,0486461462326261
0,0619165736074368
0,0477904987772931
0,0562223243314809
0,0464306748788955
0,0566562427318974
0,0424878115500658
0,0555429571047716
0,0453734163223459
0,0701167751939831
0,045818367532031
0,0702526233635066
0,0415875021710626
0,0696132537515966
0,0323418944950118
0,0680455689439087
0,0365831522513171
0,0835855920809421
0,0319816930580685
0,0771849997129108
0,0273350982489614
0,0839234026179452
0,0298250628839295
0,0879161352547911
0,0224184191818591
0,0838529345618918
0,0305673310998323
0,0794346737606228
0,0275717158809021
0,0767209515006146
0,0447172520578577
0,0583592618954413
0,0461547183309434
0,0546600370686822
0,0579833123864692
0,0485966186535993
0,0654988424522996
0,0423020202723542
0,0611664100497837
0,0433438342061111
0,0578332254237056
0,0487872214286592
0,0516421204823087
0,0521458487418032
0,0491722583389218
0,053256296060213
0,0468754498464691
0,0545493604745298
0,0520797398945652
0,0535968208982219
0,0504998436381185
0,049069230640433
0,0515100303733933
0,0489405036946362
0,0516849569824617
0,0514595239354738
0,0505317296610942
0,0502264933081759
0,0506478406667434
0,0510831732434454
0,0488737235588246
0,0531827784130576
0,0522718230404968
0,0488038783441153
0,0501960633832154
0,0508943553218182
0,050935968374341
0,0506547303538774
0,049390736858045
0,0510165696386258
0,0511869017374634
0,052571367749899
0,0485003008007551
0,0524701433765765
0,0513471272188125
0,0532802694447514
0,0498118453388937
0,0513424128147769
0,0521031417050159
0,0524715389433356
0,048160549239193
0,0511069793247434
0,0527826526718594
0,0518568643139373
0,0506995696503892
0,0512023675742238
0,0495362758584119
0,0516401683333815
0,0512785896440892
0,0520475702637293
0,0484117277366177
0,0509924249332272
0,0510618110491114
0,0503357824271883
0,0501911209235229
0,0519812249418328
0,0499815202083002
0,0501922810820216
0,0517395902960172
0,0504142793395299
0,0522629444286318
0,0526431730544253
0,0525097027116163
0,0541081084760129
0,0517869202727046
0,050886822228641
0,0515032734733671
0,0512956888130997
0,0505197416506905
0,0527886770783291
0,0510964454754248
0,0543361217048632
0,0514407988507113
0,0505730211629304
0,053284986016143
0,0535003576696392
0,0507745831915762
0,0533193172036388
0,0502592818565485
0,05162819542639
0,051907875195298
0,0527566327492086
0,0505861993172526
0,0519794446706346
0,0537034392271833
0,0527849747683779
0,0541812217090938
0,0540202007217159
0,0526022850074536
0,0532510489459698
0,0505728229740837
0,0532658778838525
0,0536029723915749
0,054656983036188
0,0508424740559433
0,0558320052903843
0,0542097334793263
0,0553434718319971
0,0522319839552623
0,0498156453459875
0,0534177818779438
0,0552994952472498
0,0556177353762155
0,0548968580419246
0,0537924411366713
0,0564418328126453
0,0540263771803721
0,0526330970018522
0,053142456807705
0,0554749747825815
0,0528767538147577
0,0562382687931611
0,0545798751329379
0,0566568778573026
0,0551023870520611
0,0554048185735442
0,0536724562227883
0,0557867066682866
0,0547756898065045
0,0580744723272417
0,0526965499853732
0,0562658163754776
0,0572027794853757
0,0566616102422151
0,0542273609521939
0,0564834934617121
0,0580479830596334
0,0564088513660011
0,0541117802069782
0,0585530952292121
0,0553875259544299
0,0577462479598501
0,0554847986345785
0,056322420954725
0,0554822393624656
0,0557168945807424
0,0557809615625105
0,0579547866440415
0,0584200018180717
0,0572596364313067
0,0564794711944182
0,0563398090704571
0,0572574978019037
0,0599714895513603
0,0582714105503233
0,0586654596393936
0,0580079330173161
0,0611890236572676
0,0557736227645183
0,0588616134168955
0,0574919030721233
0,0605405857757702
0,0592879600741175
0,058679250027717
0,0567942542084739
0,0605093624205894
0,0595778622674624
0,0613314263913284
0,0594352144984701
0,0582161003788215
0,0596987589693866
0,0624352917535088
0,058663942538099
0,0597636604356847
0,0598036179411026
0,061003659525609
0,0592029561640613
0,0621103392446473
0,060242799643994
0,0620412630942686
0,0597451715046995
0,0603672982080105
0,0592335843436852
0,0616329638327637
0,0588146425523422
0,0603654105253117
0,0623888173573472
0,060149250493612
0,0597641107212231
0,0589122914596101
0,0588875488160586
0,0594380489481332
0,0590969135849086
0,0600396287575376
0,0570132493624639
0,0602157788371082
0,0585923279333009
0,0599381446440999
0,059440842777235
0,0590429378600106
0,0585126896416981
0,0579324119607797
0,0576789346127996
0,0579627353318324
0,0570415175837123
0,0575546213671344
0,0582314789975611
0,0590744770899256
0,0574379783359448
0,0591510778054531
0,0554992437462719
0,0598009664290433
0,0578783140027708
0,0577466629835961
0,0571522217425166
0,0567147271555676
0,0588209753984931
0,059198213238097
0,0556586150173013
0,057642032076884
0,0568293588603161
0,0574547362821695
0,0559036661059594
0,0567408322475109
0,0569036924695963
0,0564571454771581
0,0555525155153719
0,0563558659124889
0,0536898995045107
0,0576930594457428
0,0554496923923819
0,0567351048502917
0,0547087646487431
0,0558478429166843
0,0564048148178259
0,0576977241412166
0,0572600471579609
0,0562768866779527
0,0563853796244094
0,057098092333261
0,0559613347630821
0,0565668730079929
0,0549822537611293
0,0559871266996499
0,0566279405722032
0,0557237790915539
0,0562274409617131
0,0572459751307049
0,0578261607989438
0,056473295088031
0,0578952155005267
0,0562908908406039
0,0556322498145503
0,0563767230428012
0,0551199635778467
0,0563191470625006
0,0547080656742728
0,0552644925859105
0,053737018148616
0,0555251738525511
0,0541170194739564
0,0557096358293086
0,0533156363606345
0,0563951124278493
0,0542156235555582
0,0579203144275336
0,0565919149696155
0,0555768430784788
0,053216230849797
0,055848302182007
0,056547960764761
0,0549077211216042
0,0550568821398472
0,0574181305033401
0,0533538904177834
0,0551486805782981
0,0542819805636984
0,0564032182966846
0,0547319351358272
0,0556825972724352
0,0537463476563902
0,0555430796895431
0,0526985823664368
0,0539277225625628
0,0521914055899463
0,0528588140609302
0,0539859909120017
0,054601169925459
0,0502541047951471
0,0544668609672115
0,0525988976160555
0,0544293355224983
0,0539840781450944
0,0541657995077804
0,0509848215437092
0,0507767164013484
0,0549198516554915
0,0530277905935443
0,0539124466872497
0,0523187218568568
0,051007563342615
0,0529409324856059
0,0498678495410129
0,0540076901635429
0,051023221962294
0,0516532261397305
0,0504932030612527
0,051302450127477
0,0508272082236361
0,0496664792439964
0,0491118052567682
0,0497816510453159
0,0490871848541886
0,0517622930053994
0,050401859515305
0,0518926829200726
0,0490336435669341
0,0483684756137176
0,0492078308450902
0,0471636915266523
0,048913733408449
0,0486462657657273
0,0524855835337649
0,0482127144716918
0,0475763611714945
0,0496354041960063
0,0478094664196877
0,0479059665339547
0,0473921974824615
0,0475932083691039
0,046787453277104
0,0485357503361268
0,0469458817735124
0,0479433501774119
0,0476258615334505
0,0476154598832591
0,0452852030633065
0,0455802702776527
0,0437350240807333
0,045155089469678
0,044661759566797
0,0436028558801846
0,0453343987017471
0,0450482107258821
0,0450384771291215
0,0451875325187194
0,0446265513566571
0,0441874854404214
0,044157961150347
0,0493429112913866
0,044669121352668
0,0454623396373826
0,0440984130970188
0,048469729112437
0,0421704762564371
0,0464776651888701
0,0403076442905762
0,0450731002980451
0,0418951901570229
0,0476604966421871
0,0427974799330728
0,0447753962681948
0,0421704529586367
0,046883818576937
0,043875376805629
0,0429386514354852
0,0435977000564598
0,045597768628679
0,0424716289402365
0,0442600565067988
0,0418496367131602
0,0454760076682906
0,0421544295457513
0,0465694393703855
0,0406767858171854
0,0494557175803644
0,0430791619478349
0,044489044928554
0,0419861092985956
0,0446117906225662
0,0386734741917506
0,0454823800544075
0,0432247729400146
0,0449536796043749
0,0446969016557269
0,0454633588788189
0,0395446599921457
0,0428972863566757
0,0427582596518625
0,0463260919857021
0,0407545961797684
0,0439845425694492
0,0427483602139886
0,0454919134089621
0,040216552134064
0,0460136385068598
0,042008476401671
0,0436862334956355
0,0393414319839186
0,0480277641256583
0,0391113995575328
0,0392555794439677
0,0535121298384047
0,0399570717587687
0,0437015072943917
0,040783784406283
0,0453321334908454
0,0417559257529893
0,0423786791943773
0,0407595979422096
0,0419913921671088
0,0401499479646454
0,0422845684165557
0,0403404932521495
0,0426810473980054
0,0416598830799335
0,0421416115166133
0,042243063561369
0,0440645126988721
0,0401385154650324
0,0440018234506446
0,0419373345367919
0,0426915384996365
0,0480940179258032
0,0437013419777046
0,0397322969114371
0,0460486122597759
0,0333619845012527
0,0516334930826249
0,0399089654231356
0,0427598202758514
0,0412899511185385
0,0404232369191015
0,0410037662566288
0,0410801944349434
0,0417161076790688
0,0383885459719571
0,0466938349960216
0,0391282721886588
0,0462586283927484
0,0386636588858316
0,0433896150736648
0,03982218200296
0,0423909851103812
0,0407027536026813
0,0407129045485204
0,0398120064860279
0,0404195556445204
0,0413331621450334
0,0421636513789064
0,0418012255002701
0,0415146840002146
0,0384569691277534
0,0441866913319443
0,0402609497165498
0,0423787195422465
0,0410068440488371
0,0411269696838698
0,0361660041244253
0,0564875911934631
0,033973821205074
0,0455070016729416
0,0378528473059251
0,0439522902419738
0,0387424148803584
0,0416296626842727
0,0381308023223986
0,044825959162321
0,0375356824846875
0,0435725429834208
0,0377863888182882
0,0415109171925847
0,0396518661622983
0,0424256906339361
0,0383188848201247
0,0412985085400094
0,0410892183110428
0,039049598868549
0,0426630366220208
0,0374826533229232
0,0436281026678351
0,0512118634319654
0,0450095022400627
0,0493117549485977
0,0413679418914332
0,043737505475515
0,0378717267613794
0,0435049763271733
0,0373383361159661
0,0471120238782258
0,0372691778663918
0,042456680192248
0,0379714555741879
0,0432814853797508
0,0358264587129431
0,0452634905378439
0,0358594106783847
0,0445304516164983
0,0373974115709046
0,0470761636287179
0,0349989501803588
0,0474737406493714
0,0333446301522213
0,0485760962631212
0,0350860788747188
0,0497072585655784
0,027513482627836
0,0579104482711679
0,051388818216493
0,0389608762951858
0,0469549452254638
0,0377845130163117
0,0407767525082201
0,0418482797436734
0,0420904818069134
0,0435444858122423
0,0420009790655545
0,0413290408635535
0,0426606172728656
0,0414400540532042
0,0444049648787015
0,039853432053629
0,0360819759106222
0,0587157948478375
0,0427511037574707
0,048940241414512
0,0387484477445266
0,034905726426707
0,0546499203522123
0,0372046098177578
0,044730577704885
0,042493762844574
0,0405552607071832
0,0438336312643446
0,0446504230970117
0,040314335165099
0,0421470002840506
0,0455446010808591
0,0400296370199921
0,0467543827061652
0,0386298582292421
0,0484048566126812
0,0403966533249405
0,0460594318480728
0,0477598238785083
0,0415255419747792
0,0464129488674225
0,0449084852742124
0,0418564426694324
0,0443804507693697
0,0438058613212832
0,0428058178219347
0,0427438965208975
0,0565869824593579
0,0392318778395222
0,051051468279824
0,0483629233233611
0,0413370273870173
0,0464378809255838
0,043206707810468
0,050647125324081
0,0420642283580973
0,0397318801576545
0,0688937523688929
0,0354757447578258
0,0690055781747688
0,0362485252042925
0,0552212229765593
0,0363017950220324
0,054411117427232
0,0304770397506475
0,0657245086251796
0,036797261906341
0,0548450038783902
0,0401427718287554
0,0536587057209078
0,052485159313301
0,051456651581431
0,0502493868064181
0,0492219888296303
0,0449657625870899
0,0524632098130553
0,0518795629381707
0,0373737146785246
0,0619589101165422
0,0584289075276819
0,059406220078792
0,0558252665816449
0,0349957143654935
0,0823243217385359
0,0447285763118284
0,0569967734435384
0,046328104088419
0,05541521549934
0,0524664164077024
0,0434673950581524
0,0680450159991921
0,0549468592531485
0,0465815886290136
0,0616961169706199
0,0410815096534235
0,0687320351449047
0,0540044936966684
0,0583359847129465
0,0496285832128892
0,0636137118455626
0,0374323702315517
0,0817968550438465
0,0623219038653303
0,0540246787579646
0,0741261241549673
0,0555702625839403
0,0681229959631354
0,0585547932881494
0,0638955692287527
0,0573343790477616
0,0737534723710423
0,0638128658097718
0,058638349294632
0,0604351215020021
0,08492831184129
0,0542832635106361
0,0757126885909841
0,0588311018950865
0,0606237420491882
0,0703203513944594
0,0951857316152573
0,0747080544762784
0,0740640295570697
0,0619606064926453
0,0913977486926586
0,070289278057299
0,0707553895666334
0,0716808099503725
0,0738729588160204
0,0761883393343858
0,0669709967566774
0,082944596746503
0,0771093398400009
0,0770509805131272
0,0801947174734911
0,0724841764976844
0,0842506221840783
0,0907932037913616
0,113076336564518
0,0721076418813611
0,119630516615173
0,0902013015358754
0,0922976799627501
0,0887751566582422
0,086516614361794
0,0977031791610867
0,0882406541389138
0,0944938788656406
0,0880316259370523
0,107044623767356
0,104418619798981
0,0899729612304514
0,121764379467653
0,0929664286101392
0,11965683232649
0,0575104597290596
0,260851182605898
0,11351299375626
0,129642630365393
0,121307275659815
0,111046352515897
0,182093533552301
0,130568559238715
0,135430481697884
0,140098866442645
0,139772225095983
0,145522067727839
0,15780440657153
0,155670302018738
0,163776254638034
0,1714288534657
0,162110185982771
0,173835987740342
0,211600540020437
0,207889073038629
0,20666464894784
0,187803380655287
0,210160052314339
0,216541207931719
0,208182349285368
0,216994428576253
0,219027187804657
0,204623661442535
0,277222688906664
0,225260916886593
0,253509538505344
0,229761335167613
0,286303665859534
0,233251408271147
0,303075592708246
0,277949522234015
0,276863527601965
0,283049956307378
0,27831683812711
0,293151497455101
0,279148776007705
0,326704595760802
0,312794100754846
0,306513428906309
0,315292881423859
0,31459562609434
0,324208390975605
0,32018286243639
0,334395038856787
0,315345921109672
0,36151617926946
0,314077074857085
0,439219981128103
0,359017161266123
0,333482617078134
0,346152168435158
0,322112509552861
0,366932933513954
0,343196113183048
0,353531181530511
0,358168204591876
0,338810056381802
0,352572350739744
0,335490822678191
0,350609812654159
0,333391215629297
0,351379489433822
0,326170631066277
0,366287904418229
0,344709148102487
0,330804232564756
0,39018534947959
0,331760506780335
0,34317907635974
0,330342346305465
0,332556461192079
0,333149466914047
0,331796732456597
0,326323109137841
0,354331618241245
0,311793621964197
0,329308339311065
0,307965458618098
0,336407004047885
0,324716439268125
0,302420662556778
0,315852178602348
0,298248735967913
0,299020139388704
0,294384088196932
0,292424797545148
0,330800644916932
0,27742479608923
0,287762446641362
0,275183900848093
0,274971909798568
0,270573316214889
0,270395669999716
0,265428458013817
0,268884795961902
0,251045770953518
0,262808394925616
0,260357175234031
0,264045539138752
0,255685336309356
0,260223906224541
0,255044705997872
0,252809052241675
0,251881360806371
0,253202126848245
0,254512289302821
0,250552320049051
0,25302306763986
0,249100896059052
0,243833440744572
0,249351702688784
0,241260439976823
0,2451768701508
0,244726775199857
0,247026273282385
0,245938603584217
0,241510940290738
0,242884375443214
0,240450131658131
0,2427427389052
0,237401533730828
0,237450819261287
0,238943254396362
0,243073825185367
0,233242212554911
0,239438447581354
0,231390851155368
0,244700229667946
0,218254172870759
0,262283529690442
0,251641197926055
0,232149862925982
0,243216733326723
0,222145294084313
0,240715874962978
0,218391705473983
0,252341432555062
0,24156466320311
0,230121347344313
0,23194846143884
0,226853638098332
0,230683053693188
0,237421706798824
0,213849344442454
0,233512603394801
0,205818436777615
0,227239099353069
0,260258200531935
0,215696296878442
0,26473193304985
0,220999368984998
0,226486157142642
0,198139792381553
0,254436856996289
0,204925307925187
0,224856432950596
0,20937180930832
0,241663280761826
0,228309265432667
0,209428374202127
0,219455859704902
0,206644704125129
0,218127917926667
0,235055842289717
0,212938104666131
0,208391500213442
0,234574978650095
0,204170912029248
0,22435578369087
0,2330212810317
0,222363804704655
0,199550338749184
0,204437169328924
0,20825050670643
0,187281791043797
0,235206118431069
0,199550875403363
0,209752592047913
0,197496473890806
0,184916810007989
0,192514526065194
0,185693738011028
0,20667056956304
0,170283240836899
0,22188258304361
0,171364205007296
0,194639365194612
0,187998678024944
0,190948877616548
0,207144556417469
0,181955637075653
0,175050576756694
0,185079595820779
0,210973533004505
0,170455946914619
0,186045321513215
0,170536275929599
0,162634564985928
0,185458829000008
0,166910616755475
0,174792312574856
0,178890783315704
0,163999305737843
0,19641662270786
0,168694987283313
0,188494841119369
0,171036341301966
0,158311455395562
0,16337880327276
0,156497988742551
0,171963267288303
0,15757525822719
0,16663473764677
0,176729196508858
0,142839381777354
0,203253306753838
0,165275465996535
0,164569594416546
0,167040913400614
0,16769354744523
0,16760828256804
0,182535801432481
0,181853722580846
0,183828493656221
0,167066780474073
0,198335914879959
0,173491006318352
0,19166394348529
0,179566274390458
0,19448360807892
0,186755066647327
0,202751948894245
0,195777160476488
0,205125465570897
0,200933758575976
0,212549365569053
0,206268380591914
0,253951068274258
0,207299250014817
0,250196057670037
0,227601751672891
0,268126111419793
0,251727016083092
0,2464406770018
0,259772077299386
0,254208476292649
0,262513803869286
0,267898724458056
0,25755346377421
0,300445154769373
0,267592662390558
0,292407116502823
0,279876925079071
0,293277735022418
0,281662849621231
0,313838743634195
0,295162255921027
0,310484364905888
0,338135951503553
0,304684887721536
0,317692109624305
0,30124745415097
0,318252184006081
0,318151823882985
0,308856904652828
0,316698476895087
0,304573940451209
0,334600851819235
0,315859662711939
0,318296214536866
0,321644154627486
0,318095890076148
0,31762727848747
0,321175058106369
0,324174106363512
0,326783241106496
0,322384582498811
0,334961696540726
0,316212601457912
0,372002223305052
0,341058742340909
0,335424322607015
0,343086228706028
0,342009743299272
0,351832878881602
0,342695586590204
0,350443594131906
0,351725598991684
0,352957780982995
0,361461623018708
0,353049638700263
0,365072514981257
0,351951128719817
0,38223205771941
0,355923447707802
0,369761854503583
0,365148801330265
0,364852813817525
0,411805218150831
0,370565835388965
0,392270209843877
0,374778229819561
0,38932804416159
0,379184866489794
0,38456632492491
0,379811125234842
0,383517145860968
0,3767868309085
0,384573775749894
0,382387168139309
0,376114657342836
0,386411847643376
0,379822216533147
0,394208412921406
0,381460024656608
0,381259139692141
0,375902443700656
0,374373667277819
0,373938571076808
0,388236246685785
0,381716096295584
0,367199513905967
0,380896295884658
0,367841063838808
0,379141069114813
0,377310650843132
0,371117524523549
0,371802452315041
0,375678731386604
0,375256218066563
0,377158588073872
0,374178235279376
0,396485572998604
0,378014063881568
0,389916843005559
0,382552147451372
0,387685268822653
0,383411038772842
0,390143554089492
0,386208500079139
0,395765259464123
0,3904029245493
0,396925921026484
0,395821159197446
0,396817314783881
0,40379493636554
0,404711536751804
0,408389086501267
0,403311838455873
0,399211756330825
0,405611700899521
0,397500068930207
0,40853313569705
0,398862334485532
0,402232611508392
0,391381848582509
0,396568815801488
0,380359981020136
0,411073312146023
0,389235705084432
0,386450932112899
0,389559445036757
0,379477874964547
0,381640398731369
0,377247697641208
0,380778330286614
0,373886598007643
0,376397674206384
0,372934827337857
0,368843873603817
0,368409078399576
0,367317060005275
0,364660547698495
0,366131891650872
0,362749089726291
0,361405012377451
0,363095191805613
0,364072571298478
0,360996839332031
0,355904232376026
0,36273923853292
0,356261773041202
0,361204780895212
0,365366409036553
0,365254503831445
0,361207091729463
0,355547202467284
0,365393317211316
0,353425651089427
0,363355866178074
0,354665353794745
0,357553049228864
0,351568864573924
0,354723988746876
0,3522736322684
0,354481379393323
0,352761151038865
0,352936889420669
0,347484696788916
0,35089078584351
0,347823961123634
0,344944055155016
0,344393294113301
0,345717954242913
0,342568587273444
0,342939119483296
0,342464630607893
0,337562510919259
0,342639960752812
0,335419966435773
0,338758682880607
0,337084290750442
0,336450831990991
0,335017350951802
0,332302588875096
0,334520164484136
0,331275282596664
0,335404110488468
0,337551342817447
0,333713034725525
0,330561885924002
0,329762983835428
0,330878701418508
0,329142434616561
0,327347516313203
0,325840861099676
0,321654617221112
0,320831838532256
0,318616091708209
0,315170510383641
0,313310580907638
0,310589779493171
0,30795298323535
0,304051684821514
0,301553959292685
0,299795902811965
0,298664693705411
0,294182883102272
0,294134462805552
0,295316592665832
0,291429020283868
0,289094533567725
0,288452426308419
0,287510949360566
0,28598387710025
0,286344331876778
0,291051353995629
0,28638634672206
0,285985091425143
0,287297063146484
0,286315773871416
0,289580850528971
0,2914179900112
0,289723035506823
0,291378423167985
0,290680769936028
0,29225458442293
0,291102444038655
0,294201875894144
0,294997140552976
0,296811497886971
0,298330839380801
0,297780795209194
0,298367440630002
0,298743631460799
0,29861606200422
0,298802590540038
0,300130972686064
0,299317633593406
0,29949690101433
0,300276755351449
0,301380365484843
0,301592660524864
0,300650200045786
0,300810361131537
0,304056445779542
0,301614045899156
0,302653684067062
0,300058718081605
0,299968997670954
0,29958188752851
0,298338512516842
0,297789195582685
0,296654811958548
0,295181467817031
0,294701664120604
0,296215288068731
0,294744960507481
0,290479227003172
0,292666283113576
0,29194622709191
0,289633820194134
0,289388473395628
0,288669701272311
0,285925676328856
0,284904286401421
0,284358199983144
0,283158031966347
0,281475812558341
0,280195427794466
0,278709907561022
0,27783429859587
0,274589729540239
0,275113377133657
0,274604693339418
0,27325226032436
0,274314916740301
0,27043118275158
0,266736642449717
0,26605090096152
0,261802419637333
0,260468175302122
0,259706477729365
0,260177033593813
0,258057046223945
0,2548615395214
0,2531409189198
0,250736575398446
0,248938398440319
0,247450954343017
0,248183015583683
0,2489206769548
0,246757512394997
0,244318081298886
0,243887031743434
0,244282942620423
0,244027422750495
0,243730354937771
0,243807311390822
0,244408509609877
0,242755098558309
0,240959475816223
0,240040882214641
0,239082131881896
0,239437201499349
0,238459609099434
0,235780805699309
0,231544751909285
0,227571232609487
0,227218271198994
0,221943437762979
0,21975616220745
0,217532808217946
0,213814306277769
0,209574240722119
0,20694820156589
0,203868742114771
0,204951070109171
0,205237709965565
0,204064102134267
0,205784569265172
0,206396964272516
0,21059578710068
0,213622347379398
0,218191537275747
0,223953480549711
0,228188371588513
0,23669450421429
0,2445800676735
0,254005733688517
0,263292393240332
0,275297046995414
0,285700555048858
0,295093226573983
0,310317211219329
0,321327553802868
0,331450965353487
0,345640293633244
0,35915372479986
0,3741902333137
0,391696831359519
0,405001502048503
0,422413676548372
0,439194145315274
0,45225831591958
0,468190759257511
0,485060873349375
0,499468748778231
0,512371175564647
0,528589394456112
0,538922052595752
0,552166158473423
0,563453188123055
0,572345954723893
0,578051287918282
0,582357521238512
0,591019287384308
0,591797543502813
0,594885073119727
0,593619056459397
0,589534602542046
0,58826404987027
0,58442067408083
0,584330794222523
0,580644341712922
0,572125463108591
0,569817959799277
0,568527699325792
0,561804765125658
0,553330845586422
0,554191894589502
0,554052875079436
0,551270906605011
0,55483807862768
0,551788711771259
0,554610317137236
0,558021800267442
0,558818856996644
0,563964948059876
0,56724588296843
0,571934346239248
0,575879393088319
0,579524303857914
0,591562886636675
0,602086703772481
0,609066075905197
0,614946839020528
0,617735670262989
0,628549986600484
0,635270301887966
0,637243756545515
0,641968289344299
0,651145280523668
0,651389812692912
0,653285743922808
0,657283214013739
0,656171842665453
0,66119944220112
0,659906397197537
0,660230869878341
0,658146597960907
0,660026509696605
0,664133207955813
0,663400919130661
0,665531272616595
0,670045645090498
0,678026168470205
0,684987409626585
0,685654090737719
0,68999243826675
0,699358486518621
0,70868504517069
0,710906372143948
0,714680530776482
0,721493184165556
0,729180904791539
0,735790210414136
0,743353960788859
0,749598087495121
0,758962925442581
0,775142416899556
0,783831613271197
0,795800210362671
0,810086866472794
0,829950039571612
0,849453182772094
0,863802243419376
0,884819012315552
0,903855366032721
0,927469037423078
0,954560423738602
0,966376175368869
0,978447040123146
1,00320948037004
1,03888131563053
1,04146075968271
1,03897304395421
1,05239912329001
1,05118732697101
1,04922260794128
1,05196352283516
1,059517274886
1,05883543623071
1,04357463321924
1,04425037186317
1,04131315476469
1,02957043320644
1,02655634675549
1,01958236385855
1,01696868390689
1,0154616607687
1,03661808845129
1,04065750714931
1,03413358397719
1,0414407751386
1,03862976012449
1,05336102927661
1,07156848128835
1,07877688717728
1,07950021917828
1,09384220060096
1,11206075848751
1,12207870425982
1,13041198196837
1,12982846498351
1,1624395899085
1,18184001792675
1,20252709843037
1,21127481518958
1,19029912022439
1,20834857579445
1,24400997619797
1,24676496619551
1,25387897130304
1,28924141502992
1,30713408109587
1,32249405759759
1,3173564559645
1,33626184951133
1,36585412992357
1,3529303453974
1,38278530432609
1,3992243493467
1,36843326612233
1,39902284908724
1,44224465513142
1,42955296331588
1,42827060136836
1,48689634911076
1,50331004007564
1,50171106139605
1,5114852452873
1,50113871263148
1,55741495976978
1,53081936454278
1,54713959764742
1,57354045233717
1,55176649773125
1,56451301435855
1,57059704080537
1,5821328749295
1,58612534354503
1,56645806631137
1,52236806376685
1,51752815253314
1,51783268009895
1,44455822458336
1,40383246861126
1,41553361431817
1,35805346831485
1,3336063116278
1,29776616957778
1,26900906291816
1,26260369152843
1,21796888167473
1,2272075843053
1,19663915535793
1,16860689525524
1,17218020394238
1,16942348587839
1,14460480115568
1,13051581892672
1,12280025786358
1,09360940882213
1,08035195550933
1,07361340296601
1,05483315017268
1,02427890773538
0,996281657705097
0,966995619670562
0,943403696028034
0,915105195592693
0,866513749059443
0,837121135877603
0,803544534491019
0,771928167430904
0,733953459716924
0,704528776567831
0,67071992979299
0,633711599874768
0,607925663969476
0,57114175263377
0,539190248426756
0,514520928277067
0,48588402870162
0,460980742829231
0,440674894400176
0,421993927865707
0,403745790634682
0,383221287158979
0,36972158928788
0,358389475593631
0,343398950088334
0,329640113442662
0,322982337759429
0,313219683133837
0,302987032798914
0,298126290759545
0,287333311926859
0,281708923911831
0,280627161441018
0,276926467487973
0,278021450948238
0,272956435472021
0,268385287018481
0,269066388675817
0,268536446649639
0,266889410089505
0,263420067048562
0,267816742525228
0,269158943698426
0,27095745140146
0,273647439515419
0,273838785069673
0,282312167535492
0,282250494076458
0,281053773663508
0,284514530054574
0,285747390283864
0,288801298250186
0,291928189938806
0,293746465672784
0,295304691386121
0,295924609461053
0,294933194660784
0,299454718760758
0,300587711942052
0,298624249314596
0,301072270851392
0,300377691409173
0,300841625523298
0,300099839445914
0,303685697992612
0,305017982671357
0,301401534314772
0,304588419036917
0,305742280319661
0,30700266086653
0,31136950185547
0,305391283274718
0,304004814853875
0,31139308092461
0,309332980127281
0,306975390986611
0,303545731541779
0,302137513364019
0,304365890890495
0,304384122816928
0,303386896004305
0,301027656239593
0,299738437238678
0,293656818738782
0,290711035352456
0,291595162228743
0,298158030880712
0,296071801410424
0,296756362783253
0,30051141133536
0,299929354790827
0,303200434654946
0,301744219564483
0,302796750151414
0,306680834765347
0,313192741441007
0,322939474333345
0,325489526555741
0,326885065686542
0,335713444638026
0,340655489364354
0,347970419248444
0,350671963342831
0,351948014727964
0,347997124355467
0,352672860857831
0,348677940620386
0,343980242439682
0,338063925194134
0,336187178060485
0,336454735073917
0,322880803603626
0,31893994093632
0,31635602186883
0,314082130892402
0,311274897573618
0,305878193944404
0,304848954278851
0,306587542773593
0,307496141020138
0,317084210253382
0,310977465468755
0,314186525542896
0,3206540837517
0,312737438476336
0,322400279020547
0,311130333551414
0,317761833745534
0,315789343913939
0,312277157397707
0,313904594756099
0,311028504392279
0,319801847925051
0,316685869836203
0,312234625681134
0,315189769083824
0,316270778181272
0,315872413561072
0,313866964772863
0,307355876079575
0,310397490944301
0,318215996141337
0,320744789038606
0,307308043280222
0,308656610322291
0,315988682615977
0,314574106326148
0,318519993489797
0,314751560360339
0,308000118741497
0,307539650393913
0,311739171738336
0,310562078711943
0,307520666436132
0,306719280819688
0,308243306474951
0,311897833957887
0,303043248744535
0,300911844908301
0,30729016720643
0,294654396503255
0,300508576079751
0,301028175967967
0,292272898780228
0,28490347500646
0,292653537991351
0,288248779778572
0,287972825447577
0,281219535732165
0,290551617934967
0,286348048453343
0,286387986383139
0,280667694618807
0,275039523179748
0,283192855874539
0,283491098660619
0,280121502009214
0,278106737029688
0,273281092194385
0,283540043190654
0,284348271676401
0,28823365162241
0,286423452272423
0,287422639338536
0,284802902797605
0,288954497272781
0,298482112274685
0,295107383515371
0,287409043993671
0,283113431788406
0,300690546159877
0,307678665646989
0,303234976641733
0,297748026275091
0,289412318353173
0,308067989654471
0,30312408110115
0,304223232639683
0,311216060837283
0,313612079727061
0,313392230973795
0,32178163363247
0,337772987556736
0,340697669306446
0,322094760495205
0,348745946399953
0,351509159416436
0,344475915130356
0,354786328333117
0,372764160692542
0,381016794294404
0,375328729584878
0,392498526426079
0,401250389678644
0,412224906219753
0,42617331397444
0,427166570810424
0,448464418900118
0,431958136238335
0,440764723785812
0,438697597362681
0,422938765803046
0,461384777628733
0,467744793607153
0,455692815313048
0,457214125734038
0,452004000028813
0,470336805247188
0,456783087864556
0,456319152633914
0,446531205668725
0,444674979360618
0,466821951991092
0,466291682265163
0,444610662403267
0,456568696910807
0,465234642423775
0,484705042849721
0,460310627075577
0,450356915582911
0,463192972687093
0,458816940068409
0,442621511810399
0,442443959395921
0,468194768888067
0,451111070068667
0,464566583235242
0,451099060960505
0,449865583508474
0,467611227845894
0,442933762320622
0,472970549667011
0,447644429328799
0,445468146543828
0,442416673818732
0,439426776289526
0,44452757112518
0,440691463568098
0,450943836565376
0,46533897658648
0,432597724755383
0,408005245118761
0,414773654618701
0,431096144550784
0,431221008519495
0,435417369825037
0,438760974635505
0,449092981372095
0,433243678739672
0,426036707017677
0,429736210631171
0,431931107768075
0,433543683040448
0,43453875910256
0,452963992527982
0,460036532351485
0,450345510920607
0,451056684664143
0,44207486248876
0,4689982036112
0,45125527372837
0,452945915543922
0,467800074386991
0,495233046448525
0,451153809711826
0,439551274118797
0,454596484503765
0,484794110801771
0,476765557540031
0,539719774592894
0,547456452765929
0,553715244794978
0,51232881108476
0,516953929719858
0,488980190060895
0,475403247237511
0,570542548805659
0,586113829398799
0,490282089212596
0,551663444777477
0,556813950070097
0,574360477861938
0,547795170320466
0,654046610506958
0,62816546456168
0,610451193231174
0,57759824550652
0,59218371693955
0,611360739944018
0,61998444784726
0,565955027402355
0,597554979743301
0,565549914900328
0,547482700604852
0,552302770706231
0,636248970783599
0,535707120557595
0,581331421567409
0,568858141029738
0,539136089871007
0,50755559969854
0,514256472947734
0,49411896713025
0,527458210742141
0,538654999326094
0,560335746316547
0,492751691947848
0,666620039507299
0,498032885968596
0,542910864500655
0,614537262783127
0,644241777958253
0,555000793945788
0,63956732795389
0,491969288536005
0,659515471741758
0,603497389963787
0,455153092272065
0,571012211769179
0,564009945040399
0,514819785213062
0,635011033523069
0,620308691140109
0,487005221071068
0,554313836404358
0,674584396154207
0,434174110144553
0,488910639604903
0,560170207462074
0,726403674037487
0,563743720245832
0,630335156305587
0,830198746910786
1,06950103667661
0,663036413720079
0,801571541951262
0,521904227002136
0,475484852407646
0,609515359155534
0,82329525228993
0,568995576958388
0,615642451673936
0,39466736526585
0,76815480634669
0,476967706096396
0,681738170749937
