3596
4000,36533379555
650,420452594757
1
2
2
0,0727688621007531
0,0411359621731523
0,0593853453097771
0,0394195906459792
0,061294895440591
0,0389684852278254
0,061741773866318
0,0446433548362039
0,0596241936897997
0,0439483443046976
0,0675052906621102
0,0409638926839517
0,0579282446879515
0,0441157232663842
0,0579537695364669
0,0454353559007589
0,0629110269387457
0,0411559942499093
0,0700859924380614
0,0440733199979393
0,0566583497228187
0,0374652360618939
0,0632733570928132
0,0404755622809387
0,0712385989588588
0,0464122933799761
0,0601027311161517
0,0475384512231363
0,056880618749943
0,0546121026655377
0,055675817055154
0,0443480491655075
0,0573818047415605
0,042384999507435
0,0635986891972168
0,0425285830378931
0,0528115133049869
0,0409082668488275
0,0639158364421703
0,0435304612987516
0,0623579467085441
0,0396364249934846
0,050429782388524
0,0454777369160574
0,0635163014102372
0,0434421359969822
0,0628910074118658
0,0469903110396716
0,0614631160793723
0,0374880192631929
0,0554671152224719
0,0432546065862293
0,0606709492256059
0,0514369552531322
0,050155626995619
0,0498581180256477
0,0622141218961929
0,0452147679852856
0,0595552524969016
0,0426190024779482
0,0692571686530922
0,0473614035303483
0,0535055241263238
0,0391649322307926
0,0514221442213633
0,0394230817951383
0,0539249489585172
0,0417609484937548
0,0514069686476552
0,0390037783849963
0,0552070968552305
0,0442892965834809
0,0634481103769895
0,045075294461839
0,0605698140423157
0,0448643167931555
0,0556342430630402
0,0375374341200825
0,0538983481288944
0,046029336711686
0,0649598820426503
0,046118200784248
0,0590388476983569
0,0337249010569889
0,0624176513874544
0,0386010912190566
0,0543883728394241
0,0366620416660523
0,0603708714524801
0,0513535967540162
0,0519220365304209
0,0423910227605742
0,0563635695560701
0,0396721743061566
0,0579632087443106
0,0357085503767415
0,049030612413448
0,0455976560588809
0,0551668225668
0,0321256713586002
0,069670732676517
0,0165027124044975
0,0785043355414718
0,0273693540423473
0,0834882568308853
0,0505610415244549
0,0436431897029274
0,0692684945228714
0,0611120605801439
0,0392996343201927
0,0509944974254225
0,047982783463787
0,0467427401546003
0,0369115504452183
0,0476893782992591
0,0315470872106772
0,0802166116419022
0,0390673406010358
0,0541292261023017
0,0405174832980611
0,0486345917032696
0,0325957992055162
0,0865761071134324
0,0403052078795315
0,0626204888092713
0,0356756353812443
0,0418265097496699
0,0394523597315204
0,0846948934788949
0,0340699672418703
0,0606485321853873
0,0339339568088238
0,0546457443407274
0,0207256790101355
0,0754367883942152
0,0430649964902153
0,0564532956347705
0,0304561705096514
0,0605193723983078
0,0700927298025274
0,0575374169381866
0,0379882802112464
0,0544342147224169
0,0222657292719691
0,0778050200925465
0,042191060952802
0,0378987480909762
0,0307214407814669
0,059328335978627
0,0287001195993499
0,0595234781200503
0,0346325566197651
0,0609701230378112
0,0435654313496322
0,0354796967493947
0,0127096028440776
0,0979367648342729
0,0106144919119045
0,102138021497854
0,0372076252045277
0,062379858066829
0,0378499000577022
0,0483390151781697
0,0391053275611209
0,0541810323697676
0,0378029337247981
0,0550656804103833
0,0600685519274891
0,0486710257319449
0,0329358586152353
0,0688355014778112
0,0539424773446639
0,0394835690375896
0,0647848391474506
0,0689684607030887
0,0174283559995229
0,0615972227722782
0,0414353619936622
0,0532856705445222
0,0381980969420366
0,0754081785175665
0,0365450381839342
0,0612651484541596
0,0422903570995332
0,0584480603105225
0,0433361586982855
0,0598067917326122
0,0300385086656883
0,0582833952419274
0,028476246415729
0,0656460584177096
0,0456309719440287
0,0833345328983876
0,0418528128062359
0,0611687501013975
0,0224172604144199
0,0662253745701243
0,0634106459839072
0,0528985649037427
0,0374697328362121
0,0575159318629127
0,0390862272215516
0,0541861662713857
0,0360086701342494
0,056786177586629
0,0282798539738819
0,0896566626281952
0,0492690381396429
0,053740214856827
0,0379361108261427
0,0597568525981815
0,0320687092795014
0,0652815695264345
0,0659541907562531
0,0517419299276482
0,047187330255567
0,0625288513001606
0,0382193882547457
0,0704666724093036
0,0397399590456608
0,056649610871558
0,0421311631941298
0,0560784286495656
0,0426662222393585
0,0609330303199474
0,0441483936120249
0,057147297150899
0,0410638402386687
0,0539085196506839
0,0402972162232791
0,05776804951822
0,0472471515121988
0,0530996823132065
0,0451385928962235
0,0579053776691419
0,0395145589257666
0,0751084879380011
0,0453131262628774
0,0605662859287027
0,0441161058347269
0,0607227412033418
0,0423491086556713
0,0613218706035689
0,0424314580075196
0,0654797044210124
0,0342385467593103
0,0870383305291113
0,0466255805430466
0,0574934475720877
0,0437339628987922
0,0632782239850628
0,0605220334126954
0,0529560587674489
0,047230911865507
0,050189728489643
0,0505809808159064
0,054791894167293
0,0754918564474478
0,0597633850196709
0,0493614353876203
0,0643296880383629
0,0599735282816872
0,0495512858849063
0,057123869553145
0,0435641929664693
0,0804718439470026
0,0697451078058021
0,0108284861899532
0,107718324595759
0,0535800317052754
0,0639850501277661
0,0603749555637563
0,0500869185239283
0,0984383774710511
0,089524378557943
0,0512075275065431
0,0649610241521327
0,0721387235886225
0,0603754863223633
0,0527570069340684
0,073020521139027
0,0407752559108525
0,0753366520443414
0,0337706930634057
0,115496239968721
0,0484284709140507
0,0694499273220563
0,0752361450218293
0,0636195553821103
0,0593043279717265
0,0643409729924329
0,0546684820388944
0,0694137589494245
0,0722541812174118
0,0668724497120279
0,0714570204588358
0,0581832178957151
0,0795361570876486
0,0759512755894415
0,0638018883648062
0,0665176319758644
0,0663185672167239
0,0595598027463701
0,0665612685649845
0,0659679605577875
0,0573163116362152
0,0682789672854556
0,0500984799675778
0,0976322278289668
0,0736272463325746
0,0646194851226716
0,0734501952279276
0,0716106850850779
0,0605864321335888
0,0754210591441457
0,0668967665553154
0,0701082309291102
0,0672819326342721
0,0700983652463139
0,0750240202909875
0,0785394139164595
0,0601849990685769
0,0751162845377012
0,0610961523796366
0,0718519877071931
0,0604297828312132
0,0770235826174889
0,0666966610255245
0,0778948902955448
0,0621078934108539
0,0839349034738945
0,0903368639341038
0,0695810538491655
0,0710029900345766
0,109066697290676
0,0666588266001492
0,0878947278123426
0,0624484416351841
0,0855494798212027
0,0717454872571446
0,0874370794126897
0,0744533012962068
0,0881875266069305
0,0794590418854815
0,094762823248966
0,0771347135800385
0,0903736741469891
0,0711833524606375
0,14511249186161
0,0885674705473943
0,0935784071761035
0,0840892489821412
0,0952530908071178
0,112134405143886
0,0996797557529905
0,111462656758391
0,0954822379140832
0,093307532756305
0,10934948280953
0,0950107056848319
0,105851293107478
0,100331774983228
0,111714729777458
0,101923457112025
0,116544322087185
0,105768349506637
0,114652703157433
0,100395631385023
0,143662616813155
0,120045023644247
0,121476026949576
0,115032950071236
0,139456415592587
0,124276195607168
0,161094064711058
0,126633746116756
0,173695075160605
0,122301889769104
0,17114024101095
0,128057153475739
0,14984611228834
0,135523527910724
0,154622819053556
0,145222257790966
0,160911500826391
0,144141682707699
0,161720557633194
0,150074156052658
0,173272386604985
0,149532533807512
0,180681153116485
0,15930847418434
0,181251583469902
0,180441113917527
0,182733616053774
0,174956133347564
0,20179861864375
0,190374341626468
0,219500687599649
0,193604266101813
0,185823290596224
0,196246226028537
0,195212994658531
0,208701736420824
0,21192383113317
0,206561418246493
0,218158593725856
0,20419109542853
0,242949196915645
0,22350176907038
0,244973442849586
0,218668069938986
0,245220485476402
0,242781814017465
0,239021144654903
0,251004406246882
0,253601419811709
0,240192652960974
0,270583394386959
0,272742924894856
0,267614606111576
0,261479889009919
0,271396130853387
0,254722294983989
0,277854708945768
0,261320411704312
0,28007116418131
0,285537519873409
0,302079656099878
0,284149462653278
0,302771419479858
0,283991621967668
0,316847087708919
0,296451054171159
0,328202128679405
0,294305191529981
0,328221846271258
0,310559860018821
0,334026549708922
0,329201504073152
0,349842612697498
0,336860378326567
0,328888780895759
0,324633130021098
0,347171748510793
0,35393337609919
0,36378954292031
0,353131970374881
0,375311387257319
0,356039204065124
0,377018745479162
0,366719798645257
0,38930788376467
0,367969003521302
0,396661259179957
0,397645397075252
0,413075214335998
0,397734901533755
0,411373620772626
0,402061549715355
0,4220352326504
0,417955930100936
0,443651079776171
0,440093941179237
0,486054358081781
0,437641380950614
0,444369333243233
0,439068689058964
0,465671425006817
0,427587177305709
0,45201952227874
0,465526280792011
0,496580091172971
0,463441551202044
0,485688038488978
0,475552147232791
0,505274194659629
0,483688913317982
0,502050790812196
0,477001650359687
0,517449431400399
0,500302790995402
0,552737772170994
0,519942236598888
0,543990695701473
0,511086140948412
0,549446714462203
0,504264983406604
0,555849740113608
0,526626913784304
0,582985072386047
0,547290161919667
0,596051630207318
0,563950220556692
0,603487165782824
0,580281959510529
0,608243881034725
0,581344036920702
0,63442877184888
0,601302022917511
0,620279389999752
0,579368524529279
0,608771156512026
0,609046451854591
0,64514017272971
0,607541246035083
0,663900937909094
0,63723959457943
0,639204476813364
0,624782447859366
0,663431441219348
0,678692143732436
0,709811118847764
0,637245374721314
0,696864261924775
0,693383703090677
0,722334625063567
0,68082363062292
0,706140500889205
0,685044996629038
0,708559077886177
0,677431036471387
0,75222546392178
0,743311282805261
0,748458685892835
0,720957235409844
0,810065378399936
0,748646446068534
0,750305471076327
0,741753837473666
0,780991928371319
0,726052820891999
0,744064405593965
0,754896536730062
0,821034006247319
0,781504672413792
0,767208624079558
0,76100914121371
0,819800094151285
0,795431025267868
0,846437175094549
0,767045643135591
0,816416893823652
0,795849381014151
0,831478451882391
0,808714053596352
0,872236770146024
0,831958877928708
0,848750293354744
0,827102431708325
0,921864091279748
0,868899318647925
0,853968950585145
0,918251312499341
0,92460436503931
0,867840566111607
0,893254220690539
0,873923781141495
0,94136386318899
0,918338286150266
0,966763982966327
0,921064824653756
0,902029414433938
0,913173862750055
0,924203355798427
0,946873784950626
0,961752295311185
0,909622727307581
0,939085102064944
0,940502137001883
1,00272951968232
0,92382169430476
0,998829892129594
0,945608488864027
1,02634427651916
0,984289723400884
1,0011147305267
0,940120967856663
1,03379375326051
1,02395077486944
1,05602158098691
1,05226112746388
1,10745293702964
0,997010974740725
1,03814157572806
1,03362744950041
1,01804165001218
1,05297793218431
1,06272987763997
1,0417221641347
1,13319436145876
1,03819558913567
1,08487797255199
1,04694317487041
1,0901548747222
1,05889219805583
1,11204927884204
1,07053944171139
1,12421862367471
1,08609900952411
1,12573252428669
1,04715638949923
1,09776831910168
1,10135035070878
1,12810544736933
1,07922655481408
1,16946549963779
1,1726294612772
1,16612259875646
1,18357814053162
1,1875295090275
1,15993990009879
1,21655550336977
1,21383175283524
1,1894802084357
1,18456826736729
1,24057055861739
1,21941143261415
1,34058006368783
1,26897933367294
1,25816603480054
1,22057890352615
1,28959519703715
1,203675928114
1,24747303010453
1,14350095350636
1,16749265029891
1,18760887880487
1,26269655074658
1,24722384503732
1,26576855662218
1,20456179000251
1,22384920479873
1,16313077960781
1,21246814122767
1,2506088896141
1,36665870021366
1,21572995143528
1,29194359693413
1,27555211510352
1,18807981933378
1,2330882731135
1,37212378443176
1,24266237406202
1,38548723367133
1,39100091160892
1,28226638826422
1,25801359996499
1,32629858286502
1,28924462574045
1,32785896838667
1,28477242918817
1,46912089771735
1,38908041301607
1,33204358524666
1,3630354001559
1,44004449412833
1,40418350649983
1,38926529105847
1,32481948487375
1,35688691859101
1,31461814578089
1,37573011859596
1,33342856087546
1,41381143278634
1,34605013710582
1,32827904929261
1,22857439520907
1,3264647207298
1,3673087985054
1,4012095786231
1,3694077551995
1,46448364178497
1,39911643247209
1,37961794491206
1,3110273635639
1,43298323057838
1,37212040261333
1,38415232237173
1,38165451182804
1,51643943156827
1,38921374988704
1,43674472516719
1,46803650434526
1,43159211644433
1,4555590049541
1,45200117156989
1,43694163572326
1,43855303176319
1,44450967366068
1,55408310996787
1,40365858503607
1,42522950093874
1,39172502540565
1,46508080227748
1,38130298407717
1,41468053046224
1,49797837004936
1,46687118228673
1,45265030249523
1,5473302060627
1,38099522531258
1,5074216679193
1,51220205439748
1,45972357609923
1,40943064024265
1,52622487290625
1,41870238899053
1,35772638038797
1,3732854279535
1,52712197182539
1,5044019875036
1,41976320984941
1,42363332469088
1,48542187329936
1,54409620106017
1,46490355993066
1,39251623119667
1,49168755795569
1,48631691112362
1,47854279646803
1,42628961170331
1,48279672135135
1,46946284205519
1,42301779529181
1,4965245220474
1,58079654821413
1,43723726600505
1,44496252964432
1,41883835190989
1,55044764822657
1,45475265830795
1,4657189059103
1,51243891781565
1,48908250925216
1,54326657830556
1,5605873936884
1,44914623757285
1,40547558013645
1,3881996253212
1,49117970628955
1,56671587750359
1,49687476046208
1,42605545691593
1,57897397525041
1,56020238992817
1,48165398892394
1,47935012604762
1,52428381928811
1,53896059478122
1,66426187784917
1,51352951968096
1,48491437166548
1,48880588561024
1,52134682598307
1,52987919516027
1,52269525302617
1,50588198853657
1,53968743558571
1,46697056062172
1,43914553301663
1,41662716200694
1,59718141705533
1,52484622062373
1,49107002624258
1,46007964865143
1,47887802210767
1,45554043015231
1,47692941958853
1,48770740445587
1,59672492128817
1,52573735317445
1,4294318155864
1,54136342525104
1,60867229239569
1,43197933489869
1,5296750970915
1,54093681964201
1,46719680324082
1,50343905279831
1,40084544695224
1,38745949250119
1,50749087208942
1,61708992164637
1,50004373195692
1,41924694474762
1,45033335434827
1,47020190736732
1,52560354096054
1,43727106268949
1,42339471448149
1,43068804996102
1,54805391504202
1,52899686275694
1,43683775621566
1,41101729738021
1,41945375083737
1,55512423988106
1,5706515187326
1,41072147834101
1,40077521904333
1,41623480642022
1,47546332324775
1,37595768652469
1,46729899394285
1,48337835658649
1,45060116092489
1,39025370138735
1,36295850407025
1,47864797512908
1,54040671143315
1,56698237302264
1,55704311372462
1,44214013707723
1,39315726687568
1,3851591960416
1,41289616927504
1,37778548813423
1,39569951542789
1,37203750408408
1,30417197309878
1,36762823558616
1,42082655326563
1,33157233828818
1,37147418194491
1,40463729972493
1,39245651358521
1,39621374861122
1,37136695754478
1,36061504323692
1,37122803713287
1,33895758405105
1,37008706077822
1,38729388918133
1,37605248199031
1,36207438516015
1,35900565133908
1,32542425573212
1,3727291522589
1,41603884999547
1,40432566264958
1,32156044572369
1,30597770136097
1,32890884243187
1,28763739168633
1,34738226627195
1,3508659358028
1,34625318240462
1,40363243114436
1,35201678006249
1,33426255755416
1,26281774247207
1,27775858831338
1,30365648011224
1,27774160044203
1,31286518256741
1,25894796556876
1,23737065049343
1,26109427469589
1,24964475225658
1,28126089319142
1,25639711933731
1,25365458402488
1,27249556093633
1,27493543676817
1,23690182357646
1,24395009538547
1,27054269034728
1,2289742004081
1,18951034596756
1,19698953565818
1,19585086947948
1,21532804721036
1,23759918477871
1,18520751757211
1,15483454868647
1,2107997656569
1,19280862669792
1,18553829996576
1,16343564626492
1,13560935585084
1,18895240881498
1,18777216153482
1,17979239759377
1,19560513218928
1,14904377908834
1,13116032240631
1,17635567625725
1,14360649964038
1,12738980886055
1,12787321738902
1,13864703970313
1,18776206203227
1,16418815274688
1,10943783753128
1,11111618990338
1,07178341657003
1,06213954832978
1,11079053727699
1,07850992493626
1,05596395618056
1,04299411896473
1,0408809933338
1,03420053380029
1,05339778862114
1,06496254472961
1,05999615062085
1,03784474024151
1,04187544971619
1,0321233383266
1,01516980873881
1,00150401000268
1,01020408842966
0,994281872764223
1,0095575229623
1,00049665159701
0,99839649668309
0,996532365459969
0,966720548648561
0,965151586991557
0,968188655167736
0,967067538009156
0,966280023463824
0,973049489158826
0,974890248614526
0,944302353076004
0,928083990873752
0,950129740198
0,931800186834766
0,917737704513701
0,932154996947262
0,919248878862105
0,907435875848893
0,89684612028969
0,921203039627274
0,913852349211554
0,888043140887369
0,907799343698646
0,891099603357333
0,877345042365477
0,893123070180221
0,873047478836692
0,879190863431773
0,862647704797468
0,850357547526714
0,868527750857918
0,860636947559625
0,822462367176013
0,827382717635392
0,859620309416204
0,844967156721956
0,841934307762654
0,823966189179577
0,816650006401419
0,810897122716878
0,800318553849766
0,802891724737077
0,793456607141147
0,797407758862042
0,793973000252904
0,793565318458106
0,784778071949119
0,78920823334372
0,78403504480841
0,785286752769546
0,765756660470624
0,746422698472642
0,751581638577529
0,757349185908631
0,769896847012914
0,776754785443914
0,740990916032809
0,728848303211901
0,742930162421407
0,73836457597869
0,73623378826804
0,726478220079727
0,721314930076053
0,725615675025703
0,722166384567353
0,710437390343422
0,703904315405663
0,701398493616185
0,675355668378007
0,690762848928695
0,705718528483903
0,692227638295212
0,682495579786603
0,679570103186003
0,681194977566675
0,684584837656335
0,678812172896932
0,665657312920832
0,670506668594373
0,660195009285407
0,644463241913904
0,63963968465307
0,649770196271085
0,655947919012451
0,638003373175577
0,644155774437101
0,646731091114158
0,635873049559474
0,63143803929493
0,624569237649463
0,621743571375953
0,627468177761673
0,617913832986864
0,605676693159189
0,616806365278827
0,617459819994044
0,605112766535072
0,600082643222499
0,590431832458489
0,581550755219388
0,589607448916699
0,590992632894309
0,587297107008446
0,585776287834192
0,578827348936853
0,578886854274447
0,576493227883032
0,569019481155004
0,562347435487131
0,557014673634748
0,555486041225217
0,55723726734844
0,547621056094654
0,550201369683388
0,553261540280949
0,541214874006943
0,547718970053012
0,536133535008505
0,538722695456195
0,533647174603015
0,522879665552181
0,519766561884434
0,524669910095053
0,529426576816519
0,515586702952789
0,516728961787933
0,522573846305043
0,522995476397299
0,511064515525851
0,503985710787428
0,505108080706033
0,498819521031592
0,491899170113599
0,497918229939549
0,501236123804068
0,492163257449797
0,481014753708776
0,487977871876401
0,482232936618381
0,480259884801288
0,481451015720013
0,472692749928639
0,472145167476162
0,473624863575397
0,476339173723443
0,478971638902392
0,478197516255748
0,474313034123165
0,460646998740028
0,466117471132411
0,462927974366578
0,464665742062347
0,462174457964765
0,460876567747716
0,462700964169976
0,458813387122759
0,458406245152862
0,457128646892684
0,447426897776424
0,448414950149304
0,455663695862409
0,45823993487308
0,454787014659268
0,448347424899481
0,452074835326211
0,448574987246074
0,454372501312916
0,456131826629849
0,457124997761589
0,456551250907899
0,45090930686165
0,45682812811261
0,453813792154786
0,454655947721171
0,455595211294539
0,46239982819589
0,463060075383009
0,463834650855321
0,459171943357235
0,460560326295204
0,467548223645638
0,463492926900017
0,473174030454807
0,468492853557283
0,466502005849055
0,475788580040589
0,483636388563739
0,475756331246535
0,477288852942275
0,476654267372852
0,476294805626681
0,474110637228665
0,480348102594239
0,48961973507409
0,483261094301381
0,483654153082247
0,498502452251459
0,487536435016269
0,497093794446737
0,503875669938329
0,499836643332652
0,50435958192417
0,508395865751241
0,516008806621384
0,519271804011483
0,517328703232637
0,520038406946816
0,522561301392077
0,527105530282497
0,533215961883154
0,539130709678309
0,528209687487635
0,539942938725238
0,537858838133889
0,544202764327399
0,554836619267346
0,556307957159469
0,572687013498957
0,566118155624287
0,576143781059888
0,588739354643956
0,586616887611781
0,5898056144942
0,591528298193962
0,593376902933685
0,598160457442721
0,597643769314211
0,602389290073982
0,610663987252275
0,616344267234617
0,631090353145047
0,614687686205559
0,618296005343526
0,620945134202221
0,620193456977561
0,61450165726622
0,613964102562151
0,622144615704995
0,619845650373316
0,617593599628559
0,629805053412322
0,617758689940095
0,623336352708061
0,613418753169426
0,617784132919259
0,608199575255219
0,612098960911935
0,6114210458178
0,610062381061816
0,604063589863883
0,611810367858679
0,613313692407369
0,601600559967544
0,601660542720326
0,597657487947338
0,591205747913062
0,599771738651584
0,597334492776869
0,591822067900466
0,591599415171359
0,593374143289406
0,590782395843234
0,60010998295153
0,587802574111873
0,585299032802807
0,596303621775978
0,591348778675732
0,58172502380266
0,599445935677122
0,586360471300662
0,59243642450679
0,579443018024745
0,596223554773812
0,591241853393347
0,581426341872744
0,588180317193084
0,592092357221902
0,585076066405228
0,572205095016034
0,574888631366885
0,57400052239836
0,567372762273146
0,577493047518574
0,582313485032341
0,576831929910028
0,571684627592542
0,577057058865565
0,563970122169797
0,571438143059329
0,562658600790815
0,554898441750133
0,556992820587383
0,551308390057785
0,553633102175141
0,554637255413383
0,539230375202689
0,542685538636616
0,542701633720195
0,532721516266337
0,53240585801614
0,545213408746753
0,528644188963992
0,524688602258605
0,508286303589646
0,517001839234249
0,521902747173945
0,502122008395852
0,493495189804898
0,498415943270739
0,493406896854532
0,499182602188084
0,493181357517475
0,488528831412652
0,485425222039733
0,480520803710386
0,474987467880938
0,477227330146753
0,472458188494856
0,47222636164456
0,469420694465731
0,460519135300434
0,458984323380307
0,456626475856058
0,45243600357941
0,450065268731217
0,450164303102937
0,445346872234433
0,446994779956168
0,438962124199035
0,437376402854159
0,440483161725069
0,433629524529432
0,432228528132451
0,423048366494393
0,428041077090343
0,427507931004328
0,419001974624631
0,420980422201165
0,417431935208118
0,415169599544209
0,414598551950946
0,409303846667803
0,407789085739691
0,406576991455584
0,410078703401305
0,398322484921024
0,403237323013632
0,397979785255872
0,3973612363019
0,39732880810011
0,39247692265079
0,389951517307095
0,38873479580305
0,394116260302278
0,385097176444307
0,383265233518152
0,385056217159666
0,38539356401832
0,378341950449471
0,384543652938915
0,384414566856867
0,376549628368516
0,370666584270542
0,372850537650246
0,377752517690745
0,375601529091241
0,371032216930789
0,368498482837233
0,368316839192733
0,36490090694974
0,362301281945352
0,36620019331513
0,36329444010519
0,365221417480584
0,363747957218798
0,359203017247311
0,362754951706435
0,352618705587494
0,356029989021991
0,352477179748645
0,351863832710809
0,350962287631266
0,351046056012864
0,351579206613063
0,346777383329352
0,344578097190545
0,348515629829618
0,343949470616889
0,348293693934704
0,346345944764814
0,344573313742317
0,34113293867781
0,34138309750953
0,339333302454337
0,345387194275344
0,342864867655947
0,342552174154624
0,338653823438981
0,343591471196849
0,335400420465037
0,337864640232217
0,337658713592746
0,329013176646405
0,332227143628885
0,3355584278812
0,334188838391481
0,331438917442092
0,329033860767988
0,330416614083832
0,325665708628716
0,329340587638731
0,327534179386313
0,329237484819484
0,331085997109753
0,325957516168863
0,322346068507697
0,326988846964736
0,322881924790282
0,323755889786406
0,322677519274272
0,323815576741407
0,321258835105887
0,32444837594488
0,32071571879587
0,319501692868991
0,315845122804246
0,318763980061021
0,317302991571665
0,321280476138899
0,317293128363801
0,314779636398747
0,313634523071013
0,315202343093309
0,314952628032839
0,313722833246625
0,317004316555603
0,313333850898955
0,308311920044562
0,310149270515795
0,311438031996918
0,317070483905324
0,309985079320377
0,310897011365512
0,308267464461217
0,308658332096375
0,307778878593525
0,306628038793472
0,303243559998346
0,308610504772856
0,306264127551542
0,308166906314145
0,308647172715653
0,307098548371575
0,30393103606201
0,306778480357106
0,30423348869782
0,304794701167404
0,303097978571318
0,302994350969358
0,300818384624062
0,302993733007724
0,301922054084403
0,301368805570824
0,302723076137569
0,303660934545738
0,297486544267884
0,303296009619991
0,292003112100623
0,297525935134899
0,291907104629527
0,297586903296068
0,298039493772416
0,298608791183759
0,29585897456351
0,289264054326701
0,288053586317893
0,293212713744719
0,288540080201487
0,289174401928612
0,293416219121216
0,291383932042883
0,291581025354135
0,292874716080281
0,286017007664247
0,289418453452698
0,284817624880739
0,287811291654877
0,28500007558005
0,280688191595594
0,278764050767168
0,279093757757937
0,282205738332649
0,283986542993776
0,283935410056104
0,280846707093984
0,28284529955197
0,279733423320834
0,278737209821264
0,27804987517074
0,279533301359548
0,278890629262797
0,275304965149819
0,276993204984052
0,275252926633075
0,279893553720624
0,26947287221726
0,270968243398682
0,271378534288175
0,273334741225008
0,267010138940791
0,269783757264147
0,266940497047747
0,27474782723637
0,264775113185676
0,266133695597072
0,268318218334701
0,263373988092268
0,267026330481622
0,265322863000062
0,264129756671712
0,263481511839874
0,264896968043543
0,263000576991593
0,258390948681748
0,261780050061545
0,256717293912148
0,258404362715956
0,25997192964647
0,26002909471004
0,256951581793152
0,25702814100911
0,249350024131635
0,250538685110787
0,248255382041697
0,251686990315883
0,248359685559018
0,247516108082403
0,244482139768294
0,24894945971957
0,245389516022702
0,247849635418056
0,24746117267341
0,247562823049361
0,244025452123726
0,244562983420018
0,242302192432785
0,235988657552026
0,238303131544108
0,239269548031732
0,240208194617795
0,236283033697969
0,233778852401712
0,235899859545829
0,239253298756722
0,237189088067304
0,235247959564738
0,236972105879773
0,234615380785881
0,235272431719761
0,232608418481927
0,22644961155492
0,227901893280061
0,230920937602513
0,226588390750595
0,228415927415526
0,224798315325467
0,227550813118634
0,225268456566923
0,224648911857579
0,224635504439666
0,226790665058384
0,224730563612152
0,222984088111085
0,220604794220742
0,222455829596936
0,220088160531898
0,222891937694341
0,219519943472063
0,222110490870018
0,218995541348346
0,217902142707771
0,216836330850938
0,217868901840919
0,218234538179399
0,215405472690724
0,213806933114805
0,2165298270903
0,217206862840521
0,21241511365611
0,21245115557704
0,21435539149617
0,210466745322334
0,214485018330101
0,210733892922199
0,211938883648896
0,211469555021611
0,209771869727049
0,209486085830083
0,209536969606549
0,206683963580166
0,208872934064815
0,205946345472776
0,207636441718206
0,208282381159117
0,209030557808765
0,20399653396132
0,204873672388111
0,200868718212307
0,205849792974033
0,202738676107904
0,208723656942109
0,202172770931839
0,201878922324004
0,200750277376365
0,204610801254564
0,203553693173428
0,204372543308867
0,20108089782678
0,201848858502931
0,196458654052652
0,204228832453771
0,197316266992551
0,20074111922227
0,196355884656598
0,203182567133768
0,19727695595044
0,196487066494075
0,200016502603383
0,200393683422963
0,194961372445184
0,195592455586672
0,199203753330906
0,197850518985271
0,197870699523923
0,198898732437521
0,194932887593282
0,194698353832819
0,194122992242517
0,194647888931494
0,193067025015777
0,194881431328561
0,196910869076077
0,193325653437263
0,192085425279589
0,194221854785672
0,186599922791566
0,195431117674596
0,190305116846508
0,190438784661013
0,188612056877977
0,190144380836554
0,188558694160641
0,187688698139006
0,189705548325054
0,187671278154921
0,186952299828574
0,189492092715333
0,186380199329849
0,185289489752415
0,185918855187635
0,184002559102246
0,183477056104005
0,189966733347693
0,181964156109576
0,185295084419049
0,18597061781764
0,18518732053347
0,183614096750183
0,187351340989653
0,181854191144277
0,182446392241233
0,180995315293933
0,18015970714046
0,180390707482209
0,180861355709404
0,180852698696427
0,180891873470778
0,180068512813354
0,185125423375739
0,178664745011436
0,181024028820439
0,179817210527706
0,1772891323173
0,173266992008906
0,176938237789291
0,175084841812641
0,177824510596549
0,175089022108754
0,176392995350921
0,171789413919069
0,175018247640827
0,173343107844236
0,175108610256947
0,174740020680968
0,175893692502
0,172208843289467
0,173278001471376
0,171804524324853
0,177128013847576
0,17554859529966
0,174747444823352
0,173163625469959
0,173244364867761
0,168330964089193
0,170346968755639
0,16995392248452
0,171036639512318
0,168603513539473
0,168260224280715
0,169186886959635
0,167867832591037
0,1671242951815
0,166315967307597
0,168061386447295
0,16833850169527
0,163656013951489
0,165289633089987
0,163864255745692
0,165215308844342
0,161209034226961
0,164056037024216
0,162639845346479
0,164130462364694
0,160084065346282
0,157505635643973
0,159793581868829
0,161882203234541
0,155898390497459
0,162781054000597
0,157213507876403
0,158503495067028
0,155808483425729
0,157630672082
0,155136321826988
0,157447443401297
0,154971761097535
0,151704083393037
0,154762682598026
0,157525853624964
0,152020538269538
0,151594277680614
0,149753680452025
0,14894943159443
0,150634273394687
0,150823982705308
0,151087929445236
0,153084859021987
0,149419038391129
0,150612942459362
0,147894351061161
0,145458397622279
0,1450016658595
0,146725538327043
0,144748087669282
0,146325002703563
0,144905258385325
0,14675237348588
0,142057671242262
0,146193373617538
0,140372115069553
0,142450095713532
0,144356017480402
0,144092342628923
0,142465983184359
0,140856086342502
0,13996955140584
0,140854607231013
0,137822197686022
0,13826501053614
0,133231220539534
0,138350025752319
0,136734045436279
0,137567907741786
0,136025488757173
0,135689848344495
0,134639959051207
0,136547754071264
0,134080800024457
0,133850233431888
0,131312050664164
0,132015887590726
0,132601724266035
0,1344887801376
0,130993041449772
0,128619550540258
0,131341510204243
0,130021497719986
0,125485226882162
0,129328805047552
0,126649326077951
0,130133537173102
0,128955452149094
0,130798044951252
0,127991631444738
0,12755667393156
0,123040406465156
0,126341701894758
0,124571722015546
0,125275224019173
0,125603537478677
0,125326160544091
0,123733876591124
0,124083940140372
0,12213719908118
0,126351332771592
0,122986429360679
0,122352215508392
0,124618907112027
0,122882675190039
0,119570324082017
0,122166652161465
0,117791575237609
0,123746047194146
0,119882708363378
0,122282334327743
0,118084846181396
0,121055113115346
0,116946062432527
0,119780342989677
0,120707460937613
0,117088063792399
0,118925478549938
0,12023166488411
0,116792115320583
0,118578792560515
0,116647947593219
0,119576065773442
0,119521192230955
0,116511329274787
0,111323869815074
0,114258608172021
0,114822134603524
0,118873470979752
0,119179167941689
0,122418887419194
0,116368885408808
0,117969364607933
0,109097575369733
0,112907441920642
0,116234239663591
0,115512309001154
0,11136342882592
0,112483145779642
0,115172949145731
0,112073088914488
0,115777864510938
0,115870084652734
0,107802711607851
0,117894022092833
0,110212656184422
0,119866353385009
0,110459443259247
0,111086891111247
0,112804716045947
0,107554902638664
0,114342443609039
0,113693919053115
0,104984964175832
0,102892690932471
0,108739334328369
0,106874384412777
0,105480069499822
0,112164528211279
0,102956172264538
0,110881069846706
0,103970453286755
0,109222036602424
0,0992995301927543
0,109381762711942
0,102178196012747
0,12091550253173
0,106079013846977
0,119877543765118
0,0992334419453359
0,120712375071998
0,0844632815930519
0,119575017097629
0,0947739657295438
0,135913869536966
0,088687855834023
0,1292907074774
0,079678711161864
0,133793341601058
0,0834466138994897
0,141312117443245
0,0737023007325944
0,138538440238273
0,0811978674824312
0,138038916801203
0,0789375981110698
0,132715650121455
0,0896680842026247
0,119213461642641
0,0948791998228341
0,112380027506533
0,107644831653647
0,106728090296973
0,113278296414802
0,100263462361443
0,110977716529626
0,0991369279467038
0,111824912696934
0,104192262711758
0,105112488472069
0,106424077429904
0,101326067762904
0,108540167994972
0,0993318770483181
0,108298703592836
0,0992706069598822
0,103622395981328
0,102183986206564
0,10286800568283
0,103900410655202
0,105609553095314
0,10345123256105
0,105542300285632
0,10166595423035
0,104607275624251
0,102926296742179
0,105680783353389
0,0981371936437831
0,104917781979305
0,10331378509802
0,104420089935401
0,100983688850264
0,106033343339569
0,100958334727699
0,106151644098707
0,100979332641566
0,103903274336451
0,104188065518759
0,107697713603542
0,104282569701193
0,104566289137071
0,103653197556984
0,104270163572797
0,102512109660374
0,106790758293695
0,102997326420256
0,106032205044649
0,103338975996163
0,107456971710569
0,106149717771488
0,106683824181797
0,102489280123912
0,106728539723174
0,105341347869605
0,105904054297614
0,103816698248595
0,107531271436363
0,103351413829784
0,105276858837383
0,103661161721198
0,104880454545628
0,105172542569578
0,107843768237431
0,103796431493658
0,107480003195959
0,104678539190655
0,104584877265814
0,105545927606365
0,107899221622264
0,106315486304267
0,107543256881673
0,106410869617816
0,106450794800768
0,105362070523491
0,104426009850629
0,105246974596707
0,106699537942473
0,105837603967188
0,105015280787281
0,105062661951778
0,106987164928229
0,107352394898485
0,108439968785988
0,10665784307593
0,108562722112916
0,106478807828162
0,105527144069119
0,106831497639094
0,110084311457406
0,105123229891734
0,106388788180715
0,107910107663217
0,109647478496045
0,106344104432624
0,108631742583424
0,107049686214248
0,10891789750603
0,108101852976189
0,110400562814215
0,109062183497461
0,112748216435517
0,107665028401327
0,113965006511965
0,108928063589338
0,11149451808206
0,108824837760163
0,106623759719727
0,106895866797398
0,112093584448583
0,110126764173239
0,112369912268577
0,109962438004176
0,11138793785459
0,111312183754861
0,113502376888334
0,111376226191821
0,112272258342125
0,112265777465931
0,113645763001187
0,111770142876195
0,111432638146062
0,113181494262778
0,114332832634547
0,110981342225214
0,112687534072195
0,112992179180276
0,113548600985986
0,113250181819034
0,11529004013063
0,115379855560292
0,116151052983074
0,111424361448917
0,111940557850678
0,114258350537287
0,113270676250705
0,112295978988397
0,116031507718501
0,113247422880979
0,116448812786147
0,113729846005561
0,116363263440413
0,114113036797956
0,114836131921396
0,115609856072998
0,118660040496026
0,117521585252975
0,117163784204645
0,117479535109563
0,116639528499821
0,11911307196621
0,120343253641717
0,117310003422658
0,117677477907426
0,116768589584491
0,118108380544836
0,116386895744209
0,11884983814077
0,117566703579681
0,118930899266648
0,119460825001964
0,119519995452195
0,118120743533395
0,124056962309658
0,121233094476848
0,120748937061914
0,121745544859619
0,121849937274241
0,119002700550882
0,121255259279682
0,120543220871383
0,124512847311963
0,122102591226708
0,124028755504574
0,119340267227664
0,124109524920468
0,122224189017823
0,122981289700042
0,120556308573581
0,123085408956764
0,120113612757424
0,125494203130087
0,120613108956698
0,123557490886248
0,121914033895692
0,12319598246487
0,120851339668018
0,120550443476005
0,119350211506628
0,120204945724791
0,120571879736032
0,120122531212558
0,121936525290545
0,121557406930075
0,119918829004
0,124194592986295
0,122186905827705
0,12154196537852
0,119485804837954
0,121389420107853
0,11721295671324
0,121278057201936
0,116952946553122
0,117717727223045
0,119947496329317
0,120027214112687
0,118542988030102
0,119269620455896
0,118454082353408
0,118660756446632
0,118194603398785
0,116294861788168
0,117740232483166
0,117809165262476
0,118735790388366
0,11939169279772
0,114696656318308
0,11839935230227
0,113445418673997
0,119515255739153
0,116258935208315
0,119577175650482
0,117991557297584
0,118571106484306
0,115308511967671
0,117907350107276
0,11631320428831
0,117003699771527
0,115538283926508
0,115918677393162
0,113214156482795
0,117675617363348
0,116376867961042
0,117843793887655
0,11702624358532
0,118279567894944
0,116586241212773
0,117208816577341
0,115840847155615
0,117048176347994
0,114670919812351
0,116411388270604
0,117186507630144
0,116999849465214
0,118314833398587
0,118888085773668
0,115014443993231
0,113796800543692
0,115585354894664
0,115925646661936
0,113123973713054
0,116813636090125
0,113923201342709
0,115970858630679
0,114339503387394
0,113958837553655
0,113519403140292
0,113571513565484
0,112849878428824
0,114721817383047
0,113004346928333
0,11361479390698
0,113868695160029
0,114601376088284
0,113254390726342
0,113741757268465
0,112274172018525
0,114336259569806
0,116288503365078
0,115420231006936
0,111714945934758
0,113408236596885
0,112564592066487
0,115451693984793
0,111555046062587
0,113729946057453
0,11210690995576
0,113429514856344
0,110845383695098
0,114773131498241
0,110840556243262
0,114507124778134
0,110677323999098
0,11075552073568
0,110751002588445
0,112333454435766
0,110321593235738
0,112971647377653
0,107567368616608
0,112335213585842
0,108770983876562
0,112287082046215
0,109207595030996
0,111293809431359
0,109120557152105
0,111291468780648
0,109856084172351
0,107709240420534
0,106307626409999
0,110386788616827
0,104486090633941
0,110342442895996
0,105074206932617
0,108631411288271
0,105337705363659
0,106133624346993
0,104256259471528
0,105964884897858
0,104580178781509
0,104309729275833
0,10376516085306
0,106710566980298
0,101059807432326
0,106534546381952
0,100622154005708
0,102894566191204
0,101217675560831
0,101943810957886
0,103140882825338
0,101433180887272
0,103255496906996
0,0986791716911521
0,10084084659176
0,0998419277593626
0,10031381566202
0,0986225912624286
0,0960342536347226
0,0988828609984164
0,0966324406150653
0,0988435424315382
0,0959638808273607
0,0951001332761785
0,0971689989992511
0,0981347529280446
0,0958001554493628
0,0962628017378494
0,0927017876160417
0,0942984886671788
0,0941098739468158
0,0923902358921727
0,0929887250144045
0,0959469211941847
0,0930541450063372
0,092370133659334
0,0925067670427028
0,0911090778743916
0,0924671490170995
0,0978381747772701
0,0924888531713671
0,0950758951091431
0,0906554010877593
0,0961397034051957
0,0886112015992701
0,0920054950195887
0,0893801160014201
0,0928285019976783
0,0876054909483788
0,0931566520886844
0,0895293735869278
0,0916154492149544
0,090501671675814
0,0925256591628021
0,0910312363932138
0,0911841065322118
0,0902805796315639
0,0916520173910276
0,0897974516309506
0,0907779761948899
0,0895895322487338
0,0907400809143315
0,0887392803250294
0,0904601012302655
0,0864426363571735
0,0940111035015717
0,0878342995850447
0,0935767745936524
0,0884497109522407
0,0880369214570563
0,0846589752746864
0,0912927805906727
0,0882249725835218
0,0880920143680427
0,086882176079968
0,0876440201906954
0,0853076946276478
0,0875091078041894
0,0881924555066605
0,0893371788412355
0,0867860669015658
0,0895096121523947
0,0867385623515273
0,0888352900454581
0,085579834884738
0,0903032647650327
0,0856755341333379
0,0889630940662531
0,0835715077403226
0,0915357383614155
0,0829256665719713
0,0818008138972724
0,0966213340862979
0,0829186281957646
0,0874378538932823
0,0836623530210162
0,0883053929219149
0,0858315000117015
0,0845701475897981
0,0849889510842215
0,0871023730873452
0,0839407947161047
0,0848761633569832
0,0842884737907594
0,0868545007597364
0,0833163761070947
0,0848489080893276
0,0854059847668128
0,0842249782877221
0,0836169203782785
0,0850368743643135
0,0813282094854499
0,0831160818228972
0,0906668447832622
0,0843031295702025
0,0826322671130456
0,0885917752848393
0,0757976253548632
0,0957228873349942
0,0819712210163281
0,0858485841171844
0,0833795401893683
0,082257588538465
0,0838865879136159
0,0842177374822913
0,0835281640972146
0,0808682011831458
0,0876238735838322
0,0812632299532543
0,0885938670290165
0,081204187453378
0,0842919952792998
0,0798612026477816
0,0860740922050981
0,0810007469233403
0,0824793829215351
0,0800553356217288
0,0791223559472985
0,0803697873299113
0,0806676940429053
0,0833746842901109
0,0810866279581354
0,0796675001621712
0,082483338649573
0,0798845272141504
0,082580319278205
0,081922598896708
0,0799344354598328
0,0765671452858877
0,0959237244315253
0,0741876429755997
0,0850993785177297
0,0782496982499339
0,0834650061940092
0,0795039499207642
0,0829354650496961
0,0788686585203113
0,084817551894628
0,0757225911138579
0,0849343257038685
0,0769625526526314
0,0808788660100703
0,0782879972708804
0,081095201784855
0,0791184253280197
0,0797853341628526
0,0804015970728388
0,0803630158307593
0,0812963221951431
0,0744757403230949
0,0824855711685473
0,0907548554903628
0,0831483833520632
0,0870405572419095
0,0816180167286295
0,0817906934878351
0,0757667550439788
0,0806378791734183
0,0775594847535515
0,0870911709035647
0,0758113231882612
0,0828492969461551
0,0758854372149566
0,081225450835434
0,0747767518454358
0,0841962619151453
0,0735530625962325
0,083106786615231
0,0719117537054995
0,0862519410723637
0,0721417487861559
0,0847193892353897
0,069213607646275
0,0875347175609369
0,0718333825829579
0,090540177633229
0,0648432908863501
0,103093556208497
0,0902777508069307
0,0761511446662975
0,0851162973219331
0,075268721872898
0,0806861086210639
0,0762892231206824
0,0777918532476623
0,081990454519987
0,0783475049547179
0,0790044496353127
0,0797021401575547
0,0804883840179322
0,0804391371179133
0,0772337394009252
0,0741891491938456
0,0983598082667204
0,0789847044911215
0,0848462909060531
0,0754772374714349
0,0733939216494044
0,0948801096358077
0,0743757350250765
0,0867509747677485
0,0783875211481518
0,079393343643447
0,0790786715991064
0,0797169230891806
0,0802902725264696
0,0806370096044087
0,0827264515968706
0,0757133864697359
0,0838791731213707
0,0754919764060528
0,0867622103521694
0,0787161215278822
0,0852474338688086
0,0856876465720159
0,0800565143584858
0,0846588673434618
0,0816747133221732
0,0778586815794032
0,0797753160418781
0,0812483759499614
0,0806905237079828
0,0825687638752722
0,093155428481234
0,0768848948242065
0,0906521249241919
0,0876266230755818
0,0800866404889093
0,0846511959705855
0,0805977196132963
0,0914182584304006
0,0778717169363334
0,0812686530153495
0,108048516168747
0,072125955010783
0,109308957767812
0,0736612176543726
0,0941241751781951
0,0734213081628049
0,0949817427880205
0,069736334028677
0,10668770017352
0,0749637876282236
0,0971544163252329
0,0769803668437584
0,0976009710510022
0,0925503178843573
0,0925744217722571
0,0893900589505626
0,0878522014855113
0,0819862369409965
0,0948849595604555
0,0899831779154327
0,0781665636088884
0,106323206192362
0,102589041856574
0,10275544012247
0,0964310065553102
0,0745113072574547
0,125721490989433
0,0840817244382116
0,0986656883885994
0,0848849936493255
0,0960711351577507
0,0931444939974268
0,0866668616804929
0,112141343597934
0,0966999604274975
0,0895242692103166
0,104346364408575
0,0831412460830684
0,113421897577138
0,0957515717595926
0,102166904083286
0,093395394401188
0,108161629023074
0,0797583897805373
0,13342021150327
0,105106640395027
0,103859855597178
0,117627571233201
0,103722924904153
0,114241774529975
0,106085292497551
0,109488337719503
0,107672658581527
0,117804551612351
0,112081330103053
0,107087203745522
0,10953213613459
0,133160865109096
0,102942268446886
0,125496207047353
0,10970028745284
0,111250252631903
0,120812102685051
0,148131260082544
0,132070454695352
0,125008355535009
0,111047187676174
0,141132116491347
0,124155831707528
0,125681657260575
0,125259824472127
0,126403098682977
0,131792489625459
0,121391534832658
0,138412510903746
0,129075319813799
0,136386982324789
0,136627019016617
0,131437858944663
0,142958255905314
0,152669863047582
0,178213719689409
0,132308412477298
0,184639913199481
0,156487263680592
0,154323206052
0,152084757137352
0,152732048027613
0,164832187838749
0,154630697002138
0,162966573378092
0,154905401295134
0,180591620490284
0,177887119782282
0,162874367655909
0,196557240298433
0,169278165125367
0,195592393006578
0,132636730030707
0,353675958421238
0,189703801855096
0,213953508855952
0,201726702986339
0,198492997503742
0,279129975986332
0,222214906694136
0,228955198208596
0,233039527042451
0,236888268744702
0,240354788474056
0,253858462471614
0,254710480514631
0,269140140554849
0,278935506943688
0,267736808817703
0,285081265041036
0,330270793836181
0,319918577572117
0,329110186857141
0,304561099302321
0,332714533930987
0,345350793966392
0,336985492325597
0,349671723005632
0,351321345781208
0,339805857103894
0,426799256894399
0,367250278331891
0,398854361600471
0,371232215259497
0,444899250552601
0,379316808676389
0,470868261966865
0,44647598621776
0,439297402285867
0,439332387910034
0,438783775281869
0,464946857440434
0,441885032657224
0,501266612075587
0,487669800169726
0,482937312268728
0,493697570677199
0,492020556798417
0,503262429178445
0,496060290171406
0,518466940663224
0,498314166665942
0,557911041735466
0,492042345061397
0,710949175494783
0,567374294598269
0,531980058656819
0,548388958603038
0,516812548770838
0,57691636029283
0,542837354288232
0,564418529515573
0,573218560982252
0,535189524943362
0,556594412889638
0,540562108540482
0,549636369149466
0,538194151904373
0,566585662289066
0,523654846803646
0,571745472887765
0,535193052778913
0,544855417921216
0,64485787057749
0,528014778407147
0,535279476317793
0,535478173322735
0,534188362823091
0,527989189939921
0,527122777827921
0,511479270775887
0,551343213737113
0,507270453896369
0,523001706990729
0,493935482642394
0,533912585192468
0,52428202726214
0,48810580164258
0,506084273821163
0,471982720477288
0,476510414764864
0,460874822079631
0,450439205765635
0,538565619057684
0,445447054316448
0,453563414007278
0,440216584072792
0,440488527957283
0,424850716826264
0,423552162047674
0,417450277211302
0,428925361651832
0,411568593652204
0,420515876913708
0,407723683625137
0,408757317486236
0,397415959854738
0,39855217880514
0,398060212480661
0,397847204976272
0,39745377686027
0,387080923592971
0,388125752105699
0,385684119741154
0,386667915771027
0,381100490339795
0,374901285908135
0,385490205122518
0,380256379413003
0,380040223854258
0,370144124104991
0,372648982927557
0,378736938151212
0,366496014482585
0,372387839150727
0,367282133084414
0,367104973134981
0,362796072852418
0,366271838583687
0,363226180061939
0,364588946665881
0,363598198686507
0,365054737863177
0,354335374533427
0,36673191009968
0,335031251786287
0,403212975761637
0,383450047410211
0,351839058496209
0,364370665350096
0,349044734275305
0,362359091936601
0,331726892230804
0,381886241135312
0,370949213268668
0,34383682621662
0,34791994488495
0,342850334237511
0,3536062171782
0,365031265439258
0,334192713867438
0,357038403238899
0,324822752383455
0,350619501537962
0,395495858996302
0,337684626008129
0,408481530011343
0,348837504654876
0,341063886615287
0,318523522795756
0,381580534306119
0,323819692897866
0,344839037652219
0,321085869282172
0,360813376601025
0,352582618467394
0,331069547105233
0,345235954710451
0,324153966623649
0,33400794366958
0,35289580741489
0,328654990684157
0,319557203023319
0,353779747648632
0,319193565754541
0,344907468256633
0,36221668454428
0,342310235040399
0,309457518610167
0,314507245900135
0,320833904719877
0,299820960920582
0,363121983152716
0,307603841840295
0,313360683663943
0,305237870609852
0,292453899099445
0,301900827887649
0,297584146002743
0,317325141999246
0,27845651560635
0,337170517022517
0,277803846589497
0,303523343194574
0,29449536924058
0,299982642175982
0,322254099821467
0,295024669035572
0,278709969904091
0,287674618993859
0,318242343370674
0,275460246457491
0,291236483326909
0,274319176592953
0,26414928239069
0,293279563366863
0,268801428217834
0,279647939232597
0,278544608700344
0,26190999043727
0,309885530179551
0,284168183292104
0,298353203672867
0,269610053405551
0,256351773044398
0,264760117786832
0,260808487522851
0,271369571152429
0,25485010816016
0,27742116085768
0,279823755286858
0,242075485721888
0,314371919071426
0,267515525224448
0,269283499826809
0,274582189482495
0,274083152437312
0,272642828998505
0,285878693713906
0,294347654254928
0,295491715432267
0,283010733304695
0,313924610522457
0,283035206439618
0,305638345296244
0,29374406217036
0,312560368507515
0,299789241207685
0,321231220209935
0,321666534010806
0,32938567320851
0,327910025981076
0,341577058840228
0,329306624219144
0,389989365656391
0,337500761275384
0,400651419660984
0,365877001908498
0,422254150113877
0,405202301753036
0,393558886397963
0,412072787901962
0,410094164002784
0,419842540531451
0,429986263042999
0,415942364084457
0,475681270669196
0,435443771449415
0,461990621995632
0,449393562631188
0,470955891452037
0,466677612709606
0,504498358624853
0,47853521736085
0,486906375703912
0,541639209616311
0,492789858854907
0,510296028944033
0,490768210230235
0,502218239492356
0,506051610867795
0,498802180975395
0,511505214255314
0,4906126485491
0,531174150150905
0,51204013261142
0,507409177216698
0,51428593160941
0,511653587844163
0,514024304742228
0,514392595707675
0,519912022112328
0,51973683987949
0,520511593200609
0,534667014697209
0,497904964341907
0,599680618713363
0,5509527652512
0,541308343192541
0,549756184671026
0,54944411822068
0,557762336580023
0,546711506611587
0,563354831830801
0,566612263592166
0,556789385338627
0,562163811027185
0,558229196521655
0,574843347200599
0,569360668553157
0,600966173462229
0,569497046708217
0,591416810443897
0,578437336679385
0,575388778929896
0,641756970314691
0,586808833478272
0,608785873475505
0,590328745246867
0,607174352997465
0,595485482314954
0,607825916779451
0,599716577809893
0,609204967969183
0,60227031755617
0,60780264084039
0,606580027806476
0,605769715480619
0,610043510217592
0,598536198776
0,624370257581442
0,603424215806149
0,599559257046988
0,597677244698768
0,601732375305071
0,593144501327728
0,604177987765596
0,603043035252132
0,586593685349031
0,599167801785893
0,584570385696875
0,600864927419089
0,608560755125061
0,585846852801195
0,585176685256152
0,588286593325744
0,586455086780188
0,596449792164435
0,581939726534616
0,619550105899479
0,599044226695632
0,607336689040715
0,603101736004383
0,613765322558297
0,603486835534712
0,619584171278336
0,611080511051263
0,619655240817306
0,621419628212671
0,628504062431032
0,631715440892397
0,635928215799721
0,642138458841958
0,644220056193528
0,648244752166768
0,637832154417995
0,637094506571543
0,651528969115979
0,649359209674664
0,663651958160315
0,642913882745587
0,649421619177079
0,6414594378912
0,648042416580182
0,630118943423444
0,662876238912176
0,633330460031755
0,638569691307061
0,630770005179524
0,624536796414543
0,632038868152112
0,622915657855098
0,624903137761661
0,616192608359787
0,623338054005452
0,617316744920784
0,614720709976119
0,611502924634945
0,608348112205431
0,607087386533593
0,607330235925953
0,603006747450675
0,603174586738208
0,607364770512869
0,603261435538211
0,599595522384732
0,597344424337101
0,600347347154203
0,593938625580287
0,600336556528005
0,60737513911323
0,605124516843021
0,606354501056965
0,594612303741134
0,599126348900217
0,594176568072021
0,595905365369296
0,590981530552797
0,597758917060745
0,590580313430049
0,591896904876975
0,58549432252859
0,58991008441651
0,581681164780802
0,583741243922127
0,580549262073272
0,576776786513673
0,578292848471368
0,572901459340336
0,567193967705136
0,564644625104546
0,559338321416911
0,560869642062378
0,5624906445644
0,558694722313952
0,555009046998393
0,550630737393628
0,552294918537503
0,546299458278385
0,553128288208352
0,546958418594877
0,547437617977557
0,552839861493601
0,542434657707734
0,548307407858162
0,543934447500868
0,542198443651201
0,539718463658083
0,538157458371305
0,543171203901038
0,537403576631554
0,532755339725887
0,535399912117518
0,530933614579391
0,523814822459015
0,524889402192519
0,521278549041633
0,521092931033918
0,512250913626632
0,506407215694027
0,501671190753036
0,499215504244902
0,500443173660427
0,496115538824475
0,490166927580552
0,48441914990405
0,488478859849453
0,48654967520052
0,480486903485308
0,481292379747006
0,476890990420839
0,477176370918125
0,477476602450644
0,478174366009702
0,475354034106071
0,472013650504673
0,474420181762044
0,476795964186119
0,475311675307609
0,476398151064959
0,472980016099923
0,476677671491771
0,477670345563513
0,478268996744055
0,479764001274914
0,484872073459431
0,481330089010968
0,486522000316757
0,486383572007407
0,485127537318081
0,490071302650496
0,486036614092314
0,489287431754606
0,493115126721191
0,493890079979405
0,493787193546613
0,491661013991192
0,495179117132443
0,496019297040661
0,497785461381877
0,495437173262465
0,495314558698659
0,4953057649982
0,490366396156081
0,495209918407192
0,49257221372145
0,488805263435727
0,488639631104459
0,487013714226397
0,48719666200973
0,487695606397383
0,489089963117083
0,491549380877697
0,486570280990201
0,483927180829529
0,482629481031823
0,484910058969407
0,482340662615004
0,476975965019075
0,477077237092188
0,476631673226438
0,475106208396545
0,47307277917759
0,470269866017414
0,47043841715281
0,467627997089808
0,464574603614887
0,463099335629345
0,461844083146704
0,457854220232779
0,452518550586634
0,451800674311765
0,45132726426909
0,449049066284548
0,445190812897459
0,440509752521615
0,437562554641498
0,431002703209214
0,428703665170129
0,428070655053347
0,425522585178872
0,419053592620278
0,414254912514439
0,41295464155013
0,41122582932089
0,410838158215353
0,407813981853563
0,406414495573739
0,405588942162613
0,404967984946489
0,404829716793779
0,404495689791769
0,406217170882621
0,404420794990886
0,403687619897634
0,40539830300589
0,406489681053495
0,403894598074675
0,398918496929492
0,397595825878088
0,397797998302621
0,392467513758197
0,390022365044172
0,388737002827463
0,383915254557412
0,376652452717598
0,373017705951591
0,368986787941764
0,363891218721868
0,358896837268097
0,352608046902229
0,346270326064839
0,340972596157228
0,335622513902382
0,335071996624199
0,332901382444222
0,332097073496147
0,33285981407655
0,333027041662696
0,336344500494251
0,339605919351472
0,34581547113797
0,351279076212771
0,358110988444561
0,367274926642594
0,376659728260981
0,390475156634879
0,401212750049327
0,416540432531687
0,430518826884175
0,447214242418612
0,467568022027581
0,481304685165634
0,501398512106094
0,523635349913675
0,543268918771316
0,56849836150964
0,597704566772226
0,61885110854682
0,646553725027513
0,678462353267696
0,707560296778555
0,734284738591864
0,759251889783297
0,785304986519487
0,816537690769894
0,850091633468622
0,867365691980149
0,884533154551348
0,912995551217923
0,93151291880769
0,947600952208892
0,955494231127314
0,963897090893762
0,973151633282663
0,971094088745156
0,976234584446704
0,979537417089461
0,977098628001795
0,963911529591042
0,956523184415028
0,952937053290286
0,941636092263466
0,926272943150063
0,922211497752882
0,916263978523928
0,908289126339927
0,893869428853807
0,887119392217613
0,888442217922727
0,881265177290134
0,878214077055838
0,875939737567242
0,880577802722117
0,877661069005331
0,881118590222252
0,888046485580594
0,885313200481031
0,8942656203198
0,900523594973822
0,914913099519854
0,920594876890358
0,93084742122892
0,939865229353282
0,950358071558286
0,966716261372514
0,96832013632567
0,980880858084324
0,989788393384198
0,99255857043425
1,00274680761089
1,0054840360452
1,00938697497605
1,01842449360198
1,01503947476463
1,02908243345472
1,02333739750523
1,02497874185694
1,03074257427657
1,02273486678967
1,03234969949048
1,04427339733266
1,04852164181938
1,05373551524545
1,05317201600692
1,04771486798857
1,06193381843811
1,06988683984876
1,08013026948699
1,08004164413973
1,067247453447
1,08776336988791
1,0918488169846
1,08930651827437
1,09188034615491
1,10906835710718
1,13175535981625
1,1411284966277
1,16338102089875
1,16888111965057
1,1794720156651
1,2023826159437
1,21343013445379
1,25542249213854
1,31484482896249
1,34892845613355
1,36418555185647
1,40889303251493
1,44718442989951
1,46368182969571
1,48945374952987
1,47178321160918
1,49905848335282
1,54394934408509
1,52683623919031
1,54862807042181
1,572994076681
1,55349354461072
1,53758655680025
1,5404121714028
1,53492477898317
1,52516326205948
1,47788129395912
1,50703264168295
1,50634793100434
1,48517441838816
1,49119844158969
1,45138893580633
1,48242447126027
1,49604868761999
1,5456446975003
1,51862184535331
1,49466946520903
1,53356100128088
1,53627117537173
1,56977581215066
1,62917383577835
1,60733832779647
1,62731704705322
1,64704549998274
1,67303582814854
1,67790980039051
1,67892661532064
1,71853969700142
1,74748872151365
1,75204382494659
1,72074903920244
1,74887536958944
1,7778582914244
1,82653102239707
1,8443262802943
1,90459320069673
2,09966143401276
1,99971275777059
1,98590675479687
2,09327010821863
1,99923602340068
1,96831561526077
2,17957325672297
2,18118917296467
2,22731449299808
2,17087508708545
2,10733833826408
2,16668523797417
2,14582418427577
2,5664860926808
2,5363721435751
2,37854898873943
2,3980638703265
2,20734432309468
2,23614362545373
2,23841575756121
2,33747104717636
2,4017669446713
2,20745825663927
2,15434271031599
2,31732493127351
2,3469344780758
2,48972959065905
2,38080081315454
2,48173846190203
2,23107045367601
2,12262142403457
2,21447241415854
2,35667242184221
2,27898708826304
2,20394477979152
2,15323924953439
2,18394515962845
2,36748190103517
2,41207263371051
2,07170618243896
2,08667790624076
2,04442086034325
2,06504529713402
2,0178355721745
1,91086104963449
2,06397507331548
2,04436708797076
1,88859314463406
1,93493841020412
1,89152683403023
1,93445154319256
1,86767156920279
1,87146350625506
1,85317346600065
1,82837673791105
1,73972787095396
1,70198810570031
1,70241446773764
1,68507422663383
1,63797750515604
1,58521958950698
1,58549000353442
1,53211976568278
1,45861088035801
1,43449305510378
1,38789391250876
1,3521808884317
1,30912146108567
1,23271812595224
1,18138485775419
1,14743280546113
1,07919433863743
1,0383004409201
1,00287217588579
0,968953347036076
0,922839989756195
0,892240770881143
0,852211860146936
0,813162103318372
0,78404599387858
0,763173482760175
0,750965863107312
0,72411643952938
0,707934046100579
0,692964706774936
0,683036568928158
0,674281845071278
0,660833932136032
0,650049511312929
0,647728899301807
0,639507719335633
0,630130641130865
0,62344238290271
0,61630188469348
0,619371444047968
0,618288859619783
0,611419714483849
0,621173976800633
0,631694469767262
0,627537723913339
0,625659003571468
0,631348686356212
0,642684974791986
0,650301574438185
0,650523132570878
0,650457542994645
0,664827130419909
0,681411070281431
0,683108653387368
0,681610765605536
0,678748435313797
0,682795418375097
0,67928467044569
0,679321480473829
0,698200686987387
0,693604918399336
0,696830160644111
0,699142547791655
0,693681148910561
0,704611527323906
0,702730165752592
0,697746514542453
0,697031484351689
0,684967814986633
0,690387399532837
0,693646525901811
0,698289832343321
0,697011886024311
0,690577660568871
0,687858123949641
0,682337550479132
0,666865297663079
0,669589032234159
0,672385711558495
0,663909066535615
0,658824407047704
0,649547911552218
0,645657939511461
0,647651410983223
0,644788349997373
0,640809508230645
0,638483647134033
0,640426175939486
0,643584236389083
0,643843847599529
0,641642706929448
0,636900122478574
0,638333465718697
0,650223023696914
0,659926107202221
0,667560594555286
0,671816843698656
0,687556984194807
0,691911505856703
0,698782181693879
0,69830873259058
0,704449128510091
0,709808196313098
0,701931201978642
0,691559836272841
0,680783137192735
0,674864981086516
0,681615995000729
0,673308765324022
0,656890108892312
0,65737763044463
0,649540197488635
0,632603437880344
0,627788852198931
0,63932755207045
0,632797584351801
0,621991876312884
0,630994701068133
0,626488179323259
0,625475336119397
0,632615502341807
0,648259373545965
0,643540265206276
0,651662702233002
0,642602759130063
0,644070886821018
0,650175360351272
0,65089813763667
0,653445699336049
0,650234355657953
0,663173038539976
0,667355766702523
0,66562640177124
0,673052843036061
0,676747664532255
0,675146535151746
0,660817297246181
0,676027212966759
0,670516399075052
0,677707452384858
0,677500900265671
0,683411844379845
0,674591600420361
0,68563594894334
0,692985935358142
0,680950532620382
0,686160265472438
0,691926970775827
0,682993519781641
0,690814612297112
0,682255212733287
0,680308943824151
0,67371324854328
0,675516132988342
0,681780622309015
0,676302949906194
0,667946756649107
0,692833904418437
0,676502389988709
0,667204608671453
0,663763278054911
0,690086858013284
0,663681551270612
0,654767812258439
0,646537135969678
0,637344235735287
0,640150723133221
0,662394737043998
0,645444829118731
0,614465426108515
0,629490243588506
0,638354075972138
0,647961787988222
0,635249858775125
0,640776086399161
0,638330445871625
0,632303020200241
0,634849984230461
0,632151178381175
0,644250238520793
0,623615280376032
0,62598170966997
0,615308289307897
0,623536929722444
0,645124827611894
0,631738969334613
0,643140531973215
0,650981731691665
0,648150313922736
0,631512229388217
0,641956648911955
0,671872811925147
0,649890447440138
0,65276825631032
0,674092692093994
0,672297801965102
0,688098843284123
0,680479068682672
0,664763870764466
0,696987294736508
0,678620353297974
0,68390747916688
0,694179217650944
0,710716249884024
0,729598631673682
0,725270164680122
0,695721440496455
0,747644951564098
0,765138605615299
0,801039311070908
0,781877280918738
0,789727891807053
0,811227970145963
0,834327914519641
0,79288834545721
0,880342323578233
0,912005394525027
0,875130752517726
0,866878238787015
0,864106691816692
0,888345633394192
0,895489858534844
0,872895709363678
0,918828421021822
0,938781241268141
0,906848514373665
0,861201549122384
0,912696528817915
0,913805846265119
0,91601148441867
0,882297316881873
0,955264869507093
0,965418081724997
0,97216460341457
0,934685425962626
0,932805005053905
0,906731194535924
0,896576410586662
0,972571930286214
0,998677603950527
0,97190049837134
0,98753399157909
1,04641148285325
0,987512102648807
0,96200942751776
1,04268788185102
0,949050760528281
1,00221427921234
0,934913007304341
0,892046527515224
0,941901532024283
1,01911843183971
0,902520068435938
0,990908075431933
0,935592079322466
0,869181037119869
0,867025586347616
0,958662346110929
0,89974341230631
0,901041835379233
0,938256323862591
0,89091892222708
0,852461665805324
1,00194043750098
0,961153329870667
0,928991982670961
0,893373225327668
0,965998295059745
0,930986537733089
0,892347651213983
0,922879390757914
0,983321587923678
0,922854535042835
0,950334353610485
0,968582036024788
0,881316626518315
0,888606792754203
0,997029462231143
0,907212402521018
1,00033866395336
1,02615229014734
1,00171275378156
0,887242671551872
0,913333804206941
0,945077863156842
0,965418235454026
0,975065469318535
1,04176087212402
0,955739369262176
1,07021910531148
1,1606342281568
1,16413004484717
0,928423150321826
1,12050258724653
1,24761760653467
1,03655378468231
0,990753044402219
1,32589294799869
1,59316465603327
1,28236967222443
1,04097182291811
1,22782034070669
0,935413959671186
1,03513726726344
1,4877135720966
1,25165057385849
1,10940063999492
1,12874079872323
1,23088279301874
1,43249725480701
1,20096278763445
1,22856668629699
1,02478395589842
1,15540027479081
0,981093973848716
1,31835647030252
1,17396503344133
1,14029253151707
1,16607566621602
0,980699950431865
1,09616794705003
1,21102649823878
1,06017994418581
1,18986448634813
1,32710180838509
5
0,963343487093699
1,31668198277543
1,02342223031031
1,10001348686465
1,15073144219336
1,17756498691623
1,1600637147898
1,48906422796371
1,02417397490824
1,141801384435
1,15088931592685
1,46632152528281
0,983749897198947
1,75728095350508
1,22920865200526
1,08726723942782
0,955217838850942
1,07838336961625
1,34606139248834
5
0,849375613388346
5
5
1,70749490232211
1,80349025983165
5
5
5
5
1,05131526226517
0,866192365128307
1,15584263982957
1,09217569052596
5
5
5
1,01693759937583
1,33495117393578
