3596
4000,36533379555
650,420452594757
1
2
2
0,0504210574257793
0,0287107816281037
0,0448277590601257
0,0281139316017559
0,0394413868427245
0,0364178170647821
0,0475194965884373
0,0295237441410408
0,044221517960373
0,0335132006645602
0,0593767826376273
0,0366016210680232
0,045196444102747
0,037013567913788
0,0473905235561144
0,0407499337856651
0,049925352747322
0,0297140114323649
0,0557102890829755
0,0342385085128004
0,0474270984115501
0,0351289521359019
0,0467139738057788
0,0346971295743697
0,0527928805211478
0,0337105566350134
0,0522708528821113
0,0363632444456143
0,0502435145091823
0,0352381788531293
0,0477253327797617
0,0372266484094178
0,0448086564297661
0,0360149394663532
0,0480503594894196
0,0296432627898629
0,0429116905674991
0,03024945793022
0,0462533619265161
0,0275951192321116
0,0541091852647221
0,034184429970032
0,0511993855037919
0,0360792531727977
0,0477035690843849
0,0424374157298992
0,0507656717548609
0,0362980416424887
0,0476726473322333
0,034618221130169
0,0393532270923777
0,0266386114049185
0,0503344406931193
0,0365871094130731
0,0445614545099026
0,030439673947683
0,0432262035703698
0,0369060337539017
0,0481776665777399
0,0341985087069916
0,0587842902134074
0,038851568955588
0,0470821511855283
0,0271861730380186
0,038352431340432
0,0281643895286333
0,0536806483666027
0,0268174371435385
0,0445775537218416
0,0311104412261227
0,0448294872622058
0,0405792902269058
0,049536539888237
0,0360317103223143
0,0611354029701729
0,0353751767932064
0,0494580044845147
0,0261639952670043
0,0430398200815488
0,0372265792184035
0,0611074039102458
0,0359325479879114
0,0497835932260487
0,0260155008728675
0,0548969413659398
0,0378714002558251
0,046511607794157
0,0278287628484584
0,0574545953479555
0,041923695666979
0,0424164289166132
0,0338159928339858
0,0443287099414613
0,0252351394927461
0,0477575399088575
0,0301441950166193
0,0394005473221577
0,0311866939126513
0,0388130949121753
0,0214215404123171
0,0469800973138459
0,0364307773230289
0,0584854875039547
0,0364106620113923
0,0672976495769723
0,0419804339176926
0,0464696257382939
0,0487425973905027
0,0618067045140474
0,0262450638683541
0,0485911729279683
0,0314216747114975
0,0412848340996357
0,0266643843941061
0,0488350822105363
0,0286177307794935
0,072461693955091
0,0333169739388712
0,0488110660417406
0,026804162166521
0,0383624139786211
0,0388544382741993
0,0666596410873173
0,0389672845948398
0,0510165358176393
0,0264539850115147
0,0318314350140609
0,0418650721169437
0,0724407287744636
0,0284207084965802
0,0383427311283657
0,0302022212323343
0,0340982038125954
0,0283606690504991
0,0604247446209322
0,0403926470751677
0,0429538029980482
0,0149558602768189
0,0583869926222973
0,0628894377604557
0,0469241317740106
0,0289011191646767
0,0382074291019879
0,0291366059415268
0,0698452706966734
0,0380487944266036
0,0338023647202374
0,0335875312474463
0,0510476678599977
0,0268567283769045
0,0424383954582967
0,0310915954566199
0,0519591934428228
0,0373577366010982
0,0305034293025021
0,00170411243811885
0,0730500752211542
0,0510771863715538
0,0730470260188145
0,0449899237940008
0,0449853922686191
0,031437708199024
0,0361430599564793
0,030449074826457
0,0357362900328942
0,0210506646949825
0,0478029663394455
0,041679844657493
0,0416061462358197
0,0232409656135198
0,0647671479206954
0,0364379034377336
0,0469428556729142
0,0438865043895645
0,0549440152990389
0,0171697660415496
0,0613080720914609
0,0416457753408547
0,0346142762059189
0,0308320875219349
0,0542157447913816
0,0338520252479262
0,0387981227134161
0,0341894432111056
0,0409717558737782
0,0333672203052608
0,0447878817554119
0,0291074202106007
0,0406399592090076
0,0301433846749276
0,0479295605108975
0,0517609434199531
0,0730469317849694
0,0364211003445322
0,0444234425283486
0,0192595358115166
0,0517193095950095
0,0576025962348966
0,0410067259169309
0,0241267176924703
0,0396068330542777
0,0319210329855438
0,0391029040947888
0,0289161533989332
0,0354200580062152
0,0228466003417017
0,066130433048095
0,0423152687834807
0,0341937158194086
0,0273083088385294
0,0428247973049801
0,0189792061773971
0,0586490293062756
0,0481852442515722
0,0495261127955665
0,0309802079840682
0,0438374162227883
0,0326061620630835
0,0566059617788564
0,028039485894795
0,0429996927660852
0,0249744472388471
0,0446405262309804
0,0261196745899647
0,04148617821345
0,0299536657567831
0,0408896009697968
0,0293753579408671
0,034766023029089
0,0275170871050405
0,0489613617552686
0,0360009529376536
0,0415399425855678
0,0308661311654854
0,033509789016986
0,0273700645101835
0,0549456520857469
0,0322005545010816
0,0306931211896005
0,0265899119748463
0,035517105788721
0,0366448853293131
0,0394929744208459
0,0280079356079304
0,039244846298327
0,0325224460301757
0,0605986955353058
0,0337665801194683
0,0383766379800607
0,0246808700576831
0,0518103226737195
0,0413407348499423
0,0357721486014034
0,0262825276754064
0,036775796048098
0,0270512456115207
0,0435424446263982
0,0434863910479635
0,0419592266529886
0,0281519623429568
0,0506051627184006
0,035534550881185
0,0420906824465665
0,0304336398569513
0,0498299347711216
0,0572381836168636
0,062293055539004
0,0287261239505875
0,0769117972532501
0,0419906224581066
0,0500292493450459
0,0283895132732054
0,0401406821120741
0,0729274614883657
0,0772921086870534
0,0325459724729768
0,0442041132060894
0,0536632617978094
0,0480519377065754
0,0297390133405483
0,0461500557067449
0,0349185408923704
0,0559351208247363
0,0587307467005565
0,0768926495713407
0,0414890081868662
0,0561205626760073
0,0462428277335668
0,0531820193203869
0,0350657457720172
0,0468681283706841
0,0320528414490436
0,0620268385574784
0,0426256868078758
0,0609968130590428
0,0348341697810763
0,0455568469154034
0,0485826908103336
0,0511614528796981
0,0322699189724228
0,0446799842223537
0,0387526779787544
0,0485325714986996
0,0333904468288177
0,0430483165310245
0,0337692510466388
0,0425264048646071
0,0284778902751514
0,0736894285820054
0,044446127044653
0,0524464686204516
0,0438078950400933
0,0544149562150301
0,0304430170489579
0,0519640573024582
0,0327615156296409
0,0483095713424533
0,0327016633056803
0,0481327735041744
0,0449428332653516
0,0536602324290827
0,0376230945299373
0,0479741920067872
0,0367830344344688
0,0451706558258976
0,0356122190368981
0,0476683229864672
0,042530656501892
0,0481012560982754
0,031780130518966
0,0658103781102799
0,0519617260216686
0,0468530747727388
0,0469589483923867
0,0738390004471998
0,0496669921665973
0,060547310902884
0,0412929553165019
0,0518493147326634
0,0424615157772311
0,0548464843369625
0,0388348365309559
0,0575175514457596
0,0537262312873928
0,058762323525488
0,0464083463918854
0,0571162525180911
0,068009843934291
0,104749956378565
0,0592156534015291
0,0590950223859405
0,0380121759012892
0,0771544270753019
0,0593289980160177
0,0875391922207498
0,0551808822364663
0,0699024497701064
0,0534131066995468
0,0724770695603832
0,0485117669212166
0,0676324936185319
0,0573229814838776
0,067683002249993
0,0626512283628592
0,0714647097059778
0,0655883086118441
0,0662559718959639
0,0595717377618439
0,097638952678529
0,0683891059536525
0,0830871006841253
0,0649726433390521
0,0798590127838021
0,0791259123729987
0,100842096069071
0,0926241290684897
0,110552517123367
0,0983620853002191
0,113579802789258
0,0929821653027023
0,0882106606887022
0,0802278324434304
0,0905512572108504
0,0905591268854858
0,0976175320460049
0,0824157975681507
0,10321924633809
0,0843603843084925
0,104279003122231
0,0992150841705424
0,1030544080845
0,103711520858187
0,117841342400143
0,100460336124958
0,115601531595968
0,0972536155511583
0,143858573268173
0,127417413983719
0,158151198901593
0,114365817039134
0,124805335008248
0,106339712606845
0,123936850568541
0,118486669664803
0,13143699482397
0,122308656268939
0,145122995947958
0,126404228460143
0,159388059648368
0,138259672203034
0,146120254228706
0,130127607675657
0,15386800493332
0,145233783669002
0,168988963019466
0,145307802500192
0,16397584684171
0,130924894048553
0,182373850712952
0,140771384754295
0,17903404011117
0,147544354183154
0,169296177650232
0,147365609047257
0,164287273629302
0,159685679323303
0,179881659861623
0,167227431163386
0,189188423981103
0,172300051472313
0,19187966664092
0,1622990424076
0,192714635527586
0,187103938530098
0,204515788387077
0,189175009908514
0,203345692918809
0,175222916364375
0,210271502119824
0,19276260691674
0,230097845715694
0,202343045699705
0,25596842771139
0,194146608550917
0,23416354902737
0,206570462203245
0,235102152066722
0,201483808090385
0,221499933613412
0,207450949365022
0,243270605188794
0,216359243395066
0,247630073611441
0,21840345634024
0,249386466183937
0,236176717788231
0,250869641210185
0,22662194534619
0,250552915517361
0,244652755479291
0,253625312936515
0,241084514074731
0,285604685534811
0,257671311690333
0,304865376902883
0,268217327076507
0,271980670676642
0,259502337341171
0,299849508260902
0,266087343110029
0,296424595705163
0,275610924604018
0,299985155895388
0,289430994909667
0,306902165357363
0,292449668827668
0,323804528243068
0,305036052258159
0,315318943981519
0,309458722191435
0,33564823725534
0,309916773051497
0,335063395456851
0,319004969455028
0,358707083595952
0,313799025666449
0,340151038315645
0,344495987525055
0,363511436475287
0,31653756576972
0,355624634040029
0,325536531506959
0,385202495274723
0,33797906752834
0,381913871476056
0,35256130707668
0,372280647468804
0,347234655009017
0,402149350123517
0,385101129009253
0,399998801870642
0,379559184563626
0,40331347476685
0,376548035757217
0,425521694764508
0,378563080367309
0,414095651201395
0,395809979264922
0,421896239998389
0,384007356590666
0,443165937715356
0,42340183761303
0,457886560894105
0,437152736116873
0,467640561420689
0,421958091488504
0,452067954311532
0,430594162510646
0,470167765949319
0,462832243198136
0,472936627098347
0,453598414898923
0,494357738811441
0,439873059894992
0,486485214963685
0,457977107018142
0,499179272845646
0,475579918396373
0,521696446316922
0,478305325032289
0,53107573745053
0,472014557898167
0,518242294620462
0,478892514879481
0,529474486738095
0,511634091201431
0,558389648643131
0,506464906724242
0,558502517788364
0,538460392903459
0,583086279091257
0,531040112851793
0,562751775666698
0,543712370969489
0,573219737589288
0,543451515904169
0,566126182526865
0,557669504653318
0,605201237085648
0,556418536685461
0,653892885597685
0,601951916511572
0,61534601320715
0,573854177916529
0,632195397102606
0,559396963109856
0,612391894044552
0,562571491298192
0,647734712619771
0,620441487322852
0,63685554130135
0,597899668070713
0,68750546724008
0,636751539237675
0,649603195942756
0,605243088313848
0,6679395473463
0,604603336757186
0,662216127074871
0,637770462832186
0,700138200820393
0,64413670999752
0,709111261818699
0,628217884610039
0,715236157936302
0,676553704527639
0,716158745995453
0,653440980065576
0,717307500815962
0,665182151477368
0,722562146045094
0,686030440525633
0,758594447258197
0,685265113341242
0,751852255091824
0,684037036796658
0,764696617104312
0,697486755988849
0,765727831992847
0,755794137951714
0,772935480632775
0,727572000284228
0,793648261799455
0,749571230096389
0,768276543500613
0,752579335981426
0,732845371295693
0,76651244920861
0,767420457803282
0,747400441681425
0,791947901849586
0,751609214682749
0,761655917417744
0,744708199012117
0,799439962350423
0,750549543562947
0,81805140961783
0,782877589909213
0,877022217963924
0,80008521367424
0,835594323816614
0,791689799076376
0,872418833162807
0,836698990671924
0,875642353417682
0,831534666181043
0,868144405035175
0,843765320073056
0,826641564421177
0,797385471208795
0,901878578932373
0,790822363685939
0,895276276667836
0,817827669808282
0,9054111899121
0,85421143420179
0,926752354332208
0,892390585905135
0,858995032630369
0,82683029026053
0,93623353534321
0,865255084057882
0,923449461209855
0,854748588578778
0,904521917004145
0,885450137586351
0,951009187068559
0,904546408095163
0,968045903720883
0,864162337284566
0,911297413477283
0,846211407306773
0,958887408553865
0,84499816468777
0,940658406898727
0,898842050188635
1,019081617158
0,863602731846879
0,927123455019753
0,892065085651479
1,00344326749753
0,841150137277319
0,973680309368758
0,923354275082867
1,02389762787166
0,933806216156812
1,02032628031292
0,893231829173933
1,02553542124388
0,935460198430818
1,02839096384663
0,951514950179588
0,977397357163106
0,985335521060658
0,967181240191734
0,939643525529253
1,04896577931441
0,983905412885095
0,99388411817422
0,980547581584542
1,02033798773538
0,960914628567531
1,04595225284449
0,940108357810324
1,01566249623173
0,893362644480833
1,00404676942936
0,986983509358373
1,0196387668362
0,984274448329011
1,03923428321256
0,98189682623233
1,04436505376738
0,98980408882176
1,01854363213693
1,05545272522689
1,06969415827221
1,00811105681815
1,04326959476282
0,98216178569129
1,00384233401559
0,994130908163998
1,06420018809648
0,987374678568007
1,04663408918227
0,989311498371854
1,08455481843585
1,04540559794145
1,16600049891501
1,02888218457219
1,06372142146901
1,02155026332506
1,03910996579214
0,968483707333158
1,10900342972253
1,02006735895673
1,01983837169653
1,01448719709965
1,03277104731554
0,986361758180764
1,0718384234876
1,06119844097877
1,1050789460614
0,969956388494452
1,09597807198825
0,978422093125917
1,10158265581676
1,00513908787264
1,10372758829146
1,02987493386525
1,08534029869813
1,06115691721505
1,10503231080926
1,02013551266374
1,08994846891712
1,04199291172802
1,11947212943045
1,04316418671252
1,10537347692446
1,03999611298898
1,08488687636883
1,01212224455634
1,07992849850486
1,05921766435322
1,07089792309759
1,04015980614307
1,03971252374256
1,03032038893302
1,11060212075811
0,997464296377673
1,03970233711061
0,9906488880585
1,05483119022399
1,01895469688237
1,09859214643213
1,02567898962988
1,05736767336523
1,03272846305985
1,1267120491562
1,02492059856472
1,13394908728659
1,02726782539818
1,08472804758556
1,02121617195857
1,07682394615251
1,07153617640709
1,08197784411678
1,03350421526689
1,06876418821177
1,05271676167114
1,06111499025684
1,03772176920501
1,08001648300679
1,04423190615463
1,04333885085758
0,99593541791277
1,09269413650461
1,00501926722021
1,05240531400745
1,02615672131956
1,05734189359758
1,03536705952412
1,06851169781993
0,984008163738815
1,11006725602016
1,03720243959066
1,06294495445136
1,00622236659257
1,10697467587877
1,01459228146445
1,07005546295086
1,00807550070993
1,03502921536444
0,979321982603282
1,02547778710079
1,02107688707255
1,08134001988333
1,04601038073602
1,05282494522626
0,980403096512264
1,06602523860371
0,982028953525753
1,07464569971041
1,03809146446272
1,0702495591697
1,00572553723619
1,00682571908072
1,01960332362896
1,06383962685405
1,00624810910242
1,06992645488261
0,960224256942495
1,00539935012211
0,975320332519833
1,01175766112962
0,94496581601972
1,04577354219421
0,946957918711866
1,02426716572244
0,967826921418199
1,00104675930588
0,989522976326702
1,03016297279527
0,962881188449408
1,00557341933823
0,972276718204397
0,98679017104574
0,952082272085562
1,01132673107964
0,966243480997929
0,983627569338948
0,94113350788448
1,00144536584276
0,935002556680679
1,0005627303932
0,95836964979863
0,972175355048683
0,941249540704836
0,981329797962975
0,925363986703359
0,980642579696458
0,932012307139699
0,967732111780547
0,907658236606292
1,01622278138098
0,928548655451532
0,953693413279262
0,866497784946865
0,977317490633507
0,898459566895952
0,957684069739588
0,915487892142944
0,910009855197161
0,909036815124791
0,917551864247763
0,906368550486289
0,925360136362776
0,899682482075991
0,909892722254819
0,882965499719517
0,933524902503658
0,883310814179436
0,925510569138775
0,851544965369776
0,878272892548844
0,882215580415849
0,89918821481743
0,856785176104302
0,895633547611507
0,841327127660723
0,917793174803904
0,850416613948145
0,884083419059781
0,849219026610036
0,87657461236682
0,852139491244624
0,861023606240723
0,833951077220218
0,861373776402625
0,822978320112022
0,856379459870619
0,84419116684463
0,850804056280714
0,802682120331517
0,831330536796693
0,810157338848592
0,829086508601461
0,802634697113491
0,815129092221918
0,791557253468744
0,848104354433645
0,815488754588043
0,823318083552695
0,803568183436539
0,799667970243651
0,767688505684848
0,792359512147601
0,782967743251124
0,795374865061642
0,775499076122872
0,785024153946585
0,762534880636618
0,79424409334989
0,737664127879806
0,768308328340363
0,750761329124749
0,755763425418351
0,765623764466971
0,746043866630206
0,729416395733633
0,758014323043427
0,72417413334542
0,75579956842471
0,719753417078745
0,731769771321275
0,704127508668503
0,726626574706658
0,697060814016542
0,712552767174802
0,692771714894897
0,720877405526187
0,701801282045249
0,717903759063374
0,699264440268555
0,717384149040426
0,692918832990655
0,685524878860972
0,669375156527865
0,689064306421566
0,677640878942072
0,687657583316484
0,6539365150295
0,676280357847058
0,649450188366144
0,66585208296788
0,658709983357937
0,664390550857688
0,646421683247497
0,659816040530283
0,643896484554222
0,656614782760693
0,615885735346081
0,624445228298766
0,611123944593986
0,642067887941419
0,61871933168589
0,634230002772025
0,61259007952539
0,619917099776693
0,599663064055311
0,60634936150768
0,601508788273599
0,614199565189037
0,597462977499097
0,615167043943288
0,576985052977029
0,599012212760732
0,58481915134768
0,601156168734426
0,594813438936006
0,591520306030317
0,569565797099413
0,580942856449111
0,577175092581168
0,577935091777493
0,568092675804421
0,567938142022334
0,554224360003766
0,56364717631617
0,551776671963466
0,562523975344831
0,536496746470308
0,563562033514715
0,538196513781704
0,548920481319125
0,547259107209324
0,546041649485129
0,523259553704578
0,536390705618371
0,527338702204021
0,526461335066109
0,513173990773906
0,528680318568798
0,508587508388905
0,520919468519161
0,504965500431486
0,508182722139682
0,502908905482474
0,513981751721797
0,499502287941189
0,508967787466862
0,48611974636284
0,490877584362585
0,491456184236818
0,502645630413418
0,482139464684826
0,487022535634124
0,47449323271362
0,480845725905481
0,475431106629187
0,484188066191712
0,468901979325577
0,490980259637623
0,464503094298294
0,475443177545105
0,467407893723156
0,473200260676375
0,458499929232138
0,471391389065357
0,44516228055296
0,454883987922161
0,448223394250808
0,4543273654747
0,44702931242127
0,456188495425655
0,442491762338918
0,445999178055237
0,436892243936986
0,449523798158778
0,43941226631136
0,442251891783962
0,430031188609265
0,438037967534263
0,424375710160348
0,427868464928876
0,412190481966685
0,426723011965231
0,417768481431497
0,422165195850523
0,402719114207171
0,417868599503174
0,41203810961898
0,416958336585944
0,409556851204595
0,400469689263779
0,401824037988279
0,404136093391016
0,392618751401234
0,400703619454481
0,393104858684554
0,402218492653779
0,387622714889638
0,384539249591751
0,378515410805954
0,385051877016914
0,37166388884218
0,382791335145938
0,376075088355594
0,374604572788431
0,369721169433608
0,379465087929847
0,369659669691187
0,36533132974506
0,354223705230762
0,372056400270061
0,359212772818707
0,367936079835037
0,354499580799495
0,362064961683476
0,351487822034682
0,361924979074545
0,350044288810218
0,357443440545496
0,339618943414809
0,351645995163613
0,337743297422735
0,348825978652337
0,339356908282423
0,343276288182454
0,335523626518789
0,344106722723677
0,331515829002478
0,345243100845741
0,331319767129565
0,339479292573878
0,324081044681832
0,334667557163799
0,328652436655768
0,339223122852418
0,321437244823358
0,332446755128854
0,322811310908319
0,327888614474777
0,315541876228729
0,322540679288335
0,316703656894709
0,326327656746024
0,311344501758735
0,328529763227586
0,320841925810386
0,324284010402267
0,32436203514768
0,328716236999879
0,320913845365158
0,326079526670527
0,31743934965706
0,326659780546063
0,318331514787462
0,325863674749491
0,328786871966355
0,337342800810488
0,321023105433359
0,328504549295174
0,328166190713157
0,333547326764184
0,325651083737494
0,338104061420451
0,335254232430871
0,341458020467982
0,327782178938242
0,341774156398906
0,334547116179193
0,347216760797677
0,33799092146796
0,347903325420353
0,343199932968126
0,347950405929136
0,343451222843095
0,359598033844809
0,344186158264974
0,352804635796638
0,355166233122848
0,363743812883871
0,360241102901086
0,370771543948813
0,362694002600823
0,370982117136782
0,363675446132488
0,377463118642427
0,368441524506672
0,384485158991452
0,36914057044758
0,37962410446468
0,372923259168697
0,392222219905596
0,384755765058077
0,391360613262867
0,394963667410271
0,403538555076586
0,392585295975953
0,405597672449197
0,401198136998773
0,413155189545364
0,410606638853536
0,419225741796216
0,412366064981399
0,430623581660353
0,418118300468826
0,431995359671765
0,428566095366848
0,440235962690304
0,432104433145535
0,447408279145589
0,437963197378629
0,444451892984954
0,439358799038314
0,447464453464522
0,445394889940955
0,44763532474136
0,438742871796546
0,452242056042115
0,44733143563506
0,45257453362895
0,445493029713608
0,454868775207465
0,444110267876785
0,45686490263647
0,455389737472111
0,457137598824299
0,452206786948455
0,465838855624553
0,447344122107903
0,455512534477938
0,451248864636989
0,452488221418523
0,445630711032053
0,454461149107511
0,439338667445574
0,453039730109261
0,444247055255505
0,455176331699852
0,444744038088587
0,44990936058298
0,441111387560856
0,453016730027784
0,438050814570226
0,458583786514425
0,452620431262746
0,450349305293429
0,445679077138895
0,457082260352857
0,439794246183714
0,449418988248132
0,449702716976352
0,449988591891361
0,449955870320452
0,451913692975429
0,447512593879409
0,462756432998421
0,44274746758567
0,450436126731027
0,451022117391399
0,454888362134397
0,451458721738574
0,457384193379261
0,446807371919059
0,446546238455825
0,447986629790355
0,456082870097433
0,443302531769832
0,443949788055123
0,433450424023881
0,445061506577452
0,435405200407634
0,442110130244319
0,433705700218789
0,435231429142403
0,431103548581338
0,438741114033197
0,424767465546442
0,431728328719181
0,42956511529197
0,429939228214142
0,41611626223406
0,430693261612761
0,421320553301731
0,42485677067203
0,414297973259961
0,4108229406883
0,410153446680153
0,405337351359121
0,396541886722361
0,40892235940362
0,388809703816279
0,390695554457987
0,390210542279618
0,387347969548457
0,380198452353114
0,380790389392652
0,37833330616109
0,385708447316747
0,374021970200396
0,372439980126059
0,36029579807044
0,371468935360103
0,360313786080937
0,358556369050162
0,354135104705963
0,354881606511244
0,347024315378174
0,354079773460774
0,340187712433663
0,3451614589328
0,342917011675898
0,343679453981455
0,334360758047753
0,340305083564847
0,333610711575166
0,32803689897683
0,323935505475973
0,326821696587067
0,323351037036377
0,329009070306977
0,317143312949485
0,321241132476716
0,314489858534554
0,320560044847996
0,312712784131074
0,315911027354497
0,307242842109453
0,310085954636017
0,307062068037534
0,313531006807292
0,305108197769898
0,307794584536971
0,298154272274392
0,298780078401942
0,297273964901236
0,298419692531569
0,286716418106569
0,289454034398214
0,289815351851416
0,299527990365467
0,287244579387746
0,292679263897313
0,282999634855468
0,286093713107298
0,280497015688206
0,282293806298554
0,28448687389514
0,285850547436026
0,276294821991927
0,279365705314933
0,275524092064498
0,277147120155132
0,266471223801271
0,272968467034238
0,268128388222393
0,274896869216465
0,267648841774747
0,273563087135386
0,267235028539407
0,26472852640042
0,260856341213976
0,267691422068185
0,265489842045712
0,26210842450928
0,257581717530244
0,265463602681229
0,260974596472488
0,260625117638544
0,255795531580607
0,261244928883243
0,25146439922704
0,254792432876173
0,257365963178337
0,255205684075354
0,249455949026329
0,255753487686545
0,249561008597999
0,251339229545749
0,24570849831711
0,251921083987191
0,243841260657495
0,246230345733982
0,243598113406629
0,243080434682162
0,239100813472808
0,246781398874094
0,243729505372378
0,249400858276428
0,240983689157486
0,241062275625859
0,234734612315965
0,241167068479124
0,238125277357043
0,238087865365737
0,238331788106762
0,235962951313667
0,229231494478995
0,233944359787026
0,232800660354212
0,236324614219409
0,23450049917654
0,234533274233683
0,227587052579063
0,236443507884683
0,229272314935835
0,230770272933195
0,230028309930836
0,227875782877894
0,225245671514419
0,227705404484856
0,228689731069273
0,228640434391683
0,220921485180912
0,228028886955786
0,223922612289126
0,229508638025621
0,22280859874142
0,224599392138714
0,220561135668381
0,226968946590894
0,22122542722487
0,219447136109346
0,219927596792094
0,219385384887614
0,220100660452186
0,221709906127194
0,216275223190681
0,224215448047918
0,216873372961092
0,221351629377394
0,220117753457414
0,222403846648929
0,216326685360352
0,22084831811065
0,216569474382537
0,21937466409565
0,216869186041634
0,218665423219433
0,214841359896843
0,222392919332454
0,217391007920729
0,216933280737232
0,214511435981585
0,215312998725108
0,206673301923353
0,215476964955945
0,209608935193985
0,212451191658765
0,211651825265264
0,209674990470747
0,209112396045537
0,210747493485573
0,207512505655547
0,209853887921615
0,204769653177174
0,209711823337097
0,203208951796558
0,205939062480973
0,202053135799284
0,204417929070732
0,201990633898322
0,207741196736212
0,202789880404524
0,205074581418804
0,199470064521125
0,201633007979041
0,19808751836572
0,199000678264403
0,200597155010526
0,20380352264948
0,197647560813503
0,200322986346295
0,193188884462568
0,196116531872373
0,198474879378479
0,201511771732485
0,189115793107626
0,195982362028894
0,192004582113394
0,193461668909843
0,193124004271202
0,195984904718792
0,191704027326814
0,190053424309034
0,191063531462664
0,192934976079227
0,188780959259854
0,189301501119116
0,186418808292463
0,187553979628953
0,183674860398232
0,187368570148898
0,183680911650748
0,182205153530274
0,183983345234036
0,182306806666992
0,176927043836692
0,184694919204688
0,178698114297524
0,181833626303484
0,179182438609543
0,180279763682758
0,177715927201997
0,177848980158555
0,174299807022837
0,176946590141275
0,171459609153804
0,174100254546379
0,172288784428959
0,175129510315106
0,172925709871297
0,173054877909395
0,170823317392432
0,17049135719826
0,165265651681261
0,170263512756905
0,166956277201999
0,168134027286689
0,163271895211639
0,166570176512198
0,164556402617511
0,164540680262652
0,159943682818523
0,161320617889166
0,160266508586494
0,161758324608507
0,159276577583001
0,157541871659067
0,154365377350896
0,159637644881845
0,154337339298293
0,152595333785672
0,152293057423378
0,15476307805857
0,149291737022529
0,154335169679192
0,152812809048742
0,151524563812053
0,150742552776391
0,152202575956269
0,149360442338408
0,152536949177976
0,147100637117275
0,148257136305559
0,14940507362253
0,147233915135984
0,143159538065051
0,147146785185047
0,142969158641401
0,146279245986977
0,143001068827359
0,143814691188537
0,143774019562611
0,143082096890284
0,140983804411091
0,141323254707334
0,138406999632209
0,140586918928662
0,136698084936217
0,141667487248448
0,138658776607488
0,135491587279745
0,135288054926393
0,138330482823327
0,134396447701181
0,137403599029757
0,13221027642673
0,13191357205701
0,136170634930081
0,133985206788555
0,132221344103974
0,135361732219459
0,129981242725033
0,132287768464552
0,13038600294445
0,131984669072739
0,130480719055234
0,131128690068305
0,129536631997018
0,130988056533994
0,127080382646884
0,128261354475748
0,127584496013196
0,128716496026313
0,124607607342123
0,128342202177124
0,124864638787379
0,12511315506996
0,125856108257612
0,122814967025337
0,119768076919385
0,12147222893361
0,122442226807117
0,125092274998409
0,119657967623596
0,12530700057607
0,121161957750694
0,121195375140212
0,122231375623658
0,1216000176837
0,120804649291013
0,120511376903829
0,120094033952575
0,122379890201168
0,118745847161953
0,120722822621121
0,120628476562365
0,117868464246529
0,115087086473572
0,120439135907686
0,119283791215462
0,117689690427944
0,115618333123062
0,121708010194105
0,116454620165098
0,116595704878163
0,117834511153543
0,116803941284127
0,115340222972808
0,117599012485911
0,113077884437306
0,116208223326413
0,115927745092765
0,116137488674238
0,11388287698849
0,113830710919777
0,110184802333204
0,112994068486147
0,113015363211365
0,114957752424307
0,111265597993009
0,113514687137092
0,111302886608333
0,112420465338832
0,111777686022746
0,114196765921218
0,113143290997446
0,111518815627893
0,108975354321901
0,112397164818019
0,109592088042348
0,108782286887335
0,106591761188634
0,109761106265839
0,108888593066766
0,108817674766799
0,107340096685037
0,110858696654057
0,107941836137231
0,110016641608768
0,108920728395278
0,107351905687841
0,104276119045792
0,104647809768153
0,103641643070218
0,106510143700438
0,105853045495282
0,106418443788579
0,103396457409664
0,10546251627929
0,104975769732554
0,10393102448692
0,103514126576067
0,104651091046268
0,104824794842663
0,107369991233894
0,102327046325409
0,102967846442626
0,103239080743276
0,103174192949022
0,100335899224536
0,103148639384209
0,0994475796993322
0,10318459571211
0,101685576511218
0,102882722978305
0,10101488606649
0,100051544213815
0,0982575761668188
0,0989162999005904
0,0997004022823277
0,0987595868237961
0,0997909129492066
0,103375181200075
0,0979319215357196
0,0984775299704956
0,0982733544311408
0,0989979439521755
0,096899743947292
0,0975543518176074
0,0957053886664685
0,0962266138280291
0,0946255421639283
0,0973746244890458
0,0943563472237957
0,0953838110280675
0,0945512332112386
0,0927771287989723
0,0932623850894557
0,0933359025485368
0,0915408797970883
0,0931555649973423
0,0914809489861753
0,0919448727207481
0,0903850327871053
0,093491806931583
0,0884212351108875
0,0913870558704697
0,0908607980447567
0,0921246811758837
0,0908148781368928
0,0903025530973812
0,0873561338328685
0,0906137806969269
0,0864671541322733
0,088827046357968
0,0880629936791073
0,088631196581482
0,086316420593733
0,0888531101218119
0,0881711694196887
0,087091348189468
0,0833085500237035
0,0832222308139537
0,0823122555753011
0,0857667922446037
0,0845438613769689
0,0857527354739613
0,0843529122207009
0,0841098542992523
0,0829196872796259
0,0836523339098744
0,0789029159686777
0,0808821501066907
0,0811775153981807
0,0830229712002695
0,0806771977368829
0,0809718225482271
0,0792115297470076
0,0803536158449196
0,080924831832362
0,0786755489874013
0,0761537770748496
0,0809008447005312
0,0772967013268508
0,0782697546016767
0,076857606554622
0,0781221646574934
0,0781747840313842
0,0767146029620887
0,0748970905474162
0,0764768613168522
0,07436806670382
0,0758113309595412
0,0764413452016343
0,0764133715342599
0,0702533193816566
0,0771964380305976
0,0740992340902123
0,0732560928391748
0,0731848092968638
0,0732906500826028
0,0716935891247964
0,0728436244193832
0,0722985055051906
0,0733166808210164
0,0688972072851502
0,0725650562554781
0,0714239811225478
0,0709352603514841
0,0680253647629508
0,0711549285523666
0,0704195970093953
0,0713858543718996
0,0694329282225074
0,0710209486519501
0,0672097171702824
0,0698704422335194
0,067025720478439
0,0701264733588322
0,0693800694259735
0,0690881993622802
0,0651926727480037
0,0679205344492939
0,0660770293611964
0,0667470445918957
0,0688941522161992
0,070892392367418
0,0652574575543439
0,0689084573463149
0,066220979247947
0,066946603423732
0,0634740322609837
0,0674965540136928
0,0647311630051804
0,067371994933533
0,0664866498182414
0,0664913029409663
0,0648132605656121
0,0671987262136061
0,0645368294021724
0,064601709135246
0,0637614896495749
0,0663461807524158
0,0652946136413591
0,0678415583911613
0,0643051442678748
0,0676691052276703
0,0625402414182187
0,0662513221957246
0,0606796825332831
0,0622401982492676
0,0572793795407146
0,062980549254751
0,0577713159870114
0,06589211495398
0,0632930862049224
0,0715688988200323
0,0634442741597728
0,0626723802472527
0,0535555944475495
0,0616722228042025
0,061121617614534
0,0597570873251074
0,0540730963965065
0,0674572985086601
0,0558606468823169
0,0652182166127192
0,0634953367258349
0,0601186963359497
0,0611679561347379
0,0671334006534348
0,0583947791381874
0,0628242088721857
0,0545345118438138
0,0696896493082636
0,0568305353634081
0,0650558404362633
0,0587764196468666
0,0618927241287727
0,0464365395447558
0,0639608401385174
0,0541426647467582
0,0634961622458569
0,0582458614807917
0,0669611770311302
0,054238559376376
0,067349384735135
0,0546014401099043
0,0651342231374622
0,0491064252629541
0,0641332538403597
0,0536393151762741
0,0670650769138329
0,0572888834871607
0,0666884129782124
0,0568567972973889
0,0562389634091705
0,051379882930672
0,0585946912738573
0,0656088927240304
0,0603817047077744
0,0660841784799809
0,0500357775497406
0,0598754424576287
0,0546743393822648
0,0820404333416416
0,0407377083845847
0,0721651091444283
0,0421957427150539
0,0843089157236806
0,0340306370529907
0,0811038295419294
0,0385132505540527
0,0781250349451051
0,0383275070312748
0,0747358463775004
0,0464907951662794
0,0686880832190565
0,0524612420976991
0,0611296615014854
0,054110037711526
0,0565211959629582
0,0580000937078283
0,0557680719870073
0,0559007282444793
0,055704554630304
0,0542889026416935
0,0586139658818049
0,0529327211608111
0,0591100704454476
0,0528797487160223
0,0602547485048676
0,0527053211295611
0,0566924757602584
0,0525490392364509
0,0584945105775977
0,0561633173195108
0,0567991965436746
0,0528635992843848
0,0547291503951097
0,0521980663243862
0,0549722069618305
0,052503987762421
0,0571608176783851
0,0546570180146866
0,0558114690901208
0,0514487431753815
0,054789146584182
0,052359717541264
0,0573377529323571
0,0514511423619143
0,0537916859708597
0,054422428114459
0,0562325007611442
0,0518540169497827
0,0555644671985567
0,0551404303698011
0,0558639010041922
0,0514298233171428
0,0574850426991489
0,0520039382014608
0,0567170223112371
0,0520661321702899
0,0566568509710243
0,054907709754869
0,0567756070183221
0,0543294685185394
0,0549539008167535
0,0511784766892326
0,0548342658170339
0,0513399577058188
0,0565666799628408
0,051248277043386
0,054067703421154
0,0512127183358225
0,0539227631157225
0,0516395457210536
0,0571006948340023
0,0517670193860229
0,0552142498538663
0,0535786957963976
0,0547892087267011
0,0546456287219378
0,0552275957027682
0,0531448672632199
0,0570829865705048
0,0547345001271422
0,0544845250888861
0,0533707536254892
0,0533854750383622
0,0519648697168975
0,0543702769688552
0,051596207802341
0,0537414594279617
0,0521664340321734
0,0537399026694604
0,0533621014646447
0,0562687388535043
0,0528143712067078
0,0549560243002018
0,0523775354524814
0,0548654573056865
0,0546501692933485
0,0565189960622699
0,0517468912847054
0,0559881458864163
0,0541735090546434
0,0545726500024066
0,0545322734139481
0,0559893284956176
0,0518549363106459
0,056857995357596
0,0522605716764817
0,0559946624967822
0,05451374933659
0,0572024325687051
0,0541880209138912
0,0557176617567809
0,0553614269091515
0,0578191377170178
0,055340986506172
0,0550681597208229
0,0558942738573909
0,0577588594779689
0,0549223579073032
0,056311027707951
0,056408964310815
0,0573474792439224
0,0556180160697003
0,0543343132768695
0,0540821549344839
0,0544005267232285
0,0532234502142481
0,0557929773689703
0,0563794276531348
0,0588352210659827
0,05542126169811
0,0583504350447428
0,0544695067415687
0,0545209911379032
0,0560370076509468
0,0588439026555206
0,0556045254195179
0,0568195245401842
0,0579620461096014
0,0568029169816154
0,0553719068242682
0,0559987425720108
0,0555098940463461
0,0553192420393052
0,0545848976520364
0,0588412518608994
0,0566578917777936
0,0585687750094173
0,057252165519503
0,0563426553560368
0,0532187354400321
0,0564167156890586
0,055537077005713
0,0595461989807279
0,05548585038883
0,0562506261013733
0,0583990236781915
0,0559495885232906
0,0564119618225584
0,0587503722276758
0,0561622195025335
0,0595383375599309
0,0573738445130216
0,0594006736493505
0,0564565204091542
0,0582159240161864
0,0578199712283588
0,0606585957824994
0,05859196671326
0,0579961451160336
0,0574096768906118
0,0603412932899143
0,0583863802216691
0,0616830257320686
0,0570736833509635
0,059495625300416
0,0584045888018815
0,0588539121990924
0,0584431743044173
0,060634188937904
0,0598534211926017
0,060723119511547
0,0574023498625494
0,0582700039897523
0,0579329971986534
0,0598658773476656
0,058336335855949
0,0600053485393744
0,0582265248874484
0,0616283861737722
0,0581350838565771
0,0606857269125695
0,0576126261729058
0,0577591615675165
0,057826511235791
0,0606046856058138
0,0573639855712351
0,0600516718402253
0,0582449739507335
0,0590190528550572
0,0573408607210825
0,0601089367527915
0,0583664670818228
0,059942665024446
0,0589705020400134
0,057548965760655
0,0569968185009097
0,0573083521504778
0,0562634923666969
0,055949437875514
0,0562047877072256
0,0578192266668017
0,0561158034515519
0,0571108048784792
0,0563078577615916
0,057310752316611
0,0546785050654448
0,0546253743629528
0,0564914276560426
0,0571739682900563
0,0552453314135361
0,0569521665301246
0,0590893744898589
0,0563923454051285
0,0558600181884306
0,0562679997520827
0,0534249571576756
0,0557011101263232
0,054639830840347
0,057144339621161
0,0548943770432891
0,0563065571294248
0,0551301439948109
0,0544031733839434
0,0517980491663981
0,0560677752576075
0,054919237680012
0,0541095238614444
0,0530146357234044
0,0555276820452246
0,0553416851513931
0,0569983344040572
0,0549513719557731
0,0556010509329715
0,0527545194744165
0,0550159362652232
0,0544679894821421
0,055538555829787
0,0519670628237046
0,0559548483364619
0,0532285756827736
0,0546529580446179
0,0554636919607102
0,0554072003585171
0,052999237905084
0,0550449110000005
0,0546748550318908
0,0564359607476391
0,0535550818191895
0,0543449737415643
0,0517966501046236
0,0535097749804477
0,0542484084762962
0,0544891522412936
0,0518406824439972
0,052473624885233
0,0522588373206233
0,0541930888850364
0,0529145976133265
0,0537096970609543
0,0525888846707378
0,0533862575336655
0,0510662567428047
0,0533875868289501
0,0522169523160345
0,0552801593608689
0,054026873403746
0,0558542323390442
0,0544941561580512
0,054829679469079
0,0508514496474077
0,0529511678985593
0,0521842167183288
0,0532361774784111
0,0533104703663001
0,056046237281328
0,0507157763125305
0,0522441143067516
0,0512505939214406
0,0542979127172696
0,0503726409906701
0,0513522460875353
0,0515672580842671
0,0518854759594898
0,0516270027015558
0,0524906929446435
0,0486664049189765
0,0529309252698161
0,0514773833309326
0,0520594007543095
0,0496152354549288
0,0532878327820072
0,0518417644541657
0,0527872717616815
0,0516669857572805
0,0502590587821136
0,0497290817575435
0,0508437598769823
0,0503621876678091
0,0517725681126949
0,0518565783290462
0,0517858112075553
0,0485920489272707
0,0496022708832322
0,0475855538479852
0,0480274677033865
0,0475999920320349
0,0501512565601357
0,0478369732865497
0,0521752068238853
0,0483121918627827
0,0479183671936462
0,0477484996925234
0,0499296565494743
0,0455275467699423
0,0477737996805348
0,0474510233221082
0,0490578302494845
0,0506041548106818
0,0483079394867988
0,0463409443086981
0,0444843942306626
0,0477540561595277
0,0459208453449152
0,0439557797915562
0,0453086633182085
0,0463658737292569
0,045411899610154
0,0452514160416238
0,0461187906593168
0,0463582570530501
0,0468965363431425
0,0443361777937098
0,0436367931727203
0,0438574623307207
0,043643302859559
0,042723820421453
0,043057675115471
0,0451958289282768
0,0437507837224821
0,043077293993701
0,0435288431400155
0,0470693736929232
0,0406154709985847
0,0489418011602716
0,0481023031980696
0,0439552372822482
0,0423729721758613
0,0425892732139943
0,0466443762923425
0,0404573988194295
0,0427525553711887
0,0403546481079771
0,0453997069636592
0,0411949174123353
0,0446402445829006
0,0431977940554973
0,0433944901173924
0,0413254963069798
0,0455638318623073
0,0417718766280403
0,0421970546038892
0,0418573271583272
0,0445840554133505
0,0400552442151749
0,0412431393440392
0,0426096326064069
0,0433723457319357
0,0399385899066658
0,0418792280635409
0,0412438340366087
0,0465635984841769
0,0427828280230876
0,0464390651470773
0,0406988179765418
0,0415170057261322
0,0362865950077771
0,0423920501363347
0,0401099040389966
0,042779891852674
0,0419867693605374
0,0423922045806883
0,0358496133075828
0,0417408565744806
0,0406734753373427
0,0443615165978274
0,0404612795118142
0,0430672256672041
0,0384573241821662
0,0421665473302073
0,0387564891232032
0,0421824577303901
0,0357852685169292
0,0413164149382781
0,0347753096902171
0,0464195163631976
0,0334725146120712
0,0419096067878309
0,0484493148321866
0,0413858139729381
0,0394623069600804
0,0380472488001041
0,0421242882314424
0,0405041351049282
0,0406357134638203
0,0378455450504956
0,0389422541508616
0,0390576214436303
0,0407180142234752
0,0391179015638722
0,0400542250385437
0,0392314825377798
0,03690141803906
0,0395682652109937
0,0413741004295677
0,0389327288663728
0,0413585281454998
0,0356216086510697
0,0432725544254331
0,0500994975608061
0,0405016392245071
0,0409991140412012
0,0390686072549911
0,033851214392902
0,0546040841044793
0,0362926451319409
0,0439722162048755
0,0342685152831007
0,0413723255727598
0,0359692272020295
0,0429380969804906
0,0342827094419731
0,0414626512106399
0,0424058889386678
0,038860789686689
0,0460273864487145
0,0367569383837309
0,0401218628596137
0,0369227004882552
0,039262326849367
0,036411867371589
0,0376023367878608
0,0360051415355199
0,0367606694165654
0,0369328080497757
0,0377752686784005
0,0397915053334424
0,0335110975757152
0,0399721823806987
0,0378709169911791
0,0405487097194772
0,0363124448711563
0,0413151771302914
0,0339786921732384
0,0394609547035845
0,0490316796160569
0,0338095226283633
0,0408243686053699
0,0349567765650745
0,0412338108530848
0,0365709031027681
0,0401182879982702
0,0336206385099832
0,0409812982534383
0,0362128565438022
0,0421411982073695
0,0354393873463984
0,0395564901301243
0,0342389538941318
0,0404742115263717
0,0370780077268231
0,0388915389197708
0,0369153125161544
0,0375910900627887
0,0399380959948878
0,0339249023787811
0,0461997437273644
0,0467538162762101
0,0493764363142312
0,0449290394908083
0,0417420565059876
0,0366018142539581
0,0372530237989661
0,0380790251325929
0,0373276830674291
0,0449693014311144
0,0354032432732644
0,0403482372585655
0,03703626538901
0,0386608292642858
0,0360071330926585
0,0401642951334755
0,0337740305091717
0,0414687499090446
0,0341082535588098
0,0429280850823921
0,0324021287208128
0,0432896429351479
0,0305370552512099
0,0503177872727352
0,0324832379459685
0,0516875160567486
0,0211798464702654
0,079867048927762
0,0397858043894903
0,0428790218246957
0,0414808269750887
0,0369705276991016
0,0382915297796435
0,0374223370692784
0,039947072483962
0,043476865412048
0,0391051600555101
0,0418670303865248
0,0368477067642232
0,0411500612806706
0,040649471720862
0,0361239436792127
0,0390135212151719
0,0617684406969308
0,0384911739491639
0,0509631300462874
0,0318750728027715
0,0438088751960795
0,0516184086170518
0,0350004204389256
0,0488642813746704
0,0381520716709295
0,0428268914257278
0,0387750482071593
0,0413772437539565
0,039748776635283
0,0416806297217626
0,0405023259845213
0,0409182117404966
0,0425990940117881
0,0366774381156073
0,0481073398029368
0,0383460453164217
0,0500454192769609
0,0474877920966662
0,0382429698894423
0,0464280854888861
0,0427542641119895
0,0422186287659126
0,0410138518668182
0,0430627618647337
0,0387084041855575
0,0482134414567708
0,0533034930096608
0,0402068410662669
0,0553414179098281
0,0490401063606839
0,0402414297157731
0,0466115190857444
0,0421537854429972
0,05648913085747
0,0311159245854649
0,0583436735377392
0,0561147836719791
0,0443479805118966
0,06635798029573
0,0359059356763102
0,0530719696953191
0,0356938725690553
0,0520661743428339
0,0303424491864729
0,0753721560093268
0,0271668318703532
0,0606144366691147
0,0320307232790183
0,0683469608401266
0,0482832150016727
0,0559595398250156
0,0458213867910196
0,0510670745842653
0,0395273696908026
0,0665905430567734
0,0405918220056332
0,0458907627024294
0,0606288774414281
0,065939158095689
0,0729544529918625
0,0506570138606182
0,038061713533467
0,0868084656740825
0,0413954757149044
0,0608967954669111
0,0404005210984495
0,0577907946511979
0,0411556635067575
0,0543584815304353
0,0693288981077409
0,0534106174590395
0,0508371274647762
0,0560358346498191
0,0395603385185513
0,0760310497775072
0,0471637690970436
0,0610955295337554
0,046416079785974
0,0661162478096367
0,0352252869122415
0,119765855379412
0,0442576483506742
0,0754572450109321
0,0650895078027716
0,0694043751946404
0,0660567057443368
0,064726588861129
0,0594302075597219
0,0695946481970791
0,0699786511594027
0,0666767426091527
0,0513273692291769
0,0772570483265391
0,0792197538611603
0,0593916761463009
0,0793605784422652
0,0598790385069703
0,0636359072970113
0,089113980130583
0,0985702082355338
0,0864445325490195
0,0729723769435365
0,068031553324274
0,0968943550546925
0,068535058549387
0,0756846833962091
0,0722191009787377
0,0739353738529635
0,0747538851251668
0,0671252902462916
0,0881514801789824
0,0763596921006561
0,086975090872619
0,0759329786642726
0,0814817783457563
0,0838976829419386
0,110497359448541
0,11761289353982
0,0770540924632857
0,133576164686056
0,0919202578581004
0,101255888878929
0,087272153429541
0,0888483775620891
0,101199696678181
0,0918310085702216
0,0968518517697138
0,0827071936850104
0,126072108133672
0,100164769767647
0,103699120774472
0,117950014931651
0,0991422703401778
0,11658354945586
0,0678182947883339
0,333760104885128
0,108100757004234
0,149563881491358
0,111458267194892
0,140308174959131
0,182923366354745
0,142920429349842
0,143425551678805
0,146019810355281
0,138818266097539
0,152768175287456
0,156257174825369
0,161961722450569
0,170709508974284
0,176281819733865
0,164204712722198
0,19873198105292
0,218371546172907
0,233191447835484
0,21124680414733
0,19367270770111
0,220916294391961
0,229748400051525
0,211544607765775
0,234036419144564
0,221126857999001
0,233186177255846
0,288039034944896
0,2442432927354
0,267342745156951
0,24468447280591
0,312223760818667
0,231485033291545
0,354529165770468
0,281887868855657
0,311131105351362
0,290920762861531
0,306616848874735
0,30980943292719
0,295947149744473
0,349963793942562
0,335553405700461
0,328496376251007
0,342322602558196
0,335965022971096
0,344103704987262
0,34408350476117
0,35410673122452
0,333275418972217
0,409000584129746
0,340469489796365
0,561703339354715
0,372107308200782
0,366929405848094
0,360239961974065
0,35862542983485
0,410754635867867
0,355362117407724
0,405524408035606
0,383687802048936
0,355124488212692
0,369170486614916
0,356593070289445
0,372823073758979
0,360113663307237
0,384370083944975
0,341614717551412
0,408485287522587
0,340936478425597
0,401522571104605
0,40936331112935
0,3616730659153
0,36410696153039
0,364455645379379
0,357088734740743
0,364713876035783
0,351329411341477
0,361226437742854
0,384148851303675
0,343203109002662
0,363287038654983
0,330261585686262
0,375031830027048
0,365834164668943
0,336501028127464
0,352214887896567
0,326699432095001
0,344678588613225
0,317327412464152
0,336170856314503
0,389488322166785
0,320568662204281
0,328664328161503
0,3110220301083
0,310936893127588
0,316537472856924
0,314037540233804
0,314000142599813
0,312141975704335
0,299679257526325
0,319922790143393
0,304165998586177
0,306919185060087
0,29447573640495
0,31258855912327
0,300973692955384
0,304362583455465
0,297458976784183
0,298360894779599
0,30223290414531
0,300732875543001
0,301108586032384
0,296950338480573
0,294414386047056
0,299007804068729
0,287467301969346
0,300529967756024
0,293668784726493
0,295581892842962
0,290264317734681
0,293314308721723
0,295109704762046
0,288669169403239
0,29438626683059
0,288671565035916
0,292066506535904
0,290132921588028
0,292288731884379
0,28894676587506
0,290970701603532
0,277965138734088
0,295352763090794
0,265920711143803
0,349527885874991
0,29202670823031
0,281057287368354
0,285080254066817
0,269193088451004
0,286904355545622
0,258700749806464
0,321365006610062
0,281324301036368
0,271693812660779
0,271304373594513
0,262770066466691
0,279523761968101
0,274806722802704
0,250549454921513
0,274136829645249
0,232525796201988
0,328903079291193
0,283947119616066
0,308594301044045
0,31419771804939
0,270637925708823
0,253463217877076
0,254502422982925
0,292298550530615
0,235246532015857
0,268329094765733
0,227037508532276
0,3021140970689
0,252695392013018
0,243346787565146
0,250635567578746
0,237500023149415
0,263880934661282
0,272516474241565
0,24232980036511
0,251816865339814
0,26958081164733
0,240862276051904
0,29031348475235
0,273524638641534
0,25844095596174
0,226287338834033
0,235548181414811
0,231169103001796
0,219164281406236
0,296802288468631
0,21647832265673
0,242833641034834
0,213931662630429
0,215184801746787
0,21595188724243
0,22026392642161
0,228362853016793
0,199754692356342
0,264782732408103
0,183653718369423
0,23838873116365
0,20450413300145
0,239278007481065
0,239271745837012
0,214372944785218
0,194233559495512
0,224464308028268
0,238091618014565
0,196354499226176
0,218367308705154
0,187907215244662
0,187250720248981
0,218791466451957
0,181357650807946
0,208560109943788
0,199569120570846
0,194158468813246
0,233442459453125
0,217441184206295
0,227214106460548
0,189443457546019
0,177788582754582
0,184228394734403
0,171283966662685
0,197594174651037
0,163169201009428
0,21920743848077
0,190310036219091
0,164245292458324
0,244179315425341
0,184351432895427
0,188822346817254
0,191925603210966
0,184419801595286
0,192032853903558
0,201705534642299
0,225074785178545
0,208256867400861
0,204077966919399
0,226948729766346
0,194007145799393
0,219167038601145
0,20199737408941
0,223988361639359
0,211467391626851
0,233480822481772
0,220682427272757
0,23582633513584
0,23262108368718
0,239412599358679
0,244569679215394
0,287517996426667
0,22746238343564
0,311663882288301
0,243757384913627
0,335661289252353
0,280696281569636
0,282992260021292
0,289431450374721
0,286720703682515
0,295507928986308
0,301044931141552
0,299585646648821
0,351890814021561
0,296190168835348
0,336117578730467
0,309103269615076
0,340894379879911
0,310090791790563
0,376012104950894
0,320296628898592
0,391022851679047
0,37886760869592
0,355481662802043
0,362534821612191
0,339512912045153
0,358828673427343
0,359168401459796
0,353931851546387
0,35929070581646
0,346176086210773
0,384409792097318
0,356064998018752
0,368668477198659
0,363054161109484
0,36753551752954
0,367260327397285
0,367432353970252
0,372189426230913
0,377398696689493
0,371815028514207
0,385463057248073
0,361066754418658
0,461017634235333
0,386559017279633
0,397270688511936
0,392042697510352
0,398103515358714
0,400699897253564
0,400679076369579
0,418838547769821
0,41278169265804
0,406999211978281
0,41696218854149
0,411837669917764
0,42897317496662
0,413364884473546
0,465304880225944
0,410658299638323
0,445850732726055
0,416741537835029
0,450314938623198
0,471444386630412
0,43737113228702
0,463025085896273
0,436904712243637
0,453471314000655
0,438607468593404
0,452074631740933
0,444571572019326
0,45623060594779
0,443986076255492
0,453919309538923
0,449442475808434
0,455946068185058
0,459161365978272
0,442416294303183
0,477902088612075
0,452761254445865
0,451978487438572
0,449942550709623
0,453892442823537
0,442594572837065
0,467729534162713
0,460892014391404
0,447881930108535
0,454558054962381
0,450108566051277
0,456806568338583
0,459273147842027
0,437748215752686
0,446794510119906
0,441215959848176
0,449227900454379
0,447394210082066
0,453306500425238
0,491420433096761
0,456324201412405
0,458513845133041
0,454745376668918
0,461741699940338
0,461046473941493
0,465856522612328
0,46164887613637
0,470442073906664
0,461288916732072
0,472798808187488
0,472864599618145
0,476487061463142
0,481254235385964
0,481950628993893
0,482762964441953
0,469079694483463
0,467561649789995
0,473142416207963
0,462760390996948
0,476356211068621
0,460162691953847
0,46292962172098
0,449013805732268
0,4602657007343
0,43532068988164
0,483485775940342
0,439562649181785
0,453854124030723
0,437808510308623
0,429714348491758
0,43546937317038
0,427238952848198
0,427185740558543
0,426839648537614
0,427574766699365
0,420026952806007
0,414566073772402
0,416601755661699
0,414898753019641
0,415071665364274
0,417827107410455
0,412782922591583
0,407982034579913
0,413094488356387
0,407913506133318
0,407572945050019
0,404868910227575
0,409834894208482
0,398155554308207
0,415861441379077
0,420110913021558
0,418319576185142
0,410431727160646
0,40608919314146
0,414555039208294
0,401639681664405
0,41258757824426
0,399890718191437
0,403344894716103
0,399319812992955
0,408891819002046
0,400743662079333
0,402759332422718
0,398404408011552
0,402670713605864
0,39635384151822
0,40285176624048
0,395340726537482
0,400644682519392
0,389880067100232
0,400416686153947
0,39500645506572
0,401848874721492
0,399934347478083
0,396567641252883
0,401320831857392
0,389207059734757
0,39759200893372
0,397506088514288
0,398685244406416
0,394901043824217
0,390304533201608
0,394614001601579
0,390857744018618
0,393069291555526
0,391220257386531
0,393509489732552
0,389528640057989
0,38858226031366
0,389011785695087
0,387565569638833
0,381126521219708
0,381251808757185
0,376594969227288
0,374704807196973
0,369473917592214
0,370936817236186
0,366700856232223
0,363664875376857
0,360733426569304
0,35472046287402
0,350394299816792
0,347669014325311
0,349519817074777
0,346956726183246
0,345677266256152
0,348363837715002
0,342530640675758
0,339299253018175
0,338715348744152
0,339122184868634
0,336146265697296
0,336615966477097
0,335277680017124
0,33557671523099
0,333827863803772
0,332920555997505
0,33741428740949
0,336444150225568
0,338048143919317
0,339046052789583
0,341392180178648
0,339359729613388
0,342938714344443
0,344199198448369
0,344872374778891
0,345244950082817
0,348915783097735
0,349085243310808
0,352103762325175
0,355528474117165
0,349452827968382
0,35032863749248
0,352583105709713
0,35504322651822
0,356274081002088
0,354481949462068
0,355216431929135
0,356637036813701
0,356094201052649
0,356762733599809
0,358792988463467
0,358029581239296
0,353431205609547
0,357014524477819
0,357288151835491
0,356456131088489
0,354094945360455
0,352367678161372
0,351255105294638
0,35073992479983
0,347803660408802
0,349109133279642
0,348681308156322
0,346991243781472
0,346291088400406
0,34776678654354
0,34510462957414
0,340490115216626
0,340419929745851
0,340361481106735
0,337887660705089
0,336094025667177
0,335744776450802
0,335257038607121
0,333778346020501
0,331546674437471
0,330969300217252
0,330111377140238
0,32620066367809
0,326984663293849
0,325993698266295
0,326640270965919
0,325919772912089
0,323236901835948
0,322005501661987
0,319659279452761
0,318360217940442
0,314104850338057
0,314272048774254
0,31371547001217
0,310960486746991
0,307915386952421
0,3064376828225
0,304145852753931
0,302953563769087
0,302295099001553
0,298988839669341
0,298007361354333
0,294701126020106
0,290675266602222
0,28951737705143
0,288907827888438
0,288870912075184
0,288202518440762
0,288160817669149
0,287943838111144
0,285789954865089
0,284156057950548
0,283824385149683
0,28361027346714
0,281852800826396
0,281431892005151
0,27992075746801
0,27697544239698
0,271360959239693
0,270094795651173
0,267462270615068
0,26621398185904
0,262659121771811
0,25681780885376
0,254328726759944
0,250966963805656
0,247708313213399
0,249957095884315
0,248443979069671
0,247920310262064
0,2507551271416
0,251283438062961
0,255958983918685
0,261949824410063
0,267384788808394
0,276064047132685
0,283979116232139
0,293313109068125
0,303627540906272
0,317658935130822
0,327582813987553
0,341116859139695
0,3529978829837
0,366030731449994
0,381069765036703
0,392641934804634
0,407599450301045
0,424396753979238
0,433331981345014
0,450169362336795
0,463663850630497
0,476568827450731
0,492260475162723
0,502735122307813
0,518836516777519
0,533819700450171
0,543833727070351
0,558107915755073
0,563426796618248
0,580207600353466
0,587441090965163
0,594153768621785
0,604585512514259
0,613880451323332
0,620547317849635
0,627156737446204
0,627499205446862
0,635862725732865
0,634501051117635
0,634176576053975
0,632845587810986
0,631125470750457
0,633640804766988
0,633124639172534
0,632876918106619
0,634405395841243
0,630079032312475
0,632484035449084
0,63324194130303
0,632555772508515
0,63769989118347
0,633341914632403
0,636238705642351
0,638272929751139
0,640952590154316
0,646055201032325
0,650657742285558
0,653040187805031
0,660869412404581
0,668055254147755
0,676666131338136
0,679214503941298
0,681891247812563
0,699448557688286
0,70643784120936
0,713318226831221
0,727621382091919
0,729580684228134
0,738643655192314
0,758048109292253
0,761765879106844
0,756366740579047
0,768592811400694
0,782933569973394
0,783888523175688
0,775261064401732
0,780247528608631
0,777948078111596
0,782715435306506
0,774068625008734
0,775363484212827
0,781367483162209
0,771339396649486
0,776095619429197
0,779045020598695
0,777500026724226
0,787571662534939
0,792507795403454
0,795993129182842
0,812152332730703
0,827777730635211
0,831699227615246
0,840062055713183
0,849057535294598
0,866734657643611
0,872407302809597
0,890983743720322
0,902690408160664
0,912650648986093
0,928453494192066
0,93627143752849
0,953637002421195
0,959255959722565
0,979429862780064
0,988805585807402
1,01211525669811
1,02485796371369
1,03860859550109
1,07921032535009
1,09477100625445
1,09817673989744
1,1245121086701
1,1524642997458
1,15438970820576
1,19816896539616
1,20217647776154
1,2255765490508
1,24859337387791
1,26340455071951
1,26426251549308
1,27375707909315
1,28541106273617
1,30083452818235
1,30827741804993
1,30541897534469
1,31308481658509
1,32240344195634
1,30558511537499
1,32080418688461
1,31865787099151
1,30661753790056
1,30063634622265
1,30034998119129
1,29659807830192
1,30335187762449
1,29583394453251
1,29886002591838
1,31284945072086
1,33923521970144
1,32236728235653
1,31180687252716
1,36550679350111
1,35247392920698
1,35071815944471
1,38366459512247
1,421707534552
1,4391089716745
1,40913728357321
1,43875332059279
1,47492940874651
1,49701912643565
1,49143949904691
1,5139898420613
1,53564699999533
1,53492993082665
1,55575001876619
1,56419566466619
1,55695383043886
1,58156975417945
1,59765927880578
1,67174726441964
1,58541322285644
1,60643489211283
1,67231434611689
1,65217602346931
1,62637400622513
1,66367821194796
1,72936423825356
1,70351795304006
1,76042981850565
1,71734131354346
1,70611588042785
1,68149336633053
1,68465861313354
1,69756827545266
1,72222881998542
1,79013632871195
1,7347162328818
1,71910731185915
1,69285914246352
1,75668678590955
1,72676184782743
1,62390794835362
1,65052062996344
1,60468809998431
1,53460813148564
1,51654557645132
1,43554707554297
1,37355774306024
1,36402450164481
1,30794642488662
1,25792523854042
1,2184538710901
1,18169211453405
1,15218536940962
1,12601323424658
1,13489114768593
1,10512208411502
1,09308016682271
1,07889337114594
1,06676516710928
1,04454245897178
1,03091482159761
1,02521666196258
1,02215820785815
0,999993552909319
0,989825947149374
0,958810764739762
0,938208393517786
0,930854571178264
0,907052735218675
0,876329158873736
0,851230797696183
0,833892822171736
0,813823279501126
0,787572687194283
0,751622991294726
0,719727930999968
0,694445494223344
0,666322728849258
0,63600705249007
0,598280208292825
0,574565151305703
0,542434185584907
0,517463890692212
0,488264726995982
0,468769050986558
0,444108471335707
0,419363123224978
0,403197545710574
0,386091913307018
0,368876448414825
0,351374859660249
0,339492890629742
0,331159344100186
0,319316928461827
0,309715321621265
0,299643563782134
0,29376309899044
0,288053241718114
0,281189167203769
0,276821466305675
0,273332260547375
0,269058322657327
0,271644967644604
0,270803571682917
0,269929636824846
0,272069238298658
0,270849317074511
0,272654274680794
0,277890280351884
0,276334781389951
0,276710600951146
0,280026480421215
0,282946157710671
0,282490094729176
0,281374003026235
0,283611911964411
0,286312678795398
0,283777626787574
0,288404406155475
0,287012114193722
0,282335566791772
0,280755410626211
0,280850602358154
0,276042456896658
0,275544153905899
0,27671500049876
0,279727746366349
0,274754862437305
0,276486948577984
0,278854868354438
0,276277283170681
0,274193468635153
0,281086183847215
0,284347464521099
0,283076786825401
0,283681801130844
0,28849147659891
0,289861063368771
0,290749214337554
0,292096647374866
0,295574667535695
0,297312604928838
0,296922969220791
0,297216930403081
0,298553047957367
0,301529909048916
0,303372778126725
0,298705330906029
0,300149309871254
0,298914897544339
0,301245672861029
0,297927246747569
0,301308499446626
0,29855458061183
0,300686392834745
0,30616734806403
0,309039341573799
0,311540771454128
0,319147182623432
0,32395522429694
0,329362656834949
0,33490270679663
0,345536498053713
0,35047827339464
0,359237392201009
0,368996120682752
0,376843507161168
0,388194308056415
0,398761725543372
0,400777169902058
0,3997182051895
0,407054914697165
0,399050354976146
0,392320953192254
0,397487988762566
0,383656798598288
0,375254687746067
0,361617117801084
0,359463048256998
0,359511514023804
0,35457722520845
0,347010235242802
0,346878228029859
0,338734417854762
0,341247374702512
0,347439783368187
0,349530185343964
0,346006246759159
0,348577495833121
0,348288637936106
0,342745002989273
0,347273737377383
0,341719122807877
0,340407342211877
0,342157273533407
0,329659225921837
0,330647477893501
0,328503354513289
0,326914911059775
0,322295507660439
0,321007086200859
0,319193307673737
0,315467798360772
0,30702185912962
0,316001935990501
0,315286302407784
0,307665255551857
0,309617802601288
0,304737738433266
0,298905382918044
0,311689669432003
0,300635038360571
0,302371006070181
0,305224315999631
0,299650031491314
0,293349529255167
0,296297849200419
0,28945810970074
0,293954059081695
0,293810140409625
0,28145432503247
0,285564171388632
0,289822019569563
0,278605422787901
0,283357789789156
0,280557734366141
0,276660207279771
0,276850315346404
0,275574864657767
0,270849611078229
0,267889676440769
0,273818752522725
0,265422550831719
0,258473391703816
0,260854626939906
0,26593723326908
0,266695039900383
0,253702923955571
0,253804905710119
0,258848732097341
0,261699750666152
0,25580920222029
0,259861980292242
0,256686361969924
0,255095827618456
0,261214245946237
0,265116873086264
0,260714072669238
0,25426996628946
0,262870987266352
0,26949396959239
0,267104545281984
0,274372116182789
0,263399062090341
0,262649763152342
0,262673901350158
0,282062626735144
0,282434902941276
0,279030035706539
0,282959169130635
0,277724240505772
0,287878101436265
0,294648122323775
0,286756789017659
0,299600136745286
0,298944636797421
0,306670505677597
0,295003187527622
0,300106361643831
0,318491663210151
0,326144668812668
0,334920948643406
0,337643484863821
0,352164659840102
0,358694675246415
0,361025346293107
0,376267476496101
0,388480010648153
0,404628529757461
0,4147734284002
0,424045834720379
0,436515182110849
0,460312884179487
0,456421708995138
0,474557297935246
0,482087035695112
0,477582106650588
0,477739244126876
0,496662475129293
0,497042038629231
0,492271863400408
0,477155061043098
0,478395217416693
0,479699056945101
0,482877597438852
0,483173417816009
0,496851619650834
0,484237667630997
0,472570618970234
0,474580814131372
0,470020834384093
0,475619786561186
0,467330994468553
0,467461169498102
0,463004330667571
0,442835424934772
0,440221255490321
0,457388032504125
0,451633635022557
0,45156828900532
0,465367240680608
0,424995744617372
0,447212797555398
0,43012454182548
0,440959902879198
0,438404736328417
0,41101292043683
0,424431390341453
0,449196218522071
0,429401031953703
0,406190579954207
0,398526704661989
0,418168811638324
0,416685581497919
0,398783106038606
0,429068446624164
0,412168581185931
0,403126042233624
0,414403808295502
0,418129005318183
0,41042260476503
0,421973486307502
0,420467929537161
0,392704749619192
0,413861181704977
0,398386149365526
0,396060528561109
0,411888344513007
0,446691893233582
0,432697050600724
0,403680401790176
0,422101896230751
0,444228389452195
0,459301768689583
0,454407937338482
0,449722345119578
0,426640069144585
0,421564917475053
0,450986808921658
0,457644397519042
0,436779399253755
0,448625950045239
0,492480042864019
0,472528602292427
0,426135363562177
0,471396208432971
0,4795948107168
0,49986227442959
0,487882268169593
0,473724982225027
0,513287829886095
0,521579014565156
0,529530211378541
0,556254325797224
0,535461602459399
0,532229579273812
0,564157267026415
0,562093814790598
0,576128935254472
0,5853294728016
0,576424955603193
0,565601193310303
0,605105963950987
0,630532357248399
0,537369748826483
0,572035656577119
0,646063228967044
0,578305355934897
0,566295788123979
0,532704716145435
0,578938805145126
0,589275333690059
0,573754612076377
0,619808595799934
0,58567100626689
0,586280105824683
0,550830397730245
0,551174454178215
0,592392402201602
0,585874567362273
0,566582684660957
0,572804861160454
0,551412391296437
0,486289273863079
0,556725090338296
0,607316885068537
0,496720487965837
0,521560224226034
0,60354655080908
0,567320686592992
0,519192470201971
0,559414554790533
0,538000601413957
0,63955017969039
0,653652231545052
0,603338913987965
0,614100925044034
0,702316725792341
0,594307531674637
0,467683260457341
0,44814053097784
0,537451950368504
0,671897745478566
0,670860154315727
0,534108110560295
0,466000022756835
0,532484515330269
0,539232733638045
0,783559124904026
0,610374826606581
0,829851322966006
0,843650269468839
0,718541423226758
0,678746501661806
0,353162912483815
0,483265373359413
0,525595229860338
2,00008004001709
0,777156488030529
0,599643517386156
0,844550452772978
0,871663271655567
