3596
4000,36533379555
650,420452594757
1
2
2
0,0606562342671964
0,0426837049704262
0,052077215374894
0,0350450318437235
0,0514358570649152
0,0434192219082758
0,0529351756007818
0,0452399444979957
0,0533504531684055
0,0443466981697446
0,0628260948588032
0,0471736607335084
0,0513922401288826
0,0374533998848706
0,056743463216266
0,0428883364054801
0,05346897801351
0,0425001546626745
0,057067373043158
0,0359783446507863
0,045483421537792
0,0390302081306577
0,0524837642768823
0,0341211833097937
0,05960727360936
0,0472855065590438
0,0584543210188901
0,0429562324596425
0,053399858181182
0,0506109470274157
0,0550426770454673
0,0396458806669105
0,0509837755611759
0,0412895634748436
0,0541700964616003
0,0430763425895358
0,0508578197732451
0,0391105302853619
0,0502663676151937
0,035773598883063
0,0602584254645756
0,0444543557795247
0,0546675629354266
0,0421631955708741
0,0525637448510446
0,0486880569265462
0,0622282127152642
0,0444428840090467
0,0549713902713251
0,0371959771075756
0,0460060087873448
0,0398253707026519
0,052487669471865
0,0485937717955112
0,0523744567736275
0,0418443005212185
0,0553840563172579
0,0405652952265586
0,0480542620919579
0,0462078271712505
0,0569102513219604
0,04676566223171
0,0559356920206977
0,0381950686390846
0,0559896293181297
0,0414270552917562
0,0520079203121843
0,0275074477124467
0,0496970849236944
0,0366159006616924
0,0489223869549888
0,0409285747266507
0,0638590801437843
0,0430688600052158
0,0574854837373007
0,0431716337378786
0,05840543578442
0,0367676091831488
0,0507473366343438
0,0410903458319103
0,0613026021757469
0,0453329731759364
0,059660333871379
0,0368412193231229
0,0618458800722098
0,0400032064558433
0,0570014819314076
0,0372718963718751
0,0658100510503509
0,0469574122359534
0,0516341854633471
0,0349844229306497
0,0565354891856786
0,0332766743928361
0,0506631869867446
0,0350100591007054
0,0524098310956923
0,0372372769291416
0,050060706763702
0,0280424962512364
0,0551968671953698
0,0409216648056556
0,0642501818309978
0,0576078439701434
0,0649447089864755
0,0463280314649095
0,047021197121475
0,0558431908999914
0,0725639749845084
0,0389173373792281
0,0527047494480516
0,0343685381972214
0,0518797601580203
0,030318200733971
0,0518593008785632
0,0370971231087899
0,0762809249476702
0,0325916838347032
0,0475358145344096
0,0337241859368596
0,0519444266202119
0,0474335967849362
0,082763892646671
0,0460854124154421
0,0472361802009945
0,0317111603491421
0,0446508950203563
0,0452730021135258
0,0774265746130286
0,0353285295129682
0,0478593621166618
0,0358226942037217
0,042007520140988
0,0337208319694739
0,067821387025515
0,0495134994002982
0,0508550904449505
0,0318774994138206
0,0596931668403789
0,0720966640360194
0,0576338605568779
0,0360598369154734
0,0462337813880907
0,0322614994633382
0,0754177644036723
0,0408585845195232
0,0428009232996759
0,0448395339180514
0,0588748770750801
0,0376249693460329
0,0445299111101312
0,0345550881492951
0,0575949406042758
0,0419813581624767
0,039521936216625
0,0260068141433942
0,0913701835256108
0,0541816717751582
0,0737303124669804
0,0496682516912419
0,0474177103553837
0,0476893158144776
0,0442760202298391
0,0390754668109632
0,0406053064233483
0,0323888067636412
0,0496446554933852
0,0467155257738389
0,0424896090560425
0,0343469988217557
0,072761887484785
0,0540358937382791
0,0620470314540037
0,0447123395357229
0,0676155427024281
0,0255476494676551
0,0660397101110933
0,0428688474063615
0,0409892743510512
0,0359932916093322
0,0615607976793423
0,0433395075044819
0,043839910707122
0,0432699202556396
0,0502134355218816
0,0455586136003146
0,0505559382724579
0,0314849416300659
0,0460412921212905
0,0300574248872293
0,0549919003338901
0,0656526057501334
0,0802345651540795
0,0521119685458032
0,0460907325058675
0,0350541741688874
0,0543571286524383
0,0691178231418248
0,0496881114858801
0,0271016324860929
0,0453534142603125
0,0356908232059143
0,0425274122418665
0,0338474385112657
0,0406880522347972
0,0407659684381689
0,0716097229920393
0,0512143678531821
0,038449294674419
0,0356122494068734
0,0431060616907878
0,0393392894593595
0,0683325585842639
0,05980611186351
0,0581977121711159
0,0434905422015016
0,0533250190666446
0,0378121944042898
0,0556064472121867
0,0359661926533917
0,0535164543557564
0,032237142967493
0,0477099500903811
0,037385464664632
0,0529028644561844
0,039584068794366
0,0515357227564441
0,0362668360144218
0,042841142837447
0,0360243605756136
0,0588305631160755
0,0404491155853401
0,0456277593312191
0,0398906018953885
0,0473507237614412
0,0422872575183378
0,0614171704197199
0,0440392114476604
0,0455876700327424
0,0382592777387308
0,0462390164123175
0,0406160056068844
0,0416068881082415
0,041585584804447
0,0460410385478283
0,0431862890518508
0,0667490652018836
0,0524319808158732
0,0398589663884306
0,0448178070642494
0,0544276329651732
0,0533967051792869
0,0424465525180763
0,0397881930090828
0,0417725948131968
0,0405283357927272
0,0487400312372643
0,0572404156522196
0,0540817261337588
0,0464942146480476
0,0563437863819618
0,0438797095014396
0,0483160332750135
0,0392119992749061
0,0566343297239236
0,0664939687569258
0,0668330318144086
0,0296746656727473
0,084568440176306
0,0571330192477129
0,0596059509035042
0,0394070128601972
0,0496109953399982
0,0678802420427912
0,0852705534071679
0,0435603647473218
0,0554459573782097
0,0599925189429021
0,0550948243789314
0,0366771833154803
0,0560377011644142
0,0463044772662912
0,0680739126417455
0,0735400231701917
0,0782415371956898
0,0504730460819241
0,0587367080203195
0,0625211993280137
0,0600408772203395
0,0485940714414802
0,0514787455678767
0,0439863138381514
0,0593727181492105
0,0573315503036591
0,0699256896638581
0,0475319708197681
0,0554045981642597
0,0577573319165105
0,0631959378932319
0,0413588866185725
0,0610280753734116
0,0464083050762837
0,0556821743996087
0,0419845489078739
0,05086670782432
0,0395045800685045
0,0521395021835921
0,046827399943916
0,0875335841747092
0,0514158392779775
0,0702682253947132
0,0564845774474359
0,0641821600049839
0,0408480324348994
0,0601295101316433
0,0413308492137152
0,0514917407087511
0,0425422125921759
0,061510989233469
0,0569957966277407
0,0673380092370757
0,0454402272503608
0,0591701516474054
0,0430395399276077
0,0576067163720475
0,0462790758434945
0,0601041771495386
0,0479258700461529
0,0576432114049803
0,0464218693099684
0,0793554112481791
0,061545857510912
0,0695746374619129
0,0593867434211704
0,0897744452753179
0,059045689944393
0,0616055099666642
0,0513166143010275
0,060747163752819
0,0559022687523333
0,0660747164596579
0,0437756556688128
0,0640916794090249
0,0683351070025409
0,0757993871705578
0,0628920367320945
0,0750392181352178
0,0816499595111944
0,11341908264393
0,069561953873269
0,0650504623841885
0,0555142344178949
0,0848555586101846
0,0730761311409654
0,106130175201012
0,0712529401123248
0,0835683945709921
0,0657669077839272
0,0806270932767809
0,0606665331637766
0,0817959867962505
0,0690933393230885
0,0852672253719862
0,0743468110506988
0,0842020816517933
0,0740932944513673
0,079421419145841
0,0826670317397324
0,113809597145274
0,0892793192852328
0,0921575260691926
0,0777474850679317
0,101849106828107
0,096550617949675
0,12316651053461
0,114112260154036
0,123666052129229
0,115861156872164
0,120505614789489
0,104218991007719
0,10314735801297
0,0928933358821359
0,103326126755537
0,102568013412876
0,10972466166329
0,0951496599986472
0,116364275333228
0,114844860323544
0,115276326240977
0,108912938085033
0,116978765944102
0,122109783744263
0,136007224847923
0,130339708358715
0,124298359315024
0,116799079321555
0,153774521100139
0,161952702772402
0,166900042182621
0,126005767792604
0,151388788894111
0,128854577399678
0,140853777725909
0,136377929305119
0,151538429433921
0,135601449706276
0,169141584655231
0,139890795335025
0,173926735641556
0,158580349217248
0,175831853345441
0,156203758858368
0,183841116005137
0,160746045949786
0,175889095869515
0,172581166263809
0,188018202629445
0,158719419882287
0,20584600522357
0,17253587274292
0,199304885580049
0,164976951993436
0,195008281267929
0,16801748747134
0,192298930318656
0,191000986594205
0,207583858921147
0,193102942034274
0,210789052134553
0,195710690843516
0,219372638586041
0,198046734096145
0,221606238176837
0,210583781047576
0,235151486820724
0,213591987442936
0,230792718038054
0,213721604341373
0,223819248698873
0,226021500406158
0,266054085158685
0,221352636678361
0,272094378411172
0,222680732673937
0,247148088307947
0,234530374683919
0,256102516697494
0,224456511982201
0,266042511419813
0,245378118276491
0,275779003907906
0,264354533733445
0,281203270273544
0,252647148828092
0,285414886410423
0,270270876439413
0,27792501319108
0,266546696052754
0,287569418692766
0,276336028914639
0,297546864300836
0,283773543459773
0,334700262365148
0,318839017215087
0,351018853468713
0,287406061182676
0,319267044612937
0,297520040228522
0,333398070178391
0,303190009113639
0,343449216527116
0,306404315952712
0,361049801999284
0,331267747421856
0,335883616183041
0,321566770724046
0,353729172817838
0,337355836424182
0,360068653634994
0,325825681836876
0,379380977823375
0,355518282727149
0,399771590894595
0,344593729592659
0,408059048230298
0,353638307922327
0,40449125430951
0,356539178190694
0,399132511279574
0,365804788051659
0,413522302594321
0,374608664605572
0,415607079061656
0,390777960472981
0,412578131721548
0,392364531657296
0,428312708176028
0,416041020586694
0,427034239337513
0,4151460261306
0,449516986370362
0,418244576803544
0,460646960693573
0,422335624386457
0,474534760036601
0,448398853262358
0,473399301034052
0,451750438317556
0,476771791167557
0,430199284329526
0,499842070345876
0,45376554614335
0,480995967149763
0,477299190185526
0,496964862789786
0,483327478668192
0,511740937771094
0,488207803830094
0,516572582128624
0,493084124173487
0,503733234480779
0,498390406791352
0,551820109719555
0,522296818763191
0,545822505236747
0,552730154693785
0,57231248311488
0,491327940986823
0,554306685984335
0,544734025959514
0,559471264443775
0,54848143350367
0,584503432968217
0,542842187522834
0,604658787200875
0,544698441993941
0,583203084549935
0,56518054582645
0,609456699631928
0,550399333393434
0,64252435219719
0,618501529086837
0,611754017116611
0,581302354056126
0,646317127915215
0,597482088902384
0,652817593537086
0,596542872778032
0,667426792027656
0,602531956855909
0,669867347172952
0,621365211152936
0,679564185444208
0,607001013537758
0,641778047149341
0,652756738913506
0,673492691770474
0,64603691687709
0,688702651152143
0,632885223378064
0,713725457987808
0,679195068817117
0,76784718554213
0,66629836547082
0,71749489026618
0,68188691601291
0,699326050860116
0,666382529590281
0,714585450848014
0,682673230147219
0,738671136689251
0,692894095042977
0,767401296067812
0,696511270156316
0,796609456897395
0,730162040084142
0,761021409286099
0,737316376317076
0,77309668377017
0,75203132018989
0,823262894101836
0,753499845154686
0,813480106622679
0,752634701709617
0,761395680741484
0,778824114314263
0,828898708319179
0,792634724878701
0,789301665878328
0,785129669340359
0,822032690653075
0,778474955316588
0,849243627030295
0,800837291078133
0,861320087224119
0,801126736739474
0,83992803906934
0,829661222137857
0,87824136563704
0,820264869533758
0,872558432427411
0,793534169021315
0,846753680506819
0,798731719365114
0,873105478167203
0,824647949723449
0,938783640547891
0,861454226257593
0,936928716415912
0,846649717096891
0,869690007069846
0,850545633125889
0,921981841098796
0,845488906397995
1,02164581515491
0,935758935399323
1,01554992228889
0,891399057568748
0,949944052552877
0,885293577954668
0,972239093832399
0,914644098371014
0,953820983007757
0,884017535546678
1,00286103033995
0,888683178003076
0,982598183867342
0,893945003495074
0,978107928782772
0,94009167608255
1,04731603711
0,9479882609487
0,987012637920387
0,952678546066651
0,996556972266694
0,952798492145248
0,997818648518955
0,953744904661071
0,978409542079522
0,955339130134669
0,972813545530589
0,924107028800525
1,01805199069485
0,925257273425416
1,05844031281561
0,988420492026319
1,04714579003546
1,01343715112654
1,06568829945596
1,02547098780835
1,03047496080757
0,958654374621631
1,05546195171567
1,02337754629333
1,13674387692492
1,05609937375972
1,09322918379927
1,01062385978757
1,13804245859646
1,02034945075133
1,09816270625991
1,06513332543297
1,14231199542914
1,06995828908634
1,06334769807749
1,0290886408332
1,05750335835449
1,04626144582814
1,12241153073847
1,07689214558265
1,10782706035804
1,03694575870288
1,09124288997036
1,04810657730306
1,07881447307737
0,995694143967756
1,08679287213669
1,05721316043396
1,13613759150514
1,16029933839759
1,09332132215285
1,06413010575021
1,19875247281918
1,09834813457939
1,14547027585184
1,05327214693325
1,15381262653492
1,12748941318587
1,17034098597957
1,02201500782099
1,23150896037252
1,03253566157698
1,12792474196627
1,13613217897233
1,14085801854078
1,13033629107434
1,16127521671992
1,06551653310511
1,12980052460756
1,07221347845752
1,18031878292784
1,05971995373414
1,22259015397888
1,10654628342102
1,16380607962832
1,12771405380205
1,22482599177099
1,11715567214818
1,20766933787631
1,13898751206278
1,28083331969348
1,19841164823723
1,17514197962451
1,14518899781895
1,24711682062815
1,09270555521311
1,15603562507798
1,11341460411491
1,14609491371448
1,13304349415897
1,17633280929639
1,09911123811259
1,26429267137709
1,1046772239637
1,24559986692877
1,10553191718346
1,17669531745696
1,11580646111114
1,20004298512023
1,13114874344515
1,21266945438076
1,08549855391247
1,18762665827299
1,10239878150855
1,23085113068639
1,08738916743577
1,16690402420267
1,11722538391035
1,16082263635625
1,16291275045238
1,20407693395353
1,13891836432603
1,21913246808458
1,12785260361923
1,12295278226143
1,17392715563186
1,24542639948457
1,16703993845402
1,18302412802023
1,11280615457212
1,18075481190642
1,13153729405945
1,18393753282996
1,17661585691777
1,23239551464239
1,12145518265811
1,15729742788155
1,16034355938993
1,18258898161475
1,10387356714153
1,24146400330808
1,15808638857106
1,18306091579537
1,09504476769354
1,16243634052387
1,12273643030539
1,25857420520321
1,09250437098814
1,16066319936216
1,13486303268965
1,18025528415206
1,14100096274119
1,18550979058275
1,12222248679812
1,17133574396916
1,08541495916493
1,22132096727214
1,17661562761305
1,17182345110942
1,1163191632161
1,12272230572018
1,12710113687318
1,23526712959753
1,12026156407482
1,24370942922255
1,10306368404731
1,15909955878717
1,16787432913258
1,22208009478014
1,0947768754002
1,17221867076525
1,10847394143589
1,18948387097083
1,12955294722502
1,2405040592227
1,11943955371312
1,14951960178043
1,13208432334887
1,19416242936523
1,08600540941875
1,25661222806298
1,06516541457136
1,1724593045105
1,13430554355045
1,17935710546388
1,08019941872659
1,16826465841837
1,11405452934937
1,12726166533117
1,07575372710402
1,1488689641031
1,08593744237621
1,19159703739255
1,13213643562742
1,1354641319615
1,03129440929819
1,11271965174148
1,04676852320005
1,14293550402381
1,0777204165963
1,10496739723488
1,07116183674117
1,08660437135505
1,11055897486243
1,10386985230812
1,05752801455149
1,14208520043858
1,04433642094256
1,11907419819025
1,02972366326809
1,13836843539666
1,05939119077038
1,1210213262368
1,08940737625028
1,06441887734492
1,03082485084703
1,08976787268807
1,03724082547089
1,1062401528994
1,02487025710624
1,06931918566191
1,0340065006631
1,07760310240893
1,00251749813685
1,07236820548755
1,00939052989225
1,06385142145826
1,01377991430846
1,06619330340515
1,01480183761856
1,0152145626661
0,967378743415624
1,05384274780887
0,986793128048723
1,04748738014114
0,971708511887953
1,01425381097361
0,952218057877507
0,981431700468274
0,975453823555059
1,03279797633725
0,959873511012485
1,0109135124938
0,932336311046383
0,986478573210797
0,918705805908501
0,970304437390216
0,944109848450053
0,989202518829183
0,915474416526647
0,945443832802454
0,965234101597811
0,967519741838988
0,934406943049834
0,975991535116143
0,91120586768936
0,931724069607715
0,912462461484326
0,935492536550578
0,892755956743973
0,91426932897063
0,894732738325205
0,935264679740374
0,88683275927875
0,91044835530348
0,878346269117189
0,915476836542612
0,889683870689397
0,900347130499458
0,880861039713159
0,891561377690311
0,865711791410207
0,868452697182148
0,871935200352205
0,861582136036763
0,851183139554932
0,863636582446429
0,867080671575539
0,862001992421609
0,848902118531379
0,841443456355249
0,798624801753951
0,853546104693966
0,789650763892959
0,841229969933206
0,809862114284489
0,822987713228707
0,801885500833847
0,839126114169167
0,795790981383904
0,811626879850815
0,805902642288554
0,79022202839354
0,785538635514652
0,816447696033126
0,766186755386076
0,806101405458375
0,767641664788807
0,782506314854369
0,769466782679553
0,798956838406896
0,737776665587702
0,767744527996256
0,731033838244933
0,765060053053007
0,735953384994369
0,742892319351338
0,735763345300145
0,745753036691607
0,71342331412954
0,737566860743829
0,713646842429841
0,735366023580217
0,686719267779785
0,72049110791988
0,686678678625737
0,73092489212318
0,69221827398559
0,713931072361828
0,695501878336488
0,704238419855016
0,676763939245243
0,696032035391849
0,67574353670045
0,698725512534539
0,659576945484626
0,677590534199826
0,653615703282654
0,682715671892158
0,660556582939687
0,675625360503882
0,652055991355542
0,672883853991333
0,639472318651751
0,651708530317433
0,614740543124908
0,650285094333866
0,639482390317291
0,64032423476655
0,621222135900623
0,632167688340968
0,618419296755703
0,6391184242499
0,601800194300954
0,623374785467835
0,598996354459879
0,61985965237401
0,605566080400339
0,606115284618351
0,583216286811643
0,611127423544625
0,590462223072776
0,592785838389102
0,566783820365899
0,588929573673063
0,572029085296653
0,588332811750636
0,570440955458455
0,577201190865049
0,566462134495127
0,572415795621288
0,554697111078141
0,588198333407087
0,557610220239135
0,563535158024133
0,556490121632134
0,555384719188085
0,543887566059237
0,557863590252522
0,542364375544873
0,548432434337218
0,532300045345458
0,534037058917008
0,529135715788304
0,536338878466271
0,51899015233722
0,529747877579328
0,525467501815556
0,522557830138385
0,518164661857322
0,528747621079574
0,499321687950387
0,515491419671476
0,498653848847786
0,513752891571398
0,50598366794119
0,510589473456278
0,495578911798349
0,508304061732109
0,486857482341567
0,493258945806418
0,480922230575856
0,495110221566083
0,483712914617501
0,48463556521516
0,4804082400553
0,481516357839122
0,473814160399452
0,478996600838711
0,466353899686997
0,486397942693747
0,465409541332183
0,466684728400419
0,457968492231127
0,467832898979331
0,447443801452503
0,459022831492329
0,446021343133661
0,459297725324512
0,446482525633848
0,451490268274172
0,439525624163995
0,439260146702229
0,436521821873221
0,445579173116646
0,427144598912883
0,444858229692409
0,424530386319451
0,433250835654589
0,425251710309334
0,437646934588715
0,41927408806926
0,439063359876727
0,417752033640179
0,421351981571514
0,412334051965607
0,428712966221755
0,40636607753949
0,417445128189443
0,411598909795381
0,418244016047879
0,402866191452935
0,408366642720427
0,400786579453307
0,405074897029785
0,398091793409068
0,402118187808837
0,398528615299055
0,405083888663267
0,393986693059266
0,40119738183851
0,392340351314597
0,401156071498957
0,37622440163526
0,397072960965852
0,38578876370617
0,387618024068203
0,386531578441382
0,393182525766501
0,379078733132326
0,387550297732854
0,379594446789611
0,381541695960134
0,377228724180351
0,38481986519585
0,375629915062369
0,383950443612826
0,379414531451717
0,385601644086065
0,368854881827173
0,384624461062097
0,384847897760016
0,388559691524383
0,3796227032818
0,392501662037367
0,371004907419916
0,384446111451999
0,377404175134077
0,387356718068792
0,374494070532137
0,384406399340405
0,376580160297308
0,389921817066659
0,375909304215033
0,390852913555934
0,384703790634522
0,38941466276901
0,38799565895275
0,398991478160949
0,388943783148753
0,395858051841927
0,398856197299406
0,404454000970805
0,396268708788293
0,397591365358863
0,397054527961312
0,411519516252835
0,399004234152639
0,411888583129215
0,40496141901517
0,411649428236711
0,405803873335416
0,414515749030193
0,403797942249152
0,42506750760999
0,428433123052888
0,41980981452076
0,408417576401984
0,423567087841299
0,422981876535921
0,425654054755548
0,426202581624728
0,442616857220831
0,432509164635527
0,452029177393601
0,441919694016247
0,456309751763065
0,450564690725603
0,467876972206927
0,454389596718644
0,469659966898614
0,455041505303072
0,473629213661627
0,47430377200125
0,47847596576864
0,468525628968619
0,483347155700567
0,478208398103453
0,495034370097459
0,488057914724554
0,495385689867935
0,496540368872797
0,502858909788434
0,48959160043323
0,509191724369018
0,4986688772109
0,519661531834308
0,511841357254398
0,517570289320281
0,512980286372488
0,524894685887483
0,506430584413319
0,515322473552677
0,50434489236778
0,526992667280382
0,510000455241843
0,515072808107522
0,514026641621599
0,514439000663125
0,503856825481355
0,526573757555663
0,511299768202225
0,509348186818805
0,503039621636234
0,513858029080269
0,498955205078822
0,515205217079231
0,504039734948019
0,514647368936247
0,507419577401792
0,516448386116783
0,504729670728856
0,513456314708293
0,504125947093967
0,511673990343523
0,502275566437377
0,519963237090552
0,497933060786153
0,506545521646895
0,499837643167609
0,514826509122271
0,499639447569351
0,514106237109701
0,51003512614829
0,506403745192661
0,501890013797344
0,50989672186828
0,499841936810864
0,508022482414839
0,500104914603613
0,512159996628089
0,503725767273941
0,502645481714181
0,500080489985826
0,509189174599174
0,49657546781944
0,506448039853801
0,507821906909907
0,512452003141279
0,497440662536965
0,511045569305911
0,503987623131784
0,504922543703558
0,492470777536037
0,508442530232217
0,485154050276862
0,492739465118266
0,485619871462786
0,490438645490515
0,483129985939132
0,487659593653087
0,481783983484293
0,482753175123087
0,470739460568048
0,486762634140029
0,46449312926879
0,471864723778108
0,470422053914385
0,468326129603759
0,455276764777875
0,456494569598635
0,446953618891948
0,457649609347355
0,443762629804847
0,449739655580506
0,446849501452751
0,454410818305951
0,434705788042702
0,442982234516929
0,430084811456211
0,440132804406154
0,422444467920273
0,422585405209382
0,418555195413641
0,425897212509823
0,414022066628586
0,415583969303931
0,407595432718013
0,412596453437985
0,398301687416862
0,408151405673803
0,400537542863224
0,405225850639169
0,393756767558818
0,396773203510047
0,385990664326085
0,398341446022354
0,381837720685264
0,384645483245284
0,382271816889977
0,379804161810856
0,376931145612527
0,382483459905114
0,371885272870554
0,378579364901157
0,372210868983886
0,374303838529069
0,36512180610347
0,372792384106396
0,371214491610471
0,367392259994813
0,363862566664347
0,36326629247433
0,357402477140684
0,365739441785815
0,356492819122576
0,35724455573066
0,352756035602575
0,350292805669114
0,348006119532597
0,357370766187862
0,345049736748501
0,352309215386082
0,344964394027535
0,345062094631468
0,34333395458713
0,350449906526831
0,340497529651851
0,344100252268814
0,336652594056531
0,343960238494698
0,332105603015784
0,331871448034928
0,331536432875073
0,334494068071171
0,323885836190024
0,33533273058132
0,326451897453153
0,330499805806386
0,33094880668553
0,332918566978904
0,323021687795884
0,328000927194245
0,317407556470946
0,325817742368926
0,32098028811361
0,321409258920592
0,316983082536408
0,325017574031862
0,315926419592688
0,318132662380685
0,312222772454235
0,312697616426073
0,310882478978282
0,317451927281327
0,31922573633065
0,318087297437676
0,312357366291831
0,315768913837301
0,308735903422527
0,318117116258205
0,302348852766156
0,306932131126526
0,308332181084098
0,310932780259183
0,300712303407599
0,305329216988856
0,29599863937188
0,305847615000959
0,302567679745139
0,303901407071797
0,296144538259924
0,302659978479976
0,297706477474351
0,301158831663769
0,299000444986683
0,298671726396439
0,293712475669061
0,294248034651354
0,288142684696544
0,295572261272454
0,290150037624466
0,299231188061253
0,289964784452829
0,293837151701613
0,288199258958977
0,292965817834022
0,290436506894075
0,292597844116303
0,287471485912466
0,29055305080784
0,280513470797285
0,288519574448424
0,286343982275392
0,285026212530488
0,281649364214611
0,283574129028868
0,284846790789613
0,284356489537321
0,279848619974998
0,288704343137746
0,283157954830764
0,284780936160155
0,278297663094948
0,277904512891576
0,277813242296418
0,283051200666119
0,27969673608451
0,282682826842886
0,276018865304371
0,277445203507381
0,272518957606288
0,282447738225015
0,278344855819499
0,285285587787889
0,276563592442689
0,277287804988019
0,273074165933114
0,276914450229808
0,275678932281082
0,277578403155655
0,274644160382118
0,27807604133353
0,272965732820252
0,278916769290893
0,272374832600551
0,275807846104031
0,269188021283939
0,274763999529827
0,269259745684694
0,274029430963555
0,266178560100214
0,268277413846512
0,268274645072702
0,269850569840029
0,265326483018192
0,268766785145315
0,263376666854996
0,265901483571652
0,261215473482648
0,265212125450194
0,258888300608581
0,264002762349428
0,260209909065212
0,264151539946836
0,257868899117101
0,264259841343208
0,25933360957863
0,260033187137553
0,253492589926302
0,259367923321352
0,255733134646095
0,261203607432031
0,253974994117326
0,255546517078942
0,249827560534026
0,256769552549998
0,253291481138364
0,255902526753755
0,250708165754272
0,25476819856277
0,249687040755737
0,254854164456164
0,249330712175502
0,250533118378355
0,25000823091514
0,250635747986707
0,246680492927059
0,250729943880201
0,248797255190087
0,249582862174734
0,242270325572827
0,243390793332982
0,240491479996784
0,242598909387475
0,238023489152291
0,244081690928265
0,241399005468314
0,243467675107213
0,239357024489281
0,240754706620303
0,230348530067968
0,235754131427282
0,234237352192145
0,237101892560917
0,235234555148447
0,2336021075682
0,22856422308423
0,234539786105216
0,229246678830896
0,233326084485839
0,228179724929306
0,228648955273742
0,227497984168125
0,232328585764163
0,227864112194549
0,225913783266749
0,220336922764701
0,223537809967904
0,219552402472441
0,223265536535228
0,219071484898963
0,22131145217861
0,216841009986622
0,215614579116861
0,216683302999299
0,216395883654097
0,21369409711033
0,217781391557046
0,212356653846992
0,215141793644392
0,211012360912724
0,211740705190035
0,206948607080701
0,210650561865596
0,207967186000741
0,208725461024168
0,203761762766133
0,207435528385666
0,20593625852974
0,204586976201711
0,20244469506484
0,20310944704114
0,201092647925907
0,203471084999667
0,196872746444542
0,201020554723145
0,196773796990293
0,198976521784712
0,196519852046348
0,197492551671425
0,194535121657994
0,195745342778604
0,19160091682193
0,197194170326366
0,190733436944619
0,194283277211147
0,194896717251339
0,192849623213248
0,18935598217942
0,191656188046063
0,186816643545779
0,188050603074335
0,187205542892656
0,189698120869339
0,18269628077091
0,185456099189299
0,183971530250509
0,187453084488686
0,182542952351305
0,182412783132553
0,182121281664297
0,184681671566069
0,181844344048247
0,183857568518519
0,177691975822025
0,178370110127442
0,175578828155355
0,177466363582379
0,175392689553326
0,179782873301013
0,175810373809618
0,17587923833427
0,172830242230626
0,174205313721085
0,174940187263972
0,175710798571375
0,17088969233823
0,173218534104951
0,169383945564996
0,173428044201948
0,170980742081419
0,169975251495646
0,167503571340544
0,168197101821123
0,168456583862595
0,169337279858544
0,163041948851743
0,170003174074065
0,166176356402983
0,166140586999295
0,165631007598291
0,164988667467601
0,1624601512882
0,166271191260257
0,167242434413203
0,165301375532497
0,161114071980857
0,164493434253405
0,164122764068929
0,162847429481818
0,159147158814225
0,163510243949547
0,163971890329099
0,163283383109232
0,157781113116039
0,165357344695511
0,16110584007044
0,16015960073391
0,160571164237062
0,161392837778068
0,157876164598366
0,158117252139499
0,15443558265668
0,159820683200187
0,157326568979417
0,157144257108091
0,156844040312436
0,158285686749125
0,150920859682952
0,155535160875882
0,155418422902956
0,155020286601429
0,151502983710593
0,153812425086675
0,151999209644896
0,154097230284325
0,150707128709747
0,153672598127313
0,152514940339985
0,151085589933271
0,150778065466937
0,152031924647033
0,148725707303291
0,149525936612142
0,145788647463843
0,150003146465546
0,147185518034714
0,147914889197011
0,147514540477854
0,14921092034814
0,146309878017669
0,148419184236766
0,145794885266047
0,147089272907843
0,144695162568657
0,146677113644925
0,142946633384209
0,145594365889339
0,142070381760106
0,142695693151301
0,141166830289684
0,14255313443496
0,142842864576034
0,143239572856167
0,140028942157862
0,142055832734906
0,141747495689409
0,143343755132341
0,137827594495195
0,140194923949573
0,139054881664989
0,141232338992009
0,140194419175977
0,137018221580313
0,137115367155863
0,13876240557333
0,134322205628758
0,139090198019559
0,136069813710565
0,13580523327854
0,135460378967373
0,136473716301934
0,132834471674119
0,134159148549932
0,133302733535139
0,136290718375921
0,132616662906461
0,134357885538209
0,131874098903031
0,133417100010791
0,131272209576983
0,132691486474162
0,129683802401376
0,131400542056398
0,128504451722302
0,132471301255981
0,130141789868766
0,129755999765588
0,128407082567178
0,128938801128869
0,125807736200862
0,125696913703888
0,123506054789825
0,123810532310027
0,123279806269892
0,124995198263249
0,123980147991414
0,124033894007097
0,121687117632895
0,125089208176366
0,122409260467171
0,121879365682243
0,120232789515203
0,121435364755442
0,117058473184664
0,119909710895433
0,117180286091181
0,119837776814332
0,116813302055034
0,117464445475011
0,113561021842696
0,117816694085913
0,116816478569033
0,114592054749812
0,112855847268014
0,115055899506186
0,112752113904037
0,115603078622059
0,112365566823909
0,111997487633337
0,114035832341702
0,114650964974676
0,110721606822816
0,111666715020583
0,10873988036017
0,111863119766323
0,108582454994989
0,109081568553618
0,107829213403185
0,108834730270311
0,105756529165719
0,106478816755544
0,104349579827573
0,105461756056383
0,104611894468456
0,108468914454602
0,105109031335954
0,104781019087845
0,102369204935501
0,106173108333769
0,103005317770505
0,101635868645589
0,100065663536828
0,0995115804529672
0,100190876808175
0,10211366739605
0,0993125066269315
0,10100033153555
0,0967530890228041
0,100724093249926
0,099370188718514
0,0988083635896904
0,0932514279902213
0,0961087989260972
0,0963119887448909
0,096632224433841
0,0963115664373163
0,09792893304548
0,0919529305939161
0,096358190967526
0,0954987204348962
0,0931696942997558
0,0919249225707624
0,0938573163735292
0,0903643932018947
0,092871280696357
0,092761450576428
0,0909799078884808
0,0872006090753407
0,0924234887064385
0,0885953104204374
0,0896336791466989
0,0898127767199512
0,092604772863365
0,0882141187657315
0,0889494408419334
0,0871302140526644
0,0887489990629595
0,0890065081132081
0,0904983956479904
0,0843067693692146
0,0882628603090481
0,0871552222996805
0,0874058145920256
0,0833491471751774
0,0881464628339053
0,0852006357089103
0,0884106473670059
0,0851962356159401
0,0865623697881443
0,0836982323611594
0,0858647942326099
0,084119907809564
0,087154102451853
0,0846956021849849
0,0848437460856954
0,0818592087158269
0,0846796483691799
0,0807640750217157
0,0843064554958293
0,0814828335331896
0,0859710223263593
0,0776507145069536
0,0812084467555902
0,0780578496581081
0,0805163934987785
0,0750916986277758
0,0837533065302504
0,0816446246122283
0,0875939680972808
0,0801543687633287
0,0806589602816526
0,0715197969999466
0,0810195583381942
0,0807674467828727
0,0808739167472743
0,0692704285129096
0,0803559596800975
0,0717672294419712
0,0826783403237882
0,0795748944138412
0,0760454527716637
0,0772084272458609
0,0833418870759495
0,0770841760698487
0,0822938105764105
0,0680105137589801
0,0847620632885271
0,0749289909267681
0,0792595091780894
0,0740592012938088
0,0797423477718593
0,0669283664613461
0,0818429360571965
0,0728483851793537
0,0814873628824878
0,0749079549538362
0,0847558809546773
0,0730895991716453
0,0879452057499431
0,0695351292918925
0,0840789179986108
0,0667432679737523
0,0837676166497269
0,0724201436675836
0,0844849376810229
0,0735635568335951
0,0850850003910922
0,0717121008930849
0,0745723219183808
0,0658692689328959
0,076521484541229
0,0740490472850771
0,0828520192292348
0,0788525990785459
0,0688222015245107
0,071408973227232
0,0742240385288369
0,0913312411450685
0,0626254536082418
0,081016108911357
0,0649520919764592
0,0941844348080372
0,0546551932827129
0,0925855736279341
0,0582302259573712
0,0910216989898084
0,0530454487032632
0,0869660607170214
0,0623760985003399
0,0842063584684114
0,0652152484940753
0,0783982055394189
0,0678949370761444
0,0725231628093703
0,0713730230934578
0,0717799346026241
0,0704416261593027
0,0725323071206313
0,0691960739063095
0,0720441099434091
0,0684471493580648
0,0743578647536661
0,0677217425118351
0,0727228394834405
0,0662265301250534
0,0711843756628254
0,0684595903268024
0,0723305323429521
0,0698464591723272
0,073179844621539
0,0663079279440238
0,0699385171031572
0,068967515309109
0,0709178301584167
0,0664943372557617
0,0728968083161626
0,0683857641798359
0,0697578096034603
0,0671212579909646
0,0712842543850268
0,0682820674707555
0,0714958204150722
0,065402988416839
0,0701346905575556
0,0690456214888889
0,0713495801587701
0,0669430573861339
0,0701655643735414
0,066592904436525
0,0691502717785617
0,0695443035211098
0,0709478013531261
0,0681277959837306
0,0726708719034792
0,0674314024065821
0,0695137495084864
0,0683830488850889
0,0701981615935198
0,0676747781866525
0,0703411701230729
0,0683495515852408
0,0690842584573361
0,0661944480543036
0,072228151466722
0,0664391226824515
0,0692722070058141
0,0683163528969705
0,0696983844125388
0,0692957401800156
0,0698052316539096
0,0684066056955089
0,0722702799931968
0,0671076611423252
0,06866515431503
0,0700979064128262
0,0683309138492912
0,0700422359355471
0,0723182422311148
0,0700318317500432
0,0700721033600356
0,068665640049234
0,067691800080836
0,0672863388319083
0,0705402232550421
0,0675325120621245
0,0716059477087277
0,0687086306216645
0,0683663307152143
0,0699791252038399
0,0718087816645691
0,0675152656287884
0,0695534322646505
0,0682629680515104
0,0694001365667013
0,0679432853618087
0,0698978074129796
0,0687123365774798
0,0717036178781107
0,0685521705849759
0,0689894954696441
0,0689230650438729
0,0718942858738738
0,0680219519607041
0,0710147144226444
0,06881000418175
0,0718083031374484
0,0711399850563896
0,0730649866122327
0,07014880904736
0,0719432092234319
0,0725823899770448
0,0723086090343297
0,0684551534882864
0,070733134768737
0,0718701022506026
0,0716719362644024
0,0709977388807411
0,0717738249621917
0,0707104935943482
0,0723821001958125
0,0724375378627763
0,0722855235088759
0,0726515271925502
0,0720148705858907
0,0730989144895765
0,0745004765363987
0,071641542481841
0,0722450648188253
0,0730940545812066
0,0721224534415842
0,0704561883713747
0,0720640317526507
0,070732418699621
0,0744656533017286
0,0714259764731264
0,0732015042659294
0,0729981986567976
0,0729650659484885
0,0712429997698895
0,074617052900282
0,0744224967108607
0,0734664785185382
0,0730628166377416
0,0757637414630002
0,0723122258081274
0,0756553614457135
0,0736835533659765
0,0740016682216565
0,0731867194414857
0,0727924827754748
0,0724084461776534
0,0770078592924688
0,0742992709668471
0,0744422833090986
0,075262200242104
0,0744180443113211
0,0750790718835369
0,0770406654162852
0,0739256014897174
0,0747525094231114
0,0737196219618555
0,0769064474425218
0,0761355216716689
0,0751530008259238
0,0742874303666374
0,0776336401660447
0,0767941624530254
0,0740575161345448
0,0753408996696026
0,0774763082686567
0,0779831254653582
0,0791099171732776
0,0767199908043313
0,0781597621347264
0,0755950128560522
0,0766591974487121
0,0771582734776083
0,0808007781907589
0,077751288802261
0,0771759169598173
0,0771486848543051
0,0801477581800285
0,0783989410504975
0,0778441570026287
0,0775390890711341
0,0792862976738274
0,0771335171234286
0,0777220129397444
0,0772340444835894
0,0776949729191439
0,0772382777446897
0,0779609128594874
0,0771594267230908
0,0796010390171633
0,0759008671489147
0,0776663298753959
0,0758517137996502
0,078292144589009
0,0763474701190956
0,0768071081096219
0,0752405171983583
0,0770524132776721
0,0749306589046772
0,0752143611649037
0,0753609847712833
0,0771783466429671
0,0741990990998568
0,0733522564728499
0,0737279183476253
0,0745495742121022
0,0762168546903815
0,0770439115280846
0,0735105426589101
0,0743751990221269
0,0731478660216919
0,0757434992906007
0,0752261444358952
0,0751893811283756
0,0722340752690614
0,0746684851145302
0,075045911893785
0,0763433911816972
0,0728910212944307
0,0750716852971354
0,0718278209807701
0,0725558996967112
0,0722550389693452
0,0745315624539573
0,0737892050382452
0,0746648429667574
0,0721341075027286
0,0728901983493443
0,0710580899969763
0,0729810536811226
0,0715872764714434
0,0726541618654939
0,0717542254740565
0,0718572603832457
0,0731857695330234
0,0730213749368154
0,073250698243408
0,075159668872792
0,0711005259820496
0,0733253247445642
0,07126854635167
0,0737031015097915
0,0699802196346181
0,0734230165996676
0,0711906296994559
0,0716739569741257
0,07298482380443
0,0746908270691043
0,0721633979519959
0,0724017775797058
0,0714578824103558
0,0716144933209839
0,0705631934950335
0,0738177858725358
0,0707938390070995
0,0717171461648857
0,0704101752434568
0,0715018920443289
0,0686466459613099
0,0710374682150611
0,0699016836861273
0,0719945014662099
0,0712984592054888
0,0718603586024262
0,0718457358514499
0,0722408510820766
0,0704904831160665
0,0728263959876648
0,0699328356200754
0,071566186801969
0,0742268864253408
0,0719998084728647
0,0701501003134122
0,0708245202491204
0,0679068063765166
0,0725010870146481
0,0702682817281993
0,070667741329792
0,0683537675043255
0,0721908738271248
0,0695313812245225
0,0718260545307333
0,0690683805023156
0,0707277565863747
0,0666921042805434
0,0671737979831701
0,069222379479384
0,0694341332872355
0,0666662027999009
0,0685403317484875
0,0667048057988621
0,0714462829822632
0,0686055317994119
0,0708917582810721
0,0685479115993239
0,0702566196905314
0,0693163719008707
0,0706699268088461
0,0671014032658842
0,0665825642683407
0,066155442884187
0,0701051710677793
0,0683574156665906
0,0682948280593206
0,0666343891800247
0,0682454678559826
0,0646308010182547
0,0665384225448754
0,06441661505205
0,0655401936782929
0,0645195771082374
0,067736790404673
0,0641058665100106
0,0670803133561269
0,0642350731219976
0,0674851031961682
0,0640817381433303
0,0651441623026879
0,0614676595771917
0,064167674680749
0,0655914325200973
0,0661388648005181
0,0646891102049228
0,0629501158183827
0,0624473052193119
0,0609619959164434
0,0641519568643107
0,0606672737504133
0,0609084753183626
0,0626512693987472
0,0617105210431539
0,0611839760608323
0,0611430193862414
0,0593911362594529
0,0633522056670986
0,0614948596094257
0,0611845422045429
0,0617401344519513
0,0603567821968624
0,0593153492889048
0,0585527253225634
0,0587341697552751
0,0603069447814742
0,0596025983886468
0,0578805122061396
0,0583008942461011
0,0590786526478212
0,0554918234753851
0,0666534788151539
0,0638813038419758
0,0594325157716855
0,0590520760554394
0,0591427135074285
0,0596932855386737
0,0559578503135333
0,058102668258742
0,0553862827885483
0,0585413472511247
0,0577486183815388
0,0599148483371684
0,0570282855892673
0,057267461555992
0,056257088528973
0,0604515916602243
0,0576621712786321
0,0589442617335199
0,0574263847856043
0,0587752233527248
0,056475157108795
0,0576585627996689
0,0557703802623157
0,0584153083286948
0,056060524801117
0,0569230294682876
0,0542725504449779
0,0634024248042497
0,0563312716522591
0,0614662012011489
0,0547303919316677
0,060111270815655
0,0511032654954371
0,0586552093838478
0,0566995058256685
0,0572106069068004
0,0547186841418465
0,0564905734471689
0,0526357890789069
0,055132818747481
0,0580909958949922
0,0590344004217692
0,0525800038668227
0,0566378807454167
0,054523269487163
0,0577619981769326
0,0540842986413886
0,0592898104726088
0,0537410360594101
0,0576853320163674
0,0523091022981722
0,0596237289971907
0,0487309513386449
0,0592978007509672
0,0609996171910738
0,0560074018683372
0,0541270140722453
0,0542480856620571
0,0561824113463881
0,0550558137130857
0,0552180476927418
0,0548489285876151
0,0530214256747081
0,0525259910669894
0,0541554494646083
0,0547315116400665
0,0547150357472529
0,0544808907502572
0,0548521009767569
0,0555265704753685
0,0551418314068496
0,0543802885912054
0,0563375808227411
0,0516158165739158
0,0574896593617854
0,0663255924560449
0,0540295949098777
0,0569614261474468
0,0536046443552068
0,0510529867281734
0,0703363123898994
0,0496556843641504
0,061252421026508
0,0512124240644923
0,0554754599228746
0,0499407607394946
0,0586887590898131
0,0479060663050292
0,0587622405925234
0,0558077959258744
0,0528794164103561
0,0586303947425031
0,0541175726797284
0,0556780223169569
0,0529824557061524
0,0556468086560682
0,0521514380741033
0,054371080360854
0,0529469389151079
0,0529369884780549
0,0522700787829633
0,0529254283402028
0,0555363744393124
0,0495724781896651
0,0576255953679064
0,0549567867795328
0,0560705826974806
0,0527831724104983
0,0559517936701885
0,049706648141127
0,0550671665069474
0,0650670848537902
0,051841503616046
0,057608298194081
0,0509992810911551
0,0573759873422155
0,0507202768863845
0,0550748528210073
0,0488637781071985
0,0572503798558659
0,0518686784951236
0,0567054939540804
0,0490343662417055
0,0560853501895806
0,0513277613883816
0,0549426778079109
0,050751821616538
0,0545739216399619
0,0500064043110964
0,0532014654439631
0,0542391057121213
0,0528176314008146
0,0650650246432387
0,064374900265205
0,0663278593376071
0,0592056906274883
0,0584428424083677
0,0515344412067694
0,0533561833759542
0,0538386039191232
0,0512547963549501
0,0576030900908356
0,0517642191378839
0,0542493474537667
0,0540633939816634
0,0539793994070917
0,0514221208563946
0,054451171185156
0,0502242386616723
0,0570997289893969
0,0524301747960781
0,0589846141124578
0,0504210646749021
0,0586388411279542
0,0487237597195377
0,0654033888169712
0,0497096657798446
0,0651800492195464
0,039708769856982
0,0946794988838361
0,0518543405317421
0,0621014201950648
0,0555857133816439
0,0557319498803158
0,0537475820501852
0,0519069948248666
0,0562299901248675
0,0605675059437169
0,0526441431196909
0,0546342138237391
0,0539519551837448
0,05816567882098
0,0558540372556649
0,0502718768658079
0,0604296761590096
0,0782769780603359
0,057568055883751
0,0673363780164067
0,0486495917971616
0,0648039878846968
0,0680992988155017
0,0524382345806263
0,0637033546532145
0,0556135378595337
0,0580558787682978
0,0539069001558054
0,0578527646550786
0,0550204947053139
0,0595104885793921
0,057036480748797
0,0584017853290559
0,0581527437264463
0,0542111592069147
0,0641254388011174
0,0532247819407684
0,0697168030190003
0,0647205844688535
0,057436556280184
0,0649374428382745
0,0600814464837058
0,0581491336925354
0,0584845569516698
0,0610456794424773
0,0563016391583957
0,0673792413097692
0,0728338923356588
0,0581213486178907
0,0743256018118498
0,0642836729312103
0,0570754390084023
0,0650783300226746
0,0616868111636664
0,0733681635564867
0,0479990180733734
0,080618483297773
0,0735750719062729
0,0682059145409473
0,0808542665521666
0,0548982708991515
0,0695193297147687
0,0530802339810448
0,0697525330969076
0,0549373327096
0,093112703678554
0,0484400505072143
0,0808032174340073
0,0493419425211651
0,090529781564893
0,067135196005457
0,0749229616943634
0,0641784052577038
0,0704445056090943
0,0593608212430062
0,0840265324008253
0,0593361888204699
0,0693011864793047
0,0800011157059505
0,0866911495747342
0,0930677030669626
0,0662498765348178
0,0608019136445995
0,104331170534026
0,0596693373023257
0,0791590317377138
0,0586845049831328
0,0805727160770313
0,0608092374491939
0,0811829653125919
0,0927841852757754
0,0714873010828293
0,0731144562200194
0,0792941707239956
0,0621082888431156
0,100682023184245
0,0691011092054176
0,0854006252530986
0,0678250379314975
0,0878670306432265
0,0599294319476364
0,147106933487315
0,0657419560684534
0,105496523658017
0,0845847664905837
0,0973112618192755
0,0888562943734933
0,0940618148448645
0,0825679603715423
0,0968683374234973
0,0974252600211308
0,0937788617740469
0,0758881404157089
0,10789243007123
0,101470906546314
0,0861949245925424
0,101719406997662
0,0830612485062496
0,091690001872579
0,119612111824046
0,12492365067793
0,113345151175433
0,0961898104683152
0,0971881066053079
0,124861348182602
0,0957388609794869
0,103436470227883
0,0978899646961683
0,10280533160482
0,102512556182746
0,0975281755320358
0,11621737381013
0,100471356322041
0,114852017399506
0,104077085456643
0,114111613831996
0,109713480169523
0,145468036620839
0,142195568956342
0,106611297922491
0,161631600292369
0,125716919164343
0,129252907621204
0,114315668087184
0,121345679109521
0,132421501204451
0,122875084706121
0,127591833544037
0,115191563787671
0,158151028360265
0,130773096759898
0,141485870324395
0,145488768045628
0,133279503108467
0,148623720428384
0,107493944804483
0,352162287022042
0,138540326553978
0,18518261159304
0,146209219232128
0,185289845068402
0,214774369153199
0,17280316976857
0,172042171003752
0,178938449825218
0,174422963853346
0,189175762604376
0,194414588819395
0,198105128878169
0,210148942935032
0,212077695535634
0,200636521919725
0,243434599844082
0,262468532221277
0,281531513927455
0,248061366382842
0,232966975054317
0,259867239892479
0,271469528677138
0,255320291093403
0,278524298828163
0,260280912947959
0,273650087834516
0,329733657466687
0,2865872319164
0,306219668897832
0,292148034610904
0,358893792942553
0,279665381993632
0,408964717968946
0,332363438380891
0,360793177176834
0,339761397995473
0,358961771398283
0,358555929496894
0,349876427468063
0,402220175633612
0,389194861033489
0,384644347487865
0,388991181024559
0,385719393405299
0,397658865527085
0,397353638196826
0,411229213739735
0,386229311814883
0,481698586974068
0,392327703114434
0,656576266901062
0,427018810766471
0,434276680564659
0,411951560020745
0,415009306219885
0,466558840102867
0,417789216035545
0,477380358685784
0,448244530548605
0,423732841915421
0,432989395644091
0,417995333954859
0,436826782690456
0,413577719429932
0,443916076980987
0,403545233732455
0,480337399015522
0,403592041482362
0,472223123747541
0,48538918680057
0,441671942122224
0,430506590972173
0,427800909604572
0,41659177567609
0,431571767876982
0,410543976205298
0,419138838730532
0,446448885273579
0,401531266344353
0,426462197797892
0,386049618414711
0,445571630794356
0,430492357351156
0,398075924180093
0,403513565972478
0,383152541400748
0,401941335325669
0,367192106719494
0,410356240363238
0,445584976558839
0,377284601603318
0,378750487032206
0,366012363894344
0,370921021591597
0,367297376897332
0,36641957629235
0,363109774431625
0,368598400906874
0,349373079760541
0,361666338488122
0,353984040039755
0,353800737214014
0,346190264265614
0,363352646060009
0,349011694685132
0,345184881201365
0,345379315785385
0,346244383219385
0,347671173895669
0,344541814989127
0,346722525853327
0,339534219579372
0,343475966346263
0,348685033694552
0,334717021818856
0,346124331741321
0,340570107089896
0,342275925627454
0,336986483034459
0,339175741206793
0,336061210719336
0,336223864602544
0,340184429753605
0,332869461419429
0,335153777390041
0,331333530914844
0,336666918209791
0,329629761703561
0,332117511619757
0,323449364653753
0,337519470152631
0,305328958195655
0,422844458853972
0,340599711921012
0,322491513159817
0,322108644329071
0,312540949404124
0,328517060956009
0,302646084085374
0,37479999106506
0,326768766673467
0,31636719536116
0,316247759717299
0,302936983166493
0,321137196044612
0,316670172690251
0,291326973268184
0,320181206617736
0,281946208944816
0,375974093079788
0,328660040928872
0,362027485813645
0,352476265409734
0,311756988915234
0,294249596956328
0,296740950968912
0,340488153319399
0,281488859077125
0,311898573016082
0,270065604510714
0,347232930551006
0,300354995628744
0,290409141185927
0,296787624251478
0,281269791120012
0,307944292256662
0,313325769105841
0,284929666571782
0,304449174894012
0,314667758741309
0,28521535453579
0,343205560212272
0,310416698604892
0,299107550707842
0,26519120581122
0,278257975426662
0,271751938428714
0,254228067353322
0,338369930066122
0,259181484899743
0,2869283092907
0,254396468178521
0,256734085517605
0,257854268025392
0,267332314092109
0,268466824081937
0,245652345111672
0,307724686259925
0,226715622977715
0,280947618188362
0,24478995429615
0,284640020916662
0,279036916277691
0,255788590009293
0,229844763884827
0,276562401358003
0,282113423970648
0,234317998806927
0,258640412318176
0,226016067761797
0,229217226379723
0,258707273286098
0,220978887197743
0,256550673634612
0,238520437716794
0,240186861432318
0,274874212770868
0,25581858271192
0,269344242768833
0,22795247880951
0,215856665876554
0,225734066511439
0,212961058930886
0,238065561212942
0,20234382205387
0,268853093424989
0,227177457698466
0,207122955940995
0,2835517312907
0,223724632555931
0,225848283474501
0,231443491098673
0,225916687714729
0,231517567809237
0,241600815610604
0,264594930801881
0,245745165243101
0,246682036063243
0,27044533776025
0,235906417138011
0,256186064639271
0,244706775786104
0,264368009924346
0,250680741804358
0,279950969906758
0,264789176104768
0,278736712908969
0,277579993867444
0,27871672423347
0,291149206691855
0,332890925642518
0,273623557299592
0,366392361815977
0,29259565771288
0,394475715986279
0,330501304359639
0,337545471123398
0,33633949259505
0,339646575311896
0,349155297453117
0,349376341706821
0,352035473995068
0,405380159345426
0,348693789195205
0,389967149485892
0,363406782755588
0,393374605327158
0,366683612903222
0,431279903705627
0,375960860079885
0,448560691256919
0,433321319647413
0,416629465871885
0,414636929293723
0,396905174495653
0,419846396610774
0,417667400188893
0,409451501330997
0,419116148584422
0,40663780181457
0,447740838471688
0,415697093105074
0,428368426303504
0,420720685474682
0,428973793244336
0,421943096640062
0,431745189568657
0,430914199302347
0,434554966187804
0,432269370345761
0,448922303467603
0,420937267124938
0,529724906963368
0,444028159998842
0,456587383484497
0,449054400588904
0,462649755336368
0,459707072103861
0,457458972743195
0,481951488240965
0,474261668037602
0,466662337235251
0,482102489373894
0,471789471404612
0,489409785336672
0,475424865259337
0,525140678671336
0,474002431055962
0,522715094229171
0,475094978138912
0,52252565966404
0,545770606177343
0,508691835043085
0,531038576704227
0,500410464160241
0,514817163846354
0,506749369992969
0,516961373515442
0,510423953393139
0,521997952826182
0,512326062846708
0,525832752195843
0,522251527137314
0,520744756532566
0,523752385583251
0,513799155952891
0,544991658091818
0,513539753692141
0,520049080771027
0,514319049742168
0,520157321681551
0,508288592174563
0,547028628089031
0,529886654156026
0,512721010274484
0,518567557165517
0,510774201956012
0,52800640522331
0,527207939438762
0,504788173182674
0,51888812160692
0,504134328726134
0,517403877678204
0,510931257314747
0,515067383189389
0,547016103253421
0,525121122960804
0,530451089473109
0,515245751575607
0,529746382056811
0,532314602585017
0,538751578056405
0,528473512786691
0,538528249994482
0,532449748961721
0,544754117976803
0,538771017558958
0,546490759031853
0,560109556582271
0,557954058123019
0,562064202823913
0,535821559905237
0,544162790848256
0,541192053925278
0,545788913319174
0,554743088889466
0,543427939526636
0,540044559843066
0,532228959000169
0,536164744248178
0,51828220271101
0,555400632621753
0,512768955259522
0,532819983078228
0,51807318484442
0,510748280062698
0,512590653594535
0,503153055005647
0,507442109985084
0,50239760223878
0,504468849231519
0,495412427435255
0,501541918314321
0,497061459249448
0,498267816437474
0,491283512465505
0,497488328332693
0,493296132557969
0,485331153775053
0,48736515125713
0,487253449496669
0,491687679006212
0,481238183462941
0,484081356341204
0,474395951459088
0,495485676986161
0,491486721718405
0,500669622771719
0,491824616477881
0,483053293447936
0,492179098059006
0,476559782456913
0,487579154773269
0,477484198084866
0,487256989946045
0,479305622302793
0,483960877258111
0,481317130628741
0,482992629809328
0,47131694911313
0,480440259461569
0,477308588819965
0,478239807945237
0,473300918145829
0,475445971887733
0,467725178758906
0,473186428516762
0,467151438861326
0,477189955805456
0,472412184522853
0,467229963620931
0,476588039679177
0,460745559583886
0,468622967693206
0,465848453060563
0,471650417894357
0,466616720183375
0,4619644748772
0,465423604501264
0,461192360899963
0,463154384222908
0,462186982534063
0,461147824970446
0,460335791031939
0,465333978757416
0,461486270348688
0,457863354772254
0,449670334550827
0,451128657805482
0,447704497549796
0,445968972602469
0,442767698800068
0,441748812811083
0,43306257344225
0,431866770312291
0,429009274475562
0,425469365250234
0,422714951296163
0,42013542841718
0,41591652350224
0,409543426721948
0,409682088117098
0,410770983466991
0,405779349954275
0,403877708378861
0,405038180795431
0,404623613133539
0,40203424868222
0,400858510082864
0,403267509659211
0,401447599280645
0,397996079935744
0,399241513528159
0,401076556703397
0,400487885047747
0,403101832370127
0,405085239571044
0,40710628624402
0,406986198528952
0,406837950046111
0,404002430956685
0,408013414968934
0,410444863789427
0,41349871919708
0,412857865359304
0,413373040009193
0,416684791623518
0,414743632694777
0,41980857067729
0,422876858805376
0,419515952666936
0,42172506987225
0,419882098222876
0,422142439485669
0,423831741713571
0,418459929078113
0,423499372507134
0,424723138469247
0,421820275010146
0,423291339676983
0,42432788072813
0,418435135856357
0,422102467354722
0,41716724545539
0,418301139654393
0,415383173760002
0,414564497584314
0,409801098651538
0,41490643902742
0,413674621192885
0,411753914673031
0,410092144229815
0,408494954087322
0,407695828970647
0,407564633793051
0,404441533805916
0,402366536179796
0,401809675061765
0,400657336986039
0,40149274280728
0,399907958836455
0,391797602329946
0,39640454039344
0,392966791387762
0,39317986292515
0,38890780745794
0,390525982433677
0,387414537504534
0,387361567245117
0,385640758397819
0,384167864900627
0,380435774851446
0,378851923382236
0,376355978966317
0,3741040160034
0,36876595603232
0,369522171014189
0,369657889151936
0,362948654854737
0,359486304324458
0,357448867383692
0,355762975921444
0,357136230559711
0,353939497087953
0,350819892504424
0,3479977065993
0,344355882846788
0,346699541186578
0,343211384226373
0,342573104424966
0,34026981480496
0,341630204295352
0,342061299537244
0,341734082234212
0,340025076555708
0,336376369153462
0,336422599879366
0,333167317203183
0,332689521478519
0,330747621548512
0,326850412493243
0,322021062216471
0,320894318096985
0,317340292964342
0,312397818912534
0,308570587276894
0,301954861591311
0,298751644470826
0,296468099998381
0,289627729299924
0,290203291814913
0,289804925396166
0,288244255927484
0,291410599336507
0,293104360716645
0,295132555685994
0,30010628206778
0,305244680134768
0,314113221676457
0,32274495826654
0,332329768796933
0,345353174202759
0,357262391151576
0,365051925641847
0,382148702086138
0,395081677104089
0,409016941394881
0,422873909421861
0,43718927080743
0,451941197590492
0,466370266182476
0,484100666770689
0,502590340074225
0,517393512967423
0,532316648625338
0,55145458734156
0,566665515016011
0,583209995087047
0,599980534591203
0,614698704324388
0,63507192833508
0,650537694522261
0,663554918766354
0,67910126933969
0,688395743377267
0,694412956541475
0,710422991301717
0,719798079966884
0,726532261770386
0,72957557133979
0,736224983160943
0,736582752750747
0,732662634250449
0,735675836052737
0,735899667126716
0,737320863962391
0,737150131506266
0,73837719208617
0,730904424838537
0,73127729803019
0,731642446828156
0,725952177410703
0,725100559352732
0,725626671531432
0,722598553838417
0,725604292930167
0,72353164294492
0,728977725776285
0,731405073294564
0,730862417608407
0,737595928876142
0,742332068626445
0,750616760449597
0,75374532443701
0,764178828620583
0,769872327358793
0,7731072264731
0,790323916934518
0,79429004391929
0,812445181338978
0,820640164180036
0,827511168578312
0,840451955867198
0,846367620831348
0,846475893274082
0,85456111826747
0,861987509047404
0,866776272344697
0,875026829176256
0,874556239189088
0,872413355400722
0,865708593502643
0,869900269728789
0,866861863021593
0,862673733795924
0,872646962940831
0,872457892539253
0,870584573152617
0,87103612194339
0,876709439497827
0,887879341778942
0,890607077401725
0,912604565335108
0,915090140994344
0,924029894664481
0,928610641794618
0,942855764460056
0,954600698097665
0,95305110824107
0,970059125055163
0,983562947174672
1,00962551829606
1,00033810828522
1,01024178455091
1,02858733714829
1,04859481700528
1,06523809656891
1,09093409840971
1,10205998065179
1,10345144781113
1,13553057398497
1,16051279998547
1,19072719775729
1,21211188693903
1,23391753987
1,25503525906955
1,27535886840164
1,29127087107828
1,33304179984605
1,3433535576949
1,34092283539553
1,36533467526503
1,37338646777434
1,37330250829056
1,36585546547278
1,4190645582507
1,42839785249457
1,41780279165713
1,41200789271994
1,39421623877788
1,3582414681304
1,37846438577981
1,39378466758822
1,42961442237113
1,43007388840788
1,38847024281491
1,3902873649711
1,41650362829738
1,40322587098501
1,41622107948347
1,41612370672666
1,44951129066202
1,43980961018807
1,45542915276752
1,45208676467545
1,4705346074318
1,51070166529095
1,50999460525252
1,500739845433
1,52491313697737
1,55739920528068
1,58542449810822
1,58820381983315
1,62265068656017
1,63681333924371
1,69076794185212
1,6651986663539
1,69888104597808
1,70706432297361
1,7099944256264
1,6855894321651
1,77093421047576
1,67779308522067
1,72487722556693
1,78843387507694
1,76927274501504
1,8359963408541
1,86402873415415
1,80622182001475
1,84790764264568
1,87520983006386
1,9194074004639
1,89404357883344
1,93848537954869
1,93236897410062
1,97141841042152
1,90381142593002
1,8761569221624
2,02920697717883
1,95069019175833
2,01562420836736
2,02545353581316
1,94494496387877
2,02893443382232
1,89787897621071
1,97022564533058
2,0853737184088
1,94234085354621
1,84871270751003
1,85134181591959
1,82783844782613
1,74332468147466
1,72389185547759
1,67301115070548
1,67898171744913
1,64319224908468
1,59277106300794
1,60283510407097
1,54145346543999
1,52567673066008
1,4774675324097
1,51905782956594
1,49130046368512
1,47883673060484
1,4865550941127
1,45691554316418
1,41831146559824
1,37701695100781
1,36056042952549
1,40565369783615
1,37684320183906
1,36386257306551
1,30972615452769
1,30603750065997
1,27860619176925
1,2569735434837
1,20222939222381
1,1742813740102
1,15192487727834
1,09464229913891
1,0595837028264
1,01659703407685
0,982021881421742
0,954945154278348
0,89709877106152
0,858757231273193
0,824756047453944
0,780257762355433
0,740413434260921
0,71109412194184
0,684536989822475
0,655427891072556
0,617861530022771
0,588575308795461
0,565290716291653
0,543044308868551
0,518979817852357
0,511205216041958
0,490202300938732
0,474929121395807
0,466713248530979
0,454244234599078
0,444013939309132
0,438389857533703
0,433436501053383
0,429481837405639
0,417275359004849
0,415209854902285
0,416262221347243
0,416148582965456
0,409123365360438
0,408728128510681
0,410396026971126
0,409472247169239
0,412960192324957
0,417453115172669
0,417233719953244
0,422219262929822
0,423142185765138
0,42442975835495
0,425254943507971
0,426325708786355
0,426879767292082
0,42768802576293
0,426229089054585
0,425681808036156
0,424461943902106
0,423538177838182
0,423256877331862
0,422992675242268
0,421470544948561
0,425114947075193
0,418523750919882
0,421517075680003
0,418358088213488
0,422641392483346
0,425905235514796
0,424674395121463
0,424843019012238
0,428443894409682
0,432489675283341
0,431769845350467
0,431075598363932
0,430563778813379
0,432106985250119
0,438971623600026
0,436454151685398
0,436435672990549
0,440227093410576
0,446406761499281
0,436086073245676
0,43654016678648
0,435140374052137
0,430562945325641
0,430585783199963
0,437502747405719
0,433225291891424
0,432371209466053
0,430415473212497
0,43126504777704
0,433891192126784
0,438489199120132
0,439160095448359
0,443031138555378
0,450898446160505
0,452593578803209
0,460119345141364
0,48030057189948
0,480028487141276
0,495769476751711
0,508513598374391
0,516000379459018
0,517497598848811
0,529778844271889
0,538208907246145
0,537797265654414
0,538551617560588
0,535612587977729
0,534978239479171
0,532028080975785
0,521814087170694
0,512148668660656
0,497974413437791
0,496930142286803
0,488806376884673
0,477866341634597
0,47325924922604
0,479298721344398
0,471374485218239
0,468646936082785
0,485564255703567
0,484150269948512
0,475116795691169
0,47455568210745
0,479851900118434
0,481162338483585
0,4742219748449
0,478857021800789
0,473313424707943
0,473491288291061
0,466661988699641
0,457421516876839
0,45955691545519
0,462756295699247
0,448271485929337
0,452418711197104
0,456983627835362
0,459070456971408
0,450779770193885
0,447777387294387
0,437129367266506
0,446178122544678
0,454350378371526
0,440903630984684
0,442378761622635
0,442458974922468
0,42763792086129
0,437830336990955
0,439215427076682
0,441189448117528
0,432859489949178
0,433296993784754
0,432846726483355
0,426198583857078
0,430988886333112
0,434366318988154
0,41998891572452
0,429431216843994
0,422594453982207
0,409359780388641
0,416432148913466
0,42290501240012
0,417483364664424
0,407264175606893
0,40501022923231
0,404711265701313
0,400804260713192
0,389723685376763
0,388400374434017
0,39517308350397
0,393641131822038
0,391440819425429
0,386326572795135
0,3892193027728
0,381386535740381
0,385822553813167
0,388734302918074
0,390793405780682
0,375944926381695
0,379244422877376
0,388072436458871
0,385676821021822
0,387888123837482
0,394615567230367
0,394463002133661
0,386974752420785
0,383212645161804
0,395177152669197
0,391026173434359
0,394740233372189
0,399243183941593
0,400139756468281
0,395105965417396
0,412121470487181
0,413050621176755
0,400854240250101
0,415185421166038
0,427007430625525
0,418883589928348
0,420140138137156
0,430348944365786
0,44158486410007
0,429462085580318
0,44089878912217
0,447425535305243
0,455665690958168
0,474863773134423
0,476199541394206
0,481226240017189
0,501301116349883
0,512068078273354
0,523212023840968
0,527022157509937
0,543429594994772
0,55758323175037
0,555797125756469
0,580802806840928
0,608407197124001
0,606109714166752
0,619245219882611
0,617443397397692
0,638377705617509
0,65957794075218
0,647563195599036
0,638526362222239
0,669496176243695
0,661101013463172
0,645953880572475
0,639209423065831
0,650358599305468
0,638517742773591
0,644732885119415
0,66605153474315
0,661243652959466
0,66758195643701
0,651564295933084
0,636674562828291
0,654103020430272
0,64187380908884
0,642076082963706
0,630242616218043
0,670352127746838
0,647508676562282
0,622824619403592
0,632779318373428
0,641046518678316
0,639318643256753
0,606150251072881
0,619234941952741
0,622033821825102
0,611546102746792
0,601828699828055
0,606247358456911
0,60397777355291
0,61009988222143
0,624880160612486
0,560445498476962
0,574046539722151
0,611864081159538
0,577406528281206
0,598397970762745
0,615656374513139
0,57973770742337
0,588048227778694
0,595286284612376
0,576506101587148
0,576683968866245
0,587427579921337
0,640527488810655
0,598098263560347
0,577593326871347
0,586213938855242
0,591130772321915
0,673101687708654
0,603222390872506
0,57975978201142
0,612210001127913
0,574122459015819
0,618831880559329
0,636304284231083
0,594911928715302
0,613266051238426
0,633488371277507
0,663100580347134
0,672211745914436
0,640830255925038
0,69065186926889
0,619733603305845
0,617025259341853
0,682767864704277
0,633298937784226
0,644059199293444
0,654120105833229
0,734209706843261
0,721864746016447
0,695792338887589
0,689770021296433
0,758454356622657
0,806285178108339
0,755347315098805
0,741694112143428
0,761078152499727
0,743320991037623
0,742325110185422
0,776969409960139
0,772311738408697
0,795713361493982
0,766295611002272
0,854528685192398
0,807286626041465
0,849432783101563
0,838394227710002
0,851835110401528
0,86569697929396
0,853385931815168
0,826641006112525
0,757245645645456
0,817994644706082
0,857491807804807
0,772319443087897
0,738528598523286
0,755759943853053
0,736981480910998
0,791657127582981
0,910241727093622
0,747880540531646
0,736982015786877
0,788272312491658
0,760573095766683
0,684941487050957
0,785018343744523
0,715460190785623
0,713727395214784
0,772298476790379
0,775702920267559
0,702380355157158
0,663122268918887
0,756321649014605
0,828578778806103
0,755978218210691
1,08224860506971
1,10107695048517
0,751186238492495
0,781756528152329
0,753159305862783
0,780436638863252
0,783252248448947
0,7987332384123
0,789927330509921
0,792640740233436
0,690284421357376
0,813817680325514
0,813127301123444
0,716277554288795
0,833964665479691
0,85607025045225
0,866934748880361
0,587921435439636
0,97579809055676
1,00689750448891
1,02342710501387
1,305649024046
0,599947628207333
0,529314312735622
1,09811076599683
1,36536188792166
0,721209936004392
