3596
4000,36533379555
650,420452594757
1
2
2
0,0506711981911741
0,0311959685797038
0,0411067608958282
0,032846607505544
0,0369843281103666
0,0340809341941661
0,0495643196678825
0,0389980331470679
0,0442543803827932
0,0301864139150188
0,0533960663867554
0,0381669683713423
0,0440764169321686
0,0332284968076215
0,0452448285144585
0,0389696597479367
0,0438439194261094
0,033491095523724
0,0503573424811153
0,0319598105595997
0,0428355161202283
0,0338864217911713
0,0453163430752182
0,0314651439316109
0,0527626150263579
0,0355248107863843
0,0473724677225775
0,0364338165926731
0,0455891190440702
0,0438630846310969
0,0439922789099741
0,0278750590362947
0,0430362217710738
0,0405507045518006
0,0458692646025396
0,030552688166539
0,0373073869643573
0,0308717012004794
0,0446973400750786
0,0296384933613242
0,0508505227578367
0,0338857575313127
0,0417828077986301
0,0362548287471249
0,044820566681777
0,0410336121592406
0,0464084370393946
0,0371752563737185
0,0488699529218105
0,0343200368404364
0,0439105561664058
0,0317119391733782
0,0437834313491208
0,0425375334804815
0,0415044628727602
0,0307639495025794
0,0499504744393362
0,0431667099201113
0,0411255028956189
0,0371326135225332
0,0553704064966036
0,0408951979984814
0,041947556545748
0,0296949123276212
0,0431661659938784
0,0311397257736299
0,0455047638866707
0,0271748631845565
0,0413245264211952
0,0314483628406199
0,0449565835746084
0,033447968762186
0,0569001644371952
0,0403301773586739
0,0537747750756734
0,0314280729064039
0,0449825282469548
0,0277261798821536
0,0468429096733308
0,0431326455749237
0,0627034214501271
0,0376978212488164
0,0508328555422225
0,0303478917899772
0,0512913929266089
0,0348743613089668
0,0464977169140617
0,0237944357670292
0,0536524394557741
0,0376512489093767
0,0418140747305475
0,0256680782574463
0,0447974747564373
0,0295813700398965
0,0445396726939063
0,0299491403134661
0,045241831645762
0,0282440334009602
0,0451949108406052
0,0289099138275255
0,051031977857189
0,0285723264877442
0,0608343599130865
0,0470445687770403
0,0561369730805663
0,055315048310115
0,0472729455251182
0,0582797224664206
0,0610147958084335
0,0304736700383131
0,0450017664664733
0,0350625280791347
0,0447131242711807
0,0227051476117434
0,0518016366825333
0,036936650082638
0,0681611809993492
0,0316554938852292
0,0439307552842839
0,0248644528714461
0,0407178966608571
0,0326002413091705
0,0745162198039829
0,0330484327805621
0,0496291109986284
0,0265112240518016
0,0428497527966854
0,0469493322642754
0,0705928114262154
0,0300799133739331
0,0414356625935025
0,0262537462376285
0,0338623835067108
0,0327948042425008
0,0645083007319115
0,0408592416028632
0,0441080247554728
0,0286652180997204
0,0550994745360428
0,068600868405368
0,0470960719863309
0,0263187496923929
0,0414249348765375
0,0242043178810496
0,0711263418213176
0,0430387248257071
0,0404288207078202
0,0361305102360638
0,0516168676700128
0,0272728701405014
0,0408135977059959
0,0332440179182098
0,0527403626064447
0,0399675779784764
0,0327938074550761
-0,00493772904024425
0,092294365142983
0,0476581713231325
0,070381638585898
0,0484928394923719
0,0403542709381919
0,0382066443879921
0,0340898821494761
0,0387736920211027
0,0348030887190299
0,0238443846622721
0,0442895940768651
0,0470968303357034
0,0380646100669819
0,0306302565263073
0,0725784086729177
0,0390126962688679
0,0507209728420709
0,0457913874690379
0,0598422351927004
0,0067838389102444
0,0539600405545342
0,0402200923126801
0,0356240111884215
0,0287145844287712
0,0569016741314227
0,0398802773031822
0,0371748802593826
0,0296378470868279
0,0360536020089065
0,0375616121407568
0,046762143922463
0,0265093837105886
0,0396205096991725
0,0259790388298113
0,0420586145342866
0,0614878480961879
0,0736897213088154
0,0423808713292867
0,0371491706141524
0,0275683530266071
0,0541851568392544
0,0644595297976361
0,0384979979865748
0,0288020306763258
0,0459144181461514
0,0279508355148515
0,0331119891976778
0,0269545794877777
0,0376602885136322
0,0326156166912924
0,0586650642298251
0,0497254929636184
0,0314539171101736
0,0317356447319205
0,0384364953802185
0,0374160142373099
0,0578502880990237
0,057736948766409
0,0452238638142579
0,0318230159140854
0,0437602581905989
0,0318320614224766
0,051428278121655
0,0300757984031604
0,0436385918634296
0,0295948857283626
0,0377934316029922
0,0266972567751322
0,0355772233598036
0,0323166464796025
0,0418183086331644
0,027766870018269
0,0369589175481752
0,0305557337622873
0,0482619278256965
0,0335063617186337
0,037058547122596
0,0309729263168116
0,0336868366043794
0,0285099795850333
0,0492708408757973
0,0385916408857916
0,0355516862579041
0,0305099836751563
0,0337698619424996
0,0347717909020735
0,0384688639403594
0,0318822765512061
0,0389365492118027
0,0388488680249408
0,0614723465093199
0,0470805720729803
0,0256064986387579
0,0351553780672804
0,041958243966877
0,0457793807174583
0,0312299988227673
0,0334421864573746
0,0321470838220501
0,0363536275315243
0,0348647015066522
0,044170150867975
0,0449396706178117
0,0359306969445367
0,044992311148503
0,037458510652813
0,0398750750578326
0,0425981120196444
0,0461722590013525
0,0598313617999842
0,0639431786247404
0,0222949028368908
0,0801129907493856
0,050970159252615
0,0485879842715673
0,0352564035437907
0,025456850321828
0,0662204864578287
0,0769481416480862
0,0352985603592359
0,0517587684724966
0,0487901626626989
0,0425391884520437
0,0245693912648246
0,0465459611761304
0,0363260276598782
0,0564497125568625
0,0680358250578845
0,0651864311951595
0,0449121231710186
0,0500230711565169
0,0568497109733153
0,0446353292529394
0,0379078170528448
0,0355455662327058
0,0317756796709688
0,0496483002470926
0,0475542989139207
0,054392755666959
0,0413769345228108
0,0394951611699393
0,0451473562712428
0,0496747015783747
0,0315161094548632
0,0453529372633875
0,0363202935860524
0,0419680557685627
0,0294981986895026
0,0489102206059096
0,0331852863615801
0,0410262762727384
0,0286410418105227
0,0603720508548506
0,0462335229192997
0,0500160862416968
0,0430913140415668
0,052724783884785
0,035125052824072
0,0429754797224326
0,0270339519176133
0,0435296950892362
0,0267572555303571
0,0548243000096843
0,0454082352148609
0,0534701685748779
0,03294246419608
0,0422858596014116
0,0288896913640171
0,0421926124517985
0,0360842240809695
0,044582388420328
0,0344397401912411
0,0454459507099719
0,030875901856968
0,0608171930401289
0,0438220181568809
0,0492879397060301
0,0308999457574424
0,0757707601026986
0,0413614231347505
0,0462491953581388
0,0321324438908086
0,0451719347629428
0,042102342277943
0,043948228343858
0,0343959820425698
0,0478342778027344
0,0458504510070084
0,0514577662002285
0,0395073570703323
0,0548072577032021
0,0776593712578967
0,0925569483433571
0,0550306374238923
0,0450317765291422
0,0345538483030045
0,0588761350626575
0,056523792809372
0,0769432845901404
0,0559314357192529
0,0647242047443733
0,0402597139379442
0,0605874271128759
0,0367449542411182
0,0552822351596586
0,0426650267426286
0,0573601420641142
0,0408341850519915
0,056337462735944
0,0400034269681365
0,0529325069596727
0,0466579016274015
0,0844972683391702
0,0574891421869039
0,0634237128386316
0,0477702481832273
0,0667486399424314
0,0626292217151633
0,0848164093144588
0,0707792303599243
0,0940745504471119
0,0790984786579098
0,0891445628072027
0,0763513783073099
0,0660369245379983
0,0592599288789008
0,0676406948005905
0,0628997152221232
0,0710858383941153
0,0589332590090352
0,0724848125375935
0,068516113729957
0,0729720724388919
0,0648336663787867
0,0725342603686851
0,0792044050764924
0,0896990778539494
0,075603190313259
0,0819823639710627
0,0696851766373997
0,10222567634603
0,108247308358458
0,108049333371038
0,0830076999857073
0,0887133764006242
0,0774705602275906
0,0892847987945196
0,0848731832859746
0,0999756209048293
0,0823117839008986
0,10653428223555
0,0873016120594428
0,118918774130018
0,0966521665073478
0,11055748649551
0,0997081412119797
0,107590720758228
0,1092813485993
0,109357283433858
0,107397977022363
0,120004440948482
0,0934981184889577
0,126757389237933
0,107786750596462
0,140733393620499
0,101607838853199
0,126901011580217
0,0944323984009611
0,121455585150601
0,106480186070461
0,130614473706591
0,12209143755871
0,13558720469036
0,119415242913238
0,136451145656128
0,116825631379027
0,145697347459714
0,138730495718124
0,145303747747434
0,12730204922054
0,145853204622483
0,129611245395397
0,144133959637304
0,135578424530442
0,178663223044297
0,137786655486176
0,172769829111095
0,141123371439179
0,166801582617548
0,149365689912728
0,167794256235177
0,148074298839342
0,172618137017119
0,15381745935234
0,167460025330469
0,156033453317671
0,179894514661471
0,162198534171226
0,178384148541207
0,177378975760997
0,178885743505666
0,164350442276425
0,186126925483409
0,184348515675409
0,179097287685846
0,195248997492699
0,232919665852483
0,203612206593479
0,244645022092526
0,182129205321351
0,212101863946929
0,181680138540388
0,227265630985797
0,189923084513386
0,22039644966757
0,203890047351062
0,224814137422712
0,202164118869022
0,226416980652037
0,20314614273133
0,220554857551382
0,220717878493809
0,241571273408193
0,214992153630411
0,260954448517918
0,225970089961807
0,263475166581215
0,242477060777659
0,256346195646211
0,236164920296732
0,255320443458291
0,234295019249435
0,291210781401126
0,249454595095334
0,271013733576985
0,252940999931211
0,281066180393265
0,26108431818986
0,279291154749274
0,264100866996389
0,292192230242689
0,262994487501908
0,286739943627339
0,280163373212406
0,293958691696166
0,276580855308184
0,302589841264635
0,291489320063338
0,321437942114545
0,282412795566067
0,32734921552144
0,295843441551649
0,31937167132283
0,284448221523445
0,336530117671498
0,306453417923389
0,325560834261581
0,323936585110437
0,340873807586814
0,299403882700773
0,334981833524189
0,327187478067932
0,34830497735966
0,33852981130147
0,35421845282094
0,328637830367939
0,379678346662615
0,342702498267673
0,372018207075472
0,35029309660815
0,367417955337182
0,347455370787506
0,369177526033318
0,348567458890901
0,384975343405214
0,370004571183872
0,377164774432317
0,371671991030296
0,394793766292529
0,374219541049172
0,411733750557078
0,381230724637833
0,42282060261495
0,392234463186106
0,419736713158062
0,390787728386929
0,423516991915133
0,405593174341781
0,418152491886234
0,397529456384447
0,435885075443597
0,409934217430752
0,449105891858734
0,434598041574294
0,458514379613143
0,42314447169353
0,449833779605829
0,411519170419319
0,470405757215517
0,419906077952684
0,443000002933723
0,433833736689233
0,480956181067884
0,448289123295495
0,481892680601759
0,462064721384772
0,495561246580626
0,460886562309599
0,487193333451687
0,466231053312047
0,483403866772156
0,455843331741589
0,495779583316743
0,465611892911731
0,512951083940063
0,46780262330673
0,51687510346036
0,504057912789501
0,519266767655213
0,4965777821264
0,536951847746936
0,493067819607252
0,537007016313212
0,501718412123915
0,532897351328912
0,511377685350793
0,532331815177622
0,509974561655604
0,521169110894846
0,508235952473561
0,561655541584052
0,513419904626675
0,544029034438233
0,533433654761661
0,563778477707151
0,525256073527043
0,570570191283954
0,552816587749854
0,592909348869672
0,534771638826488
0,550629907092125
0,531567786747033
0,597298027498074
0,532844091029725
0,609688133344563
0,56067371560624
0,599026937494159
0,545999287422447
0,590939960373515
0,573429057134611
0,601142093165679
0,589583002379374
0,585621026382296
0,563856154911952
0,599149325059574
0,583359397219253
0,612495350709817
0,592734665013101
0,629382666692384
0,618770189796677
0,649538602715856
0,591463100349382
0,618655822466645
0,595239685522471
0,652699532207673
0,595805801253852
0,626657953322304
0,618373620718343
0,647241750117053
0,609453130733733
0,652775517570952
0,617704272582672
0,682450795572656
0,600617403505092
0,662069170638052
0,611969130603314
0,668625796377437
0,61371797319004
0,667010056881749
0,631812584429178
0,676390393321073
0,635473737633648
0,670473106035843
0,642979731680993
0,66865534589373
0,644578979552835
0,681624570619233
0,639683762316258
0,686902912028285
0,659851737881966
0,689910473599454
0,654180848497206
0,703479741013144
0,641452114825158
0,672404163672894
0,678055529902274
0,702540224027964
0,658562795022601
0,710178681654821
0,70620935614717
0,736012299879637
0,675492319707636
0,697222324570021
0,678138524523853
0,70887175461269
0,668140193930809
0,719478542337408
0,665272850678869
0,710837364558585
0,658362003847859
0,7101083847525
0,69867394960952
0,738151038211153
0,704426708751326
0,765261291689604
0,697329711284
0,736617356592669
0,688511141122805
0,729925162748506
0,679153690940718
0,726377879300385
0,696506058592431
0,727827972922967
0,71226038376746
0,742417796885185
0,735322949224167
0,723683797073265
0,701694862498346
0,759431081361782
0,708477764013068
0,750756723124663
0,721958059830117
0,743691653259065
0,714158209594329
0,730520311548917
0,703361847604087
0,776648097116541
0,729705286481611
0,763312814155506
0,714253696262886
0,733566738637745
0,718882692942182
0,763409394545537
0,717383411039936
0,751783595456871
0,701767969529935
0,760535966391949
0,737796567575541
0,752168499166185
0,687363725513664
0,76040303332554
0,738007069774847
0,750889219939171
0,721216213966667
0,755075634239775
0,746920553893804
0,774045010788107
0,742774031273842
0,769302980392388
0,706800028745489
0,764564499142916
0,729301691158928
0,755936985543959
0,725874382246026
0,767378767699007
0,751139940252743
0,743163755395435
0,738915257055942
0,786031241001396
0,716545190161367
0,765945747379524
0,721936578069195
0,773395588443692
0,70863375334499
0,767116242581109
0,744259075236326
0,776638000057401
0,750499176230297
0,751616132196036
0,752410693753619
0,774564601577516
0,739001631459097
0,752897344621355
0,715591113237046
0,728744337278674
0,733331077512438
0,76582872024641
0,736557943048475
0,739377416369
0,72465920329151
0,775206515353779
0,733047648862126
0,753551107701591
0,743491666765679
0,759063919798226
0,731798138420721
0,774583924093592
0,720218332235043
0,738064659792085
0,730836196024205
0,750154500387844
0,726871652201804
0,757076653376422
0,742044886306053
0,768038991431447
0,706034157442708
0,746787226528827
0,723062943079792
0,759214400129316
0,725392136114619
0,756487751429323
0,729540970695982
0,747810662498113
0,725059671680614
0,751749885977029
0,701796892537229
0,761003512265851
0,714211610840755
0,733502615638568
0,724884854991901
0,735845152211454
0,711788726397963
0,748354188780457
0,7193825657929
0,744415182135206
0,697151618975752
0,710372852972328
0,728064989964376
0,722303056245892
0,717345601568827
0,749048890336974
0,722051976483286
0,750013023550632
0,693251201652427
0,729380549553639
0,689326702805156
0,717142603293388
0,69354570016764
0,725424028658699
0,718127551739731
0,712955810696508
0,686352530938443
0,712457208660454
0,710836102591503
0,733418268871977
0,67938351093407
0,703450230401899
0,664469923601952
0,712811231698497
0,667587271132024
0,693021178473525
0,671402754923275
0,709757125161454
0,665240184705567
0,697352157648083
0,662890268136534
0,709979375357536
0,670551013835609
0,693278662906454
0,647069707485911
0,684255545610345
0,664711218864576
0,686956391404509
0,660466285884762
0,68790928564586
0,655264191111207
0,683451349327578
0,66146417730995
0,661262598106567
0,653743426944597
0,65220012318274
0,645922565027573
0,661423632356957
0,643071307224517
0,662446482269063
0,643592576662767
0,665078693736572
0,629077876524429
0,678497610080881
0,627456453171996
0,652459300148049
0,630665898717523
0,649367194752283
0,624511353772429
0,637957984414863
0,623473701071964
0,634103369213957
0,631060634174936
0,628600934898733
0,616453392243852
0,621356767411978
0,582703203806608
0,624296223611419
0,58876506441006
0,622047655055205
0,602663449270277
0,616289025052269
0,596834032506329
0,610372423949776
0,588349578813799
0,613389559645705
0,602322319341363
0,593719314743163
0,574900218195705
0,580293599236637
0,584612878884712
0,59127520368729
0,566036463473993
0,585920767252339
0,562951007667721
0,579391582643044
0,556476484623377
0,591290216890793
0,551736219968954
0,570936493822897
0,552736681747668
0,558328757235297
0,541307128705412
0,565748722480349
0,538747136555319
0,558207920434262
0,53430536331045
0,553019482923848
0,526051465219239
0,553381167870035
0,521792893298485
0,538889589161609
0,527723379355888
0,541780351406416
0,524198766809023
0,541940816458055
0,504905514706816
0,517374909584503
0,501259975501
0,529513739770052
0,499814237252163
0,518846197882506
0,506066254218734
0,515084971782894
0,496798089502658
0,511265055368334
0,490101777747713
0,503954110115821
0,483180076853457
0,497505501745099
0,472901710936447
0,502831399692378
0,483132354584418
0,487912779416077
0,46329624769555
0,484615042969545
0,459868313906306
0,482855810249098
0,464733425445127
0,474464125567971
0,451054218576138
0,467061974940342
0,44441677579435
0,464094591130939
0,44722431972918
0,462866411963645
0,446994805918864
0,449080517714762
0,434451228701867
0,448805575687976
0,425868418217854
0,445542371282664
0,432124766406963
0,437805991645164
0,421796212436371
0,437135642296646
0,419716896795468
0,43636822191792
0,419030721268096
0,426260640003589
0,407859549116914
0,41747128051258
0,40310429395311
0,415652265304548
0,400322341574418
0,420357444829357
0,389946698741677
0,402576615653214
0,390342633506926
0,403404347970906
0,380805157041988
0,402663642016938
0,387078394615118
0,400686264172482
0,383131569644425
0,388170385240888
0,372736905082617
0,386407274888158
0,377483455988655
0,38621805288737
0,36827698604959
0,380261385149561
0,367287540360889
0,370220541851998
0,356830512116826
0,363846919301696
0,35541396441852
0,358761252321383
0,35643659753055
0,355073467969059
0,345097007048851
0,356357515092619
0,345640218122114
0,348423476460432
0,339073507445908
0,344022738469348
0,341460512393826
0,341190309603266
0,330166944872948
0,338531754061149
0,324230076853163
0,33216166226437
0,322040669845938
0,339506794180309
0,328211109627773
0,333964143786468
0,315576266056492
0,327750605143357
0,312262502316351
0,32200169334811
0,306493187885422
0,319355776008557
0,301737319634742
0,315138168554751
0,311443077254627
0,309330335257885
0,300406265570695
0,306467978506193
0,299922080226992
0,301133295255589
0,289827279685453
0,300391952796763
0,293900183456025
0,296567154119656
0,289005956967755
0,299207387786532
0,286161494898453
0,289028343895736
0,280202253312741
0,293716833270246
0,281299561722843
0,283839757937136
0,277961552481063
0,282358452348006
0,276426554482274
0,276514630991131
0,268601912953853
0,278822294088073
0,263121055239106
0,27385776232708
0,261496307460971
0,266490379685227
0,255078705128614
0,264384367975581
0,254579978586276
0,26518449951319
0,257006274971941
0,264843478696933
0,250492232348575
0,255605957018496
0,246166368300145
0,252839431987763
0,244091013955026
0,252144984821371
0,240501632097538
0,245642156022816
0,234695497954074
0,25266022666129
0,237532476193097
0,235811996998967
0,235723451676094
0,23889440103202
0,232238913472663
0,23294101672152
0,228835802785185
0,235449828907431
0,233965207967041
0,235235728780186
0,224643769933482
0,231077420443049
0,217324994243377
0,228811208243062
0,216560780763921
0,223465458752909
0,212676296726626
0,218422207003503
0,210971353278039
0,218145117578036
0,213884480564024
0,218066776153336
0,203206611012096
0,215942414363441
0,206386113720868
0,215278240041136
0,207542201628071
0,212647732154851
0,205989522294692
0,207692559749307
0,204081241583222
0,210211634165208
0,199534682250473
0,207481940786583
0,192248206207687
0,211685958047247
0,19765171503441
0,205006243379114
0,193735422183864
0,202995047775798
0,197068444416701
0,203587636319726
0,194190118422068
0,199598521190043
0,18946364557755
0,202713544886707
0,197822949828928
0,200201373037396
0,188333614260976
0,202196453904685
0,193984697742124
0,201615177124732
0,195817260909781
0,20268264985946
0,200230541492937
0,203643099673325
0,195489586070779
0,205286319409078
0,197351522653488
0,209321333915742
0,19767675908072
0,207579239278192
0,202237540491221
0,20519002836849
0,205161088542498
0,209634989254927
0,200727836692117
0,215214937490053
0,210919922773102
0,220114997999617
0,206034418714656
0,218867663205658
0,212052835522341
0,22481759111828
0,217178355210538
0,220577145953967
0,219769223625232
0,227904317406067
0,219199273371531
0,237250003105958
0,229686085475209
0,233433509291391
0,227435847940666
0,235353522306814
0,230618249270093
0,24568509213799
0,236663165726605
0,243914514335871
0,236175381896703
0,251317604963615
0,241460873605423
0,252362131942662
0,243779063827402
0,25737860875147
0,25249898086046
0,263082096501761
0,251528939182803
0,260724098011302
0,256498195388654
0,266767282292154
0,263324953412355
0,282571225227517
0,26600719195355
0,278947484396237
0,278150298990273
0,28678849886239
0,276777933954399
0,286220667777379
0,287515987485893
0,303351894779431
0,287941419760029
0,296675556026769
0,297472881768835
0,302328330971182
0,299683696053563
0,303320133352978
0,300549908357402
0,31588816334992
0,309228702912252
0,314501877280465
0,303930261888681
0,311396401982481
0,317425478848766
0,312931947953513
0,307706180964992
0,318273983285844
0,301360258944557
0,31831882694983
0,313745984421288
0,311711606598048
0,303251907797313
0,311850695688359
0,307285021091695
0,311418801557252
0,304757896968943
0,306225246160417
0,298609572103282
0,30306271463016
0,293269003947928
0,307990636824972
0,301215318005756
0,29883368149163
0,291285692718337
0,30195630636485
0,295629202238909
0,302121670764336
0,290798228828094
0,301305774053649
0,292520609776297
0,297049609085573
0,294302392260951
0,304359172449336
0,293767885633069
0,297679989848507
0,29496709096107
0,298542395111665
0,288308516957039
0,295126769528343
0,289370693144849
0,301475619077971
0,289461494795714
0,302937980301072
0,290411705640345
0,297129283444371
0,286421292331836
0,294946225923685
0,282172074532647
0,289428615001292
0,286561651641935
0,291731405138769
0,283826967975134
0,292159014094872
0,28158834377525
0,282230166828205
0,276614604684271
0,284439284111966
0,278770446358252
0,275717202309987
0,272989967435608
0,279145968874725
0,275830413844316
0,274781260134731
0,264274819161479
0,27304432309124
0,261424567845703
0,264918574773867
0,259950354881394
0,26603447362272
0,257853903453011
0,257950626535525
0,24568124520868
0,255072136264155
0,246259359922402
0,246990916811163
0,233534727290641
0,240543736563641
0,239621093756346
0,241749669830733
0,235440515760547
0,237792609687277
0,235939254136751
0,242057785024145
0,226619238658754
0,229934008400253
0,219185521652722
0,226125230842908
0,217932595853502
0,221215458052424
0,219150398985992
0,221907580756338
0,20839160583723
0,211515731249329
0,206898670831377
0,215696493422754
0,20463182220115
0,208478601991545
0,200329570294382
0,201033761475772
0,193708865478899
0,196112591235265
0,196655553817346
0,197561928744651
0,193777096913449
0,199453620748848
0,187274466678934
0,194398703096529
0,187667106243411
0,18921327173037
0,184513904189358
0,18369319910749
0,182631397625305
0,18515177371319
0,179866679774566
0,184250319105202
0,180071544062972
0,186518016645776
0,176904033616275
0,179180316633134
0,175843847426069
0,178792306300157
0,168070772181445
0,173037287949056
0,16945642191304
0,178694916580284
0,167064856778766
0,173799919972598
0,165231620695825
0,170144502502124
0,164083306021468
0,171354061014081
0,167827672487337
0,172393200822882
0,162205073565039
0,163582622546166
0,160371405294929
0,165449299018282
0,156729360208729
0,164226280451923
0,15840822356679
0,165422342885032
0,156017988169805
0,159732971616077
0,153404059930104
0,160135752087199
0,152363677358464
0,155874708860982
0,152732447362972
0,154816620167516
0,151235551137667
0,157278161329683
0,149518438943745
0,152926128691701
0,147572135398667
0,151310854020605
0,147643947101575
0,151698116900259
0,146857079177923
0,150832248399327
0,14364567195625
0,150667790058958
0,143199068282321
0,151954851825569
0,143385786224577
0,147841074932857
0,142865116019106
0,144283161019827
0,140486056153097
0,145379771443997
0,138322826211432
0,144271162407331
0,142616981047277
0,148777039767059
0,135454057898481
0,141025558558637
0,137831329475339
0,140534092299172
0,136272898465065
0,140247365940915
0,135875438552735
0,140918098907357
0,135795867083098
0,140442537939407
0,134557611595108
0,140616574859989
0,136744949841791
0,139001413253112
0,13343374440352
0,140518166128566
0,131561709363774
0,134157095489146
0,132254505193219
0,139558550753395
0,135720140664941
0,133195172434477
0,129774971116098
0,134311799578221
0,132959713701041
0,135364596108859
0,132731804391385
0,132972636573047
0,128252644928027
0,133657093412475
0,126778732930309
0,132915887562959
0,129689833072012
0,130210331570889
0,127119244676589
0,129536849911978
0,127524588245897
0,131891163621124
0,127650492253395
0,130129010220309
0,127119714251702
0,12504101719936
0,125447034711049
0,130774074421589
0,125048707241464
0,130228546421828
0,122733606841307
0,126573040282136
0,127112782205454
0,129724773060417
0,122937807418957
0,128586855355258
0,126099316342127
0,127628940563086
0,125139464903561
0,127447339470069
0,121702046898601
0,125496528350171
0,122510905896448
0,126141236853944
0,121799283760827
0,122621365726514
0,122132435422286
0,123010537158241
0,116269026436019
0,122914733340949
0,118980048101957
0,121037553012984
0,117255633730298
0,120546157026635
0,116798654088523
0,122319545417336
0,119225544775263
0,123504540517362
0,117178033532169
0,117927804731974
0,118078057926895
0,117565627091705
0,113049917734566
0,11969736764258
0,114469226246935
0,12129423740375
0,113924206884803
0,115707541916208
0,106798691921284
0,113499665168264
0,112178175353053
0,114763896816784
0,10914782757075
0,11586539746152
0,109896166278467
0,114229364485902
0,109929367353965
0,114831085608109
0,109358037030783
0,109937230734381
0,107001163609576
0,109906307850257
0,108860758554594
0,110024279836336
0,1065770918949
0,111109085447933
0,105283561684114
0,109610240952044
0,103984758824999
0,104144912582851
0,105079256336449
0,107886636772869
0,103302775417054
0,108850964757192
0,103532343207964
0,106112025005506
0,10129414418108
0,103690750204736
0,10186563546313
0,10477613422632
0,0992231474968276
0,101339268926715
0,100935210630222
0,100372897576225
0,0963751182035059
0,103544302621394
0,0972475041044401
0,101156800706648
0,0979252856203587
0,100285754119112
0,0941338284854371
0,0984496353679278
0,094001250677693
0,0930374572168036
0,0959619791238705
0,0988303732868864
0,0918469983641722
0,0944955850819777
0,093768166389728
0,0945872059244531
0,0921996796088904
0,095774471346096
0,0910257454938507
0,0922815959666476
0,0877983272399256
0,0910664580892033
0,0907199479173863
0,0910805891658301
0,0869607896297774
0,0877856789166636
0,0829544100546432
0,0907348616809764
0,0877957831528585
0,0893476324325033
0,0869483783877478
0,0884175148854674
0,0856345612425757
0,0899400616617015
0,0829150300180388
0,0856442012904909
0,0847846030354985
0,084289363958215
0,0819840303879387
0,0865301087203753
0,0807655892064217
0,0837530944143871
0,0830512427292528
0,0841433467318314
0,081002287951564
0,0815741072581439
0,0810778929006992
0,0845447237985187
0,0779189347108898
0,0800225949959005
0,0778166909911291
0,0810778639065571
0,0794002171198493
0,0807694055456692
0,0785456991360303
0,079469871064805
0,0753495635888085
0,0797760046199819
0,0771153414082756
0,0765323009107381
0,077965553747995
0,0778658803766968
0,0739927701319807
0,0783402987948777
0,0747373816636
0,0761716722521722
0,0749917365331835
0,0764534839437925
0,0725883032241547
0,0753988596796077
0,0723990258923752
0,0754922921300592
0,0724436508648939
0,0730141390476811
0,073304251350965
0,0745239545050407
0,071321757425675
0,0747295026131497
0,0707143239790849
0,0731257942031633
0,0719680120682058
0,0717437650941227
0,0686924571145787
0,0738009534054946
0,0724346484264946
0,072091676427272
0,0684220260828096
0,0698491278070645
0,0687983043072972
0,0727604690451604
0,0723019239548549
0,0716390327839928
0,0695515817512957
0,0735223589781808
0,070475153158912
0,0721763788028477
0,0691414495011712
0,0682068660864275
0,0686497708979523
0,0707238067862633
0,0660598169157756
0,0706459829869693
0,0692326794021303
0,0678172455563455
0,0648157922012347
0,0689168007475059
0,0635416394150665
0,0674615909624153
0,0679722896059995
0,0685450658968727
0,0651297615022634
0,0678808735911006
0,0643646800373001
0,0668580692428156
0,0657510890328853
0,0699866448622512
0,0652857913756908
0,068050151763281
0,0646995065391113
0,0667743511437329
0,0675462566380889
0,0680701343110545
0,0629102740813356
0,0661131300972357
0,0643170822500594
0,0648513581764979
0,0621492576095096
0,0668065515839984
0,0662966836553653
0,0641185133110779
0,0623741359998782
0,0655397162403689
0,0605567874144702
0,0633026936059105
0,0618069723094786
0,0640571892756525
0,0612273637799529
0,0639502401215952
0,062021892723815
0,0648978474106589
0,0621316706867836
0,0628844423454511
0,0597085467675486
0,0614269934262951
0,0612152157063072
0,0637104844047553
0,0604268457045942
0,0628361858600588
0,0601322123348045
0,0601586183350735
0,0579252280187501
0,0605026660460574
0,0573047643945049
0,0614518483716766
0,0600158411227583
0,0589036944051734
0,0580598668363766
0,0611078177006874
0,0577532257268612
0,0604785902902683
0,0583498544022965
0,0596362880949456
0,056816443467323
0,0581091572219732
0,0552220595823817
0,0580662960256996
0,0564643697888547
0,0587451437729149
0,0575339471764281
0,0582846510007345
0,0551213771280982
0,0573090091227663
0,0567641388717464
0,0603058311622313
0,0570382764768212
0,0578315302487797
0,0573637157462012
0,0577664533307233
0,0550865103978624
0,0585910476300673
0,0558668530922544
0,0565736475768979
0,0537941877563456
0,0582513795509826
0,0543603660932474
0,0563423143553132
0,0534714736547532
0,055106448280491
0,0536420646712291
0,0537554154923599
0,053671907637805
0,0531725280812576
0,0513808289144673
0,054080361781737
0,0541937438308365
0,056400372804972
0,0539703401850932
0,053413035670326
0,0499058052059331
0,0539758150037549
0,0519721480535615
0,0528486963105072
0,0508694238806291
0,0521894973578377
0,0479921436782012
0,0526457462600229
0,0500603969185868
0,0515008871757864
0,0508114842509854
0,0521556704177405
0,0472236855946613
0,052009513838918
0,0515825121341635
0,0530831754785396
0,0486754732599773
0,0476929337859967
0,0469095032865813
0,0498312724379879
0,0467918553103208
0,049927575937107
0,0495433496760052
0,0492602937607224
0,0474367030099829
0,0471130167924233
0,0447077320179302
0,0484906776326728
0,0461395577200482
0,0475694625296803
0,0440597127730342
0,0466434331549513
0,0442344587461974
0,0458326949862503
0,0479390546206614
0,0452666502218775
0,0423762844428156
0,0499859919912975
0,045367829586518
0,0459883355969649
0,0433924644683652
0,044054202921204
0,0432416229919527
0,0444998722719102
0,0435147582234094
0,0424295728873597
0,0429685013235188
0,0464851944130734
0,0414769309977448
0,0447062033261256
0,0413266678574897
0,0434389072868012
0,0419388189217113
0,0439494153301768
0,0414581836553335
0,0421033117234503
0,0410958459627784
0,0429343609231971
0,0396889310844164
0,0427957534683181
0,0392717717687644
0,0417896489770127
0,0405931239699124
0,0405760825937787
0,0390135944501406
0,040715399355811
0,0386432705025431
0,0392492740540474
0,0385928014840758
0,0405848828436133
0,0369773164741033
0,0406791532561224
0,0374999150048932
0,0397810287102861
0,0393005648510055
0,0402277059422405
0,0365158169773359
0,0390773484837207
0,0360648610621686
0,0389951212899959
0,0394541434935937
0,0419165651068483
0,0384347885482907
0,0392546395972583
0,0362461610239002
0,0379405757873609
0,0356208881450905
0,0404570112869796
0,0346960361252257
0,0365186773202402
0,0386902000088151
0,0393503517268391
0,0367163171950995
0,0405057905298361
0,0362445984092588
0,0380626797184544
0,0358238231695469
0,0401362661020299
0,0385435242790224
0,0399850932347057
0,0351889815198606
0,0380807192856425
0,0361013448788467
0,0400309480754207
0,0326251607473662
0,036603895320883
0,0318518990012224
0,0378309504636854
0,0311164382234446
0,0375455438170344
0,0374418649346569
0,0416777016182509
0,0374324417658019
0,0373738783471421
0,0256454229979547
0,0341231932072665
0,0346521669557981
0,0377076621820023
0,0270727975892428
0,0389491977354495
0,0302340344984449
0,0378240075576269
0,034673244647738
0,0341638135123481
0,0332375041841689
0,0419226161772038
0,0332276033280013
0,0352763610772386
0,0230971330449906
0,0396085594747064
0,0321935399012194
0,0393745583546907
0,0325901305556133
0,0382302788423129
0,0237368579972857
0,0365397290482654
0,029166676517938
0,0380928460582249
0,0314837648145528
0,0413036069402854
0,0274063343010038
0,0406979497386311
0,0267794247154076
0,0392551287287042
0,0234242550532199
0,0378763026933069
0,0257267193135739
0,041967950530049
0,0295227302006279
0,0468749360161889
0,0305452607378298
0,032738270682831
0,0210544604208456
0,0358053239014509
0,0315444353234014
0,0428571305173617
0,0378504122223063
0,030593383530701
0,0240667384221668
0,0336839901144965
0,0473800763955198
0,0258031971481303
0,0364244477909209
0,0273763160595359
0,0492701513381732
0,0168364599404592
0,0459195835803075
0,0208136637116675
0,0469340989915651
0,0169319909506389
0,0467478210918326
0,0245347825880455
0,0444801410511098
0,026765676814437
0,037293428945263
0,0273906660992117
0,0332254326417424
0,0314117222697829
0,0325348521296107
0,0321112174081866
0,0320229149362479
0,0298926259093819
0,0335791670669303
0,0290283787740721
0,0321184469916726
0,0275213895421224
0,0341899421983829
0,028613723249772
0,0334844877883497
0,0287835353535272
0,0325353956994029
0,0298767010573376
0,0325089464430472
0,0275376947296562
0,0308452077894619
0,0287073533113238
0,0325590755111769
0,0295640338621835
0,0324785199193493
0,0313105954541186
0,0307043561104038
0,0258728003762255
0,0300565571473541
0,0283852255741317
0,0328068735497973
0,028294464165201
0,0310462666330176
0,0296842890423653
0,0318063284138413
0,0289287386442365
0,0304382891450404
0,0294307039078433
0,03085318435258
0,0276858000964844
0,0296918009115025
0,0284545941877726
0,0323803716194089
0,0284935462077824
0,0321046231375754
0,0308657865106444
0,0309996873774713
0,0269233748761525
0,0300570135244188
0,0272872342974481
0,0308002369230191
0,029995004050917
0,0315913436059306
0,0275287949639439
0,0302482747907267
0,0285453560547755
0,0297979459601255
0,0304000802077093
0,0309864360791705
0,0270019416078566
0,0323742483899528
0,0303725873374227
0,0285311983821162
0,0299461562403118
0,0324505986933925
0,028904272553899
0,0317879938680517
0,0300723817123167
0,0297225943519283
0,0299954354308966
0,0283194090242348
0,0271599030655983
0,0298880207322227
0,0296970232786286
0,0291930066590235
0,0273976927211865
0,0293709662194974
0,0287547734080363
0,0309545046125132
0,0295429743063241
0,0311925126505021
0,0283944379134956
0,028895296961491
0,0298389925411995
0,0309091691007939
0,0276981625766756
0,028817648547012
0,029780399417958
0,0298243573495271
0,0292198643876294
0,0298555619558096
0,0264258755073561
0,0302058983645202
0,02865410920043
0,0283752825163279
0,02882618707791
0,0307705410667024
0,0303705584730228
0,0324464836469552
0,030002043784084
0,0322683913676864
0,0281359629513483
0,0280465978315327
0,0299557753565708
0,0298026709279213
0,0285040306816397
0,030566998236609
0,029905750656086
0,0320010042302032
0,0309423247176074
0,0308103657628392
0,0304887898578925
0,0294907756903471
0,0300402512725161
0,0335072871271714
0,031933016458148
0,0307974173280282
0,0300565837715622
0,0322764885432761
0,0295108890598903
0,0298587287330066
0,0302774965520472
0,0302774266012898
0,0287804598050732
0,030494362013137
0,030982643986691
0,0307668389236868
0,0288897023742741
0,0288610997442639
0,0305228955237988
0,0297684488723716
0,0296424169567691
0,0316528880236127
0,0292756349059089
0,0324618807323446
0,0287910492788757
0,0295986537933406
0,0307413224709321
0,0300516421823462
0,0297797899569931
0,0327677904953736
0,0309700465168274
0,0311706055614018
0,0305296144922147
0,0311539385549522
0,0301088101934037
0,0318034277148276
0,0285173147854565
0,0323743690504363
0,0309380731113935
0,0307193400608558
0,0307460442961679
0,0305752270574013
0,0304683279282134
0,0332221453124023
0,0315488329338749
0,029454535293773
0,0309226713861256
0,0336430505174397
0,0313511483919102
0,0326230559093377
0,0305271195940941
0,0345916833412116
0,0306309651607201
0,0314971523892656
0,0321367992531069
0,0336047815443394
0,0341452130889449
0,0327392881669843
0,0296508690152884
0,032432659381604
0,0302662627565661
0,0313678737740569
0,0310918906584538
0,0317055626661871
0,0306030127818859
0,0335350417737958
0,0323772796799154
0,0340987499633689
0,0314828305011232
0,0332255616796221
0,0312173545707771
0,0322562690476063
0,0302776916509854
0,0318683357157191
0,029037868804929
0,0325246217059603
0,0324550972197682
0,0320928187496198
0,0330798436407483
0,0327704396097277
0,0317488381790028
0,0317681627834467
0,0301606709426959
0,0316972326326319
0,0318432237782508
0,0301863138802846
0,0298839844616991
0,0307814328696224
0,0305529287333342
0,0313385807785749
0,0314920354723622
0,0301293244760745
0,0278649030704744
0,0306853257344448
0,030082522564137
0,0311975729779376
0,0289225962040151
0,0293718130173876
0,0332963392976619
0,0329391504679384
0,0297443125351765
0,0290576064393522
0,0275571044156427
0,0317034093702485
0,0304342648482883
0,0299449158671666
0,0295510880909744
0,0310843858810123
0,0310350986208281
0,030202961598915
0,0288914043468621
0,0313653242919031
0,0293734691196834
0,0278672770812887
0,0276417486432053
0,0299657259074551
0,0301495949174787
0,0314853074236281
0,0285578789918332
0,0300080994344529
0,0276771922073633
0,0298465356732275
0,0294931066716836
0,0301026009138534
0,0281492834438237
0,0318115392936991
0,0287033348600243
0,0313043815367578
0,0308013813391767
0,0312378906198524
0,0303034098704888
0,0299245671051615
0,029468739390249
0,0294144329847945
0,0290119801072729
0,0293159198987237
0,0274239517424841
0,030148113985285
0,0289384536569143
0,0288444629993152
0,0276178591312155
0,0289702644125573
0,0263545832534374
0,029543660701114
0,0292924603809258
0,0282494554419964
0,0289142598706723
0,0294310697580656
0,0288817999553742
0,0295778260578869
0,0285207869604487
0,0302201650629679
0,0321534996139539
0,0290297401559221
0,0300279779487202
0,0299437450576259
0,0289334800208865
0,0307497319485171
0,0274341569062372
0,0302615618952876
0,0297763527580594
0,0316082922601593
0,0299494166778479
0,0281693512028215
0,0275319053414613
0,0299929062701719
0,0275878896035345
0,0293945348398853
0,0277024784724855
0,0280760567547263
0,0281294088972244
0,0291941331251886
0,0276637700492823
0,0285754092296191
0,0284480188891945
0,0290608860602501
0,0260133704970289
0,0291677119013576
0,0276106145334647
0,0290929293309489
0,0277663985451181
0,0275030126677074
0,0280785220625479
0,0286017703524983
0,0261184173392574
0,0279390927363919
0,0285924178047585
0,0273334804640433
0,0261711212856206
0,0269586299047943
0,0270820134488179
0,0288564049913819
0,0261029769653075
0,0283695816546675
0,0271978387420252
0,0264376318307686
0,0258755115898849
0,0289950444610206
0,0261840730726366
0,0265627589197787
0,0244615261557813
0,0276163890972566
0,0271937883096816
0,0268418166249654
0,0291994818987057
0,0274226730335065
0,0261893232618908
0,0254435895062438
0,0269394115508047
0,0244102481940965
0,0225675228029217
0,0245792524502426
0,0254564570957639
0,0265787843392708
0,0267308821289843
0,025214693714182
0,0261543540620658
0,0275832913414037
0,0232608088946989
0,0232158017930681
0,0244964897825278
0,023616529793652
0,0240376456172519
0,0249450491158403
0,023733287818323
0,0247199652987813
0,0250424913912277
0,0231210488473579
0,0264770332210283
0,0216028289934749
0,0310040942323732
0,0280122925266857
0,0234401221285328
0,0241792475750792
0,0253342874256363
0,0265761641062663
0,0231144667061593
0,0236707455800632
0,0219014753016323
0,0265298317454392
0,0225280729478807
0,0260649830180451
0,023949364050701
0,0244376324413899
0,0234302027798959
0,0263694943432993
0,0235842906171788
0,0236450331428988
0,0230456950187564
0,0240617824799397
0,0227294110505387
0,0232708138700547
0,0217213376226115
0,0245843910871724
0,0230448950015823
0,0223108537504814
0,0220790449151231
0,0285803917647986
0,0255497538307403
0,0276048161583007
0,0216223513862491
0,024613771919011
0,0202806569210068
0,0249572802639491
0,022569270398588
0,0254594086561536
0,0239294286632378
0,0243157384923798
0,0220392619340519
0,0233279277672013
0,0249426506848693
0,0279916663685451
0,0216789894713579
0,0250136521357554
0,0216554932947753
0,0243731907342008
0,0233335672919017
0,0264714562465667
0,021239402301609
0,0248352434837105
0,0205316927612933
0,0284961998095756
0,018598519994262
0,0256912432281209
0,0309906495395817
0,025958441169994
0,0221191970699249
0,0229913111153736
0,025140737228451
0,0214298830348048
0,0221242941148494
0,0218879888272755
0,0228532629755028
0,0230505158823269
0,0221823555568697
0,0223678234235248
0,0230994886364255
0,0232549119649842
0,0213940673461392
0,0247538623723018
0,0244919754366574
0,0223060996438658
0,026576365236945
0,020693353747391
0,0262593009844081
0,0340086118513795
0,0221022428719644
0,0266205943004381
0,0223543484802451
0,0193752862012982
0,0374256122543352
0,0190255514547876
0,0279656429817801
0,0192600934014296
0,026176841196538
0,0181439460155693
0,0272178768645481
0,0187405704389552
0,0260456200234319
0,0261217697315469
0,0245763515147633
0,0268896241380137
0,0230352945737065
0,0228207821313931
0,0223164862958501
0,0242415576782118
0,0203469856637212
0,0232684313638728
0,0229529486917172
0,0219484976721979
0,0227098374637304
0,0218017237709329
0,0247592992052364
0,0191768870870263
0,0258356756315572
0,0227890352259523
0,02507829196106
0,0207851160985498
0,0239477517129949
0,019919248638545
0,0238144536961849
0,0313768316926065
0,0231597204931214
0,0249001750810404
0,019816779559214
0,0239688671441678
0,0198956752095084
0,0238911000677107
0,0186964231856451
0,0243398589411821
0,0195268644689775
0,0256214838635625
0,0187942830045127
0,0249865069770454
0,0199299353773618
0,0205370156046139
0,0193647571409095
0,0219176817206159
0,0182735078929265
0,0226784891921581
0,0226014979665355
0,0215327982754729
0,0322326636081844
0,033290555915325
0,0367308770362751
0,0288612627603117
0,029051998320404
0,0221118908410654
0,0217346199017702
0,0201941251188205
0,0234784242195563
0,02593685363932
0,0227613627825076
0,0217518569905296
0,0223345610347115
0,0205360508091571
0,021650071878322
0,0238671052574229
0,0205639948306464
0,0247084089198901
0,0194462204114406
0,0255408898182233
0,0190692344336947
0,0245871423365856
0,0169149177611874
0,0333709795108409
0,0190420263955699
0,0346087986551886
0,00726955771219853
0,0620926395034463
0,026543658476577
0,0316590161560436
0,0210253634997466
0,022825629583806
0,0212670063768265
0,0202167367889398
0,021177471039024
0,0272469722772455
0,0209881407026621
0,0248495025551011
0,023141185693234
0,0238837756091253
0,0237054847497609
0,0190182540540676
0,0284207893480063
0,0468965753550501
0,0257349968121702
0,0352785811611799
0,0142937018147606
0,0344771810137005
0,035208633677292
0,0216613421020862
0,0286478462280967
0,0219362313739737
0,0248996383151587
0,0220947845194613
0,0264474247098956
0,0219624585908877
0,0256102073596326
0,0237992831704758
0,0249187543869165
0,0221722969288209
0,0199299691310745
0,0296036156366893
0,0212826823919928
0,0350749179406055
0,029777186019412
0,0223397417245234
0,0320587744853257
0,0225880430514785
0,0223230835783553
0,0245045971469472
0,0270022981937467
0,0200156786412896
0,030578738904626
0,0367376266942453
0,0244593200399829
0,0386841715324081
0,0307363618309387
0,0229868117219319
0,0291496817427127
0,0266135172502926
0,0378565069533643
0,0129604775031628
0,0436078462256367
0,0339965061258413
0,0350123161130396
0,0439981413694359
0,0210149040016904
0,032008544013564
0,0182487310225369
0,032192927236018
0,0151528330606861
0,055595548146912
0,0118727319808929
0,0422798322732223
0,0103348872289214
0,0494051439179869
0,0286436964591927
0,0369015841233557
0,0259967902239284
0,0315206134587955
0,0198464084193318
0,0482846239672873
0,0203897449582328
0,0294650153556314
0,0375050488959938
0,0468090825430064
0,0544962890767998
0,026718614322951
0,0207236978439921
0,0608763183187517
0,0222443335232116
0,0378691619987021
0,0191348841176235
0,040120293148418
0,0201075950153786
0,0380272457538079
0,0476167533585865
0,0309595317691195
0,0312397782625492
0,0347110698137094
0,0205675240713432
0,0516981648176893
0,0283177899212996
0,0424496897435224
0,0257929891539968
0,0431218429911247
0,0160579019686113
0,100538938381348
0,0224480742218548
0,0635436669393866
0,0405825871747453
0,0539913876356592
0,0434590833141332
0,0465655754537303
0,0368260192173644
0,0516772098254046
0,0485489719353075
0,0460007161409148
0,02755123146225
0,0580863260675964
0,0525120418128772
0,039981932866558
0,0515652872331934
0,0316103702091886
0,0380030164955681
0,0656554981698668
0,0689261590191082
0,0617077423389034
0,0417095033146549
0,0395766557667665
0,0675934680406107
0,0403476348184333
0,0424316842616123
0,0396059454147468
0,0436160963113336
0,0426142340648769
0,0346257711349809
0,0538943474103325
0,0387588700782048
0,05282082230868
0,0380746582969599
0,0491984581636334
0,0449534105858401
0,0810875915599024
0,0769029261408101
0,0405256171715775
0,0936531175448586
0,0567397897851778
0,0613986139487731
0,0472058143277296
0,0496104746967099
0,0604220220235819
0,0513441094055911
0,0563378979344146
0,0426891594911205
0,0843403283927199
0,0571022829377093
0,0713236698106265
0,0687822933052618
0,0585067665685949
0,0704220740125406
0,0307996444808188
0,247967403987544
0,05769696027747
0,103443557068557
0,0625106853903577
0,0966334469943694
0,117695652153065
0,0870251507059987
0,08322582636298
0,085960435731458
0,080907717236074
0,0950495410205535
0,0941784904845084
0,0983377784922948
0,108448904052929
0,108074327771041
0,0972672852505048
0,130874994638959
0,141653132711303
0,165400141805636
0,133051244798891
0,121534853887219
0,13758816946383
0,146175781241592
0,126802922297737
0,152677661036102
0,129655625790934
0,152367562627336
0,18194480117782
0,145712730295078
0,165337548078808
0,147213016760428
0,205369448431006
0,133664990776616
0,24582228619565
0,166756400377436
0,196801123469098
0,169988805990219
0,190377086456287
0,187265835585574
0,180523398281721
0,22113077646676
0,205039062441946
0,203328725984951
0,203310650988788
0,203068806975324
0,20796920077339
0,208046805936554
0,219455642728578
0,202287589336472
0,264096167407083
0,182314522809967
0,384634890037882
0,220865934048387
0,236474034203776
0,212418909772041
0,22151365574986
0,251497164447742
0,215849580021863
0,258068784340896
0,230205983378952
0,216937509186494
0,225128229012106
0,208986942947138
0,223874354172983
0,206498747511598
0,232187709375725
0,192414637239223
0,260768431134325
0,187776729859459
0,263168545031818
0,22773779154925
0,216833556183771
0,207268099397384
0,211187507168478
0,199895676736213
0,210886491780749
0,195578969192352
0,210301204453675
0,220834199859544
0,193367923275935
0,207464607762911
0,178696263981262
0,219380303235385
0,202672075014711
0,188114516835917
0,19605772560118
0,178399923387544
0,194784280412697
0,164523865826344
0,192226840688277
0,213042950387264
0,173604105988428
0,180148723974881
0,167691914087417
0,169951236111145
0,168300193089066
0,164572305235629
0,169884082071386
0,166599509854908
0,157990656951173
0,166777589709855
0,157811723551495
0,162467055271273
0,150674604991366
0,164527369818047
0,151403646446269
0,159811945998489
0,155850479024605
0,157874536342523
0,15571567463135
0,154401838036242
0,15880081900346
0,153405086699928
0,154552364458514
0,160335997574391
0,149221756381596
0,15535699198737
0,148551076565976
0,155376661302387
0,150151264949466
0,147938796704568
0,150788282858832
0,152477124806941
0,152424343568768
0,146614797911404
0,148086030105475
0,15228958069226
0,149560606717205
0,146379389740358
0,154935845229765
0,145147725308727
0,160063219430394
0,126281029114536
0,220585341455467
0,154582485116977
0,154635712830994
0,153120899423261
0,142328117503618
0,158145888942294
0,127467089590394
0,193152271710545
0,152985664186635
0,148118755065647
0,144316645387023
0,139709516834063
0,153702401537683
0,154873962532719
0,133655981354945
0,155893692154455
0,118139468611915
0,203094264968623
0,156115923152899
0,207002742275942
0,177689535762511
0,156014052347079
0,141938519812056
0,145599549947963
0,169695217873937
0,127076888424031
0,156113474632705
0,121062335808764
0,19560699798146
0,144584829621119
0,143142153054372
0,144540834880993
0,131298107402923
0,162054655919011
0,164901300201751
0,143275407422666
0,157724062211057
0,166453897397063
0,141334261053814
0,189863493129802
0,163028436698909
0,161578728063384
0,129548223083235
0,143372439227189
0,130922633866623
0,125916368222952
0,195485804213423
0,123854548079971
0,155732164437317
0,123403936567695
0,126584815591556
0,11906415469197
0,13670504355373
0,137194884502135
0,118125732586267
0,172098313769579
0,101470811830723
0,158067427477607
0,113385760271142
0,152504948616556
0,148372082278205
0,136074578343719
0,104973037798295
0,150885321941546
0,146802893857064
0,112222902000433
0,136484797579558
0,103034385819137
0,111327613316036
0,137391362870299
0,0996272523355407
0,141193819875701
0,123705992995464
0,122386051964155
0,154277693001625
0,134302513635566
0,149963705099806
0,115351936906957
0,101035625184885
0,108375305358319
0,0946157708277636
0,117134307592046
0,0851415801090048
0,147904740489141
0,105919663892818
0,0920308726293595
0,151136144897278
0,101891125313768
0,104967957503275
0,109472335696062
0,104746017086676
0,110293639797887
0,121320373159683
0,141624953753826
0,120412491253451
0,125430781471063
0,14132309919101
0,109382892132614
0,127013446514461
0,11135589631632
0,128358918985709
0,11968371353044
0,14134110029791
0,126173954034037
0,131412005728724
0,133629672199051
0,134978021248001
0,14747937334948
0,179211774064016
0,123646848648602
0,202283486018625
0,133228709046516
0,225736834663207
0,163714155012319
0,171092930399428
0,173101796732774
0,16533730418338
0,179159207730998
0,176476267388765
0,178654755350877
0,22036931326416
0,172863360912677
0,208632449595933
0,181174777354816
0,209412455040698
0,182039025405902
0,244192753798649
0,189139119003172
0,269524339400947
0,236709119941256
0,226648389571868
0,225347508638198
0,204934625510076
0,225504172701662
0,218330529022098
0,217420241482188
0,218426883960212
0,207445657705479
0,245665862645224
0,210903312110218
0,22552088752321
0,212347975077137
0,220706389617112
0,219024184604963
0,224151150536106
0,222429957816158
0,224858588514495
0,221435485497566
0,23662915341472
0,205802614609141
0,29754086208224
0,230225156633051
0,244613737667685
0,231589158896509
0,243926668571792
0,239510157907275
0,241081699367675
0,253046230058353
0,246358482848134
0,243854532228332
0,254738545225712
0,247243102468529
0,259966196067535
0,24467063045575
0,287372990850797
0,236862257214026
0,280711560832186
0,238267419758479
0,289271258474132
0,279530782467554
0,269390380346398
0,2863664995597
0,259752478085801
0,275577148159187
0,262739521014934
0,272237816440308
0,265853488963915
0,277026122623916
0,264145700622486
0,269630807349892
0,262331631026504
0,265755629709539
0,271333392650994
0,262066197749023
0,288099985810095
0,262579385076887
0,274145835285925
0,261488993159412
0,269729451170115
0,255672900103192
0,285747297224451
0,270439895587143
0,267951212150436
0,269889570116459
0,269055725967104
0,273681876318484
0,273493949213695
0,256374822055995
0,266662904897283
0,256926666789382
0,26431294085409
0,255567681647691
0,265590766158557
0,288220560275592
0,266642097524586
0,272391747926599
0,262806456259176
0,271245575267396
0,266307424637305
0,273683361945815
0,267172920974586
0,277215992400649
0,271744424524506
0,277861265192864
0,274386432422514
0,27738148895376
0,287413505753909
0,292106587841126
0,287099329161522
0,272659040856568
0,278308066480137
0,275788133177061
0,273575027649215
0,282492687725536
0,272989499495531
0,27305139180073
0,263738237006893
0,275687588953468
0,256266880789897
0,292287061835186
0,256931195636922
0,280252472722962
0,261880002750367
0,261296185873659
0,259908793498929
0,257146889224577
0,25399049689363
0,253899232562122
0,255874776476578
0,247452612795735
0,25082512741428
0,247270592121556
0,248263094887277
0,249357961354345
0,249059683111484
0,243136136873762
0,24222468758251
0,247179524243338
0,243937928953858
0,246636824365294
0,237995739505931
0,245335464014868
0,233990691151699
0,254610682700039
0,252497582998962
0,258159856704572
0,244360816624042
0,242060875596834
0,248647760692357
0,234188797147136
0,248497498578785
0,235046345349408
0,242340180359252
0,235626451360922
0,241776411444411
0,234441954109462
0,238703380007412
0,233632677884845
0,233990018746486
0,231196592877689
0,235839522958257
0,231255236934464
0,237658401361807
0,224569620174814
0,231642629280138
0,225460293499933
0,236530001960576
0,228054829000745
0,227567688127205
0,232885949790641
0,22430674589065
0,225923910043395
0,225500915577308
0,228873279252712
0,221598903716313
0,221625594917677
0,225794961418705
0,221249733786586
0,224552060390948
0,222942426669013
0,222552253808192
0,220523395338025
0,218332565460466
0,218075009617309
0,219315417115997
0,217629540603007
0,218887184780695
0,216200981610233
0,213520182330659
0,211834850071878
0,211108344180438
0,20642025603906
0,207445579027511
0,20311148619493
0,201271861084823
0,199119898181933
0,19664892501126
0,197471097518596
0,196570276985053
0,194962965006254
0,197075268645356
0,19196537987201
0,191524700959735
0,19282108995453
0,189384334020015
0,188411612068476
0,188275525681485
0,190604715463315
0,190984122379148
0,188149432665322
0,190260159353944
0,191072701235016
0,191823730802862
0,19267372083199
0,190363492357538
0,191486811565773
0,191148490096765
0,194215451315025
0,190716077901968
0,195087699498808
0,195393711964443
0,196458466955804
0,197646729408829
0,196464837371693
0,198440432738448
0,197491144789974
0,196777864293472
0,198895619934312
0,200277451110187
0,200529957377494
0,199396885805619
0,199380270293173
0,201787616267308
0,199422846420363
0,201601987087786
0,200865350086711
0,200269849763536
0,199994340292027
0,20203266741383
0,199776935304059
0,201859039653093
0,199151194479692
0,198974498160412
0,197647852826085
0,196707187950138
0,197386199312625
0,198138121532107
0,196755394962019
0,197463018876751
0,195843972124234
0,195117202027812
0,193958542856179
0,196536022630903
0,193966538910515
0,193878383162588
0,192101036076468
0,190431635559564
0,189297449940433
0,189903528496637
0,18706772716508
0,187142111432859
0,188341343649619
0,187879214641562
0,184111004555819
0,1841662831964
0,182280304960529
0,182678411623177
0,182583593573562
0,181037248497841
0,180048196493737
0,179387805401752
0,177127039628977
0,174524502891229
0,174540590475421
0,175929916952574
0,171858075371902
0,170701069617605
0,168732986384917
0,167279144290853
0,167036319187189
0,166533778900371
0,165405655365869
0,165259472755165
0,164400567429022
0,164186898200915
0,164221678417588
0,163956692148469
0,162847197328055
0,163120437192184
0,161690886252422
0,163531130093188
0,161092497304159
0,162019820123965
0,16051444687356
0,161718763331705
0,161446795801613
0,161505618673346
0,157239253305188
0,155668027824132
0,154883367823994
0,152455490300914
0,14956208482111
0,150053851202851
0,147696866192352
0,145711465431619
0,142744646991568
0,142636710018293
0,137611421497368
0,140077288651155
0,140712231599936
0,140633833926673
0,141451815627499
0,142110470769312
0,145941491533215
0,14780627024942
0,149355281687782
0,156085910041009
0,159720584023639
0,165714025937007
0,171317910526707
0,178736003699088
0,185743447188391
0,193223660251145
0,202809374374402
0,210178958100167
0,220459966062398
0,230112722529059
0,2386456500099
0,24938983400403
0,25792395612846
0,271233098670352
0,279692619378902
0,291882919918477
0,306550875508684
0,318784887333594
0,328036067050697
0,341892386425979
0,353328918031335
0,363491972829821
0,376024383378688
0,386685102439229
0,391944541650675
0,402249890999183
0,413767115036273
0,420348343924125
0,425305360062008
0,428920971582277
0,431601389863696
0,434817722977697
0,435368078222203
0,436007177589567
0,431203226794044
0,429496551393757
0,429427355968115
0,426750103873499
0,423578497082193
0,423155011132412
0,414847342019888
0,414073925392587
0,410064061703263
0,40557156300702
0,406585797028471
0,402739518454625
0,402983597387968
0,404249057518612
0,400848758046657
0,402905592779546
0,406084757804778
0,407245191074219
0,411128310264081
0,415173354349046
0,417692995749744
0,421754801632407
0,425523773228908
0,430081983939211
0,437800004873729
0,440809644792887
0,446412057223372
0,454996579571473
0,45880324454557
0,463243052011048
0,469627389039764
0,471091484813504
0,477625639907032
0,478896832839324
0,480352949312258
0,482429057244288
0,483152803322756
0,484862503961468
0,485805025994698
0,492159364307886
0,490035340699392
0,490433030546991
0,489105501925203
0,489466439297976
0,492166577579742
0,496870695695707
0,501052624126281
0,5068824269814
0,508600239995892
0,515124617330432
0,518017117367901
0,522551604177847
0,527835699986312
0,531413447831613
0,537542942516539
0,541462984780657
0,547552674677415
0,557325249186115
0,560851206937711
0,572027596741129
0,579313429976084
0,585812333117892
0,601240594063516
0,61304548646388
0,627983387418803
0,638011277865086
0,646105288136344
0,668380254345438
0,685374313075534
0,698298102257597
0,720414899657379
0,738512389779611
0,753457681995407
0,760498150753108
0,775218423877394
0,782957160125737
0,782707296706751
0,790603926822255
0,800932492354609
0,79801011214156
0,796517155993695
0,792994386565512
0,787066944042091
0,792798701120181
0,790804872906579
0,775174714301881
0,77734966835821
0,779492744594443
0,775631649271771
0,774775827863449
0,780006937142642
0,780688390119121
0,778143805391069
0,778424627085597
0,780353192316923
0,791348206775923
0,793879707278611
0,796991456162156
0,816750089586505
0,833420556244137
0,837543320756728
0,842781468834717
0,854106168607244
0,863613750909754
0,864786317123008
0,881918213789111
0,899664852214689
0,907337737071534
0,920116426726425
0,927418521673947
0,934048020944209
0,945291854507371
0,960741676331588
0,964108278086701
0,975703524397796
0,989834333922831
0,986734182266965
1,01127644858687
1,02604223428578
1,02655686869916
1,02038723392398
1,03522349612863
1,05430814514687
1,04709063871952
1,06042164602573
1,08933297767099
1,10880779845536
1,09602223523355
1,10467141545666
1,10209677775184
1,09628671010108
1,11997752967257
1,11663318613802
1,10902100111952
1,11856602441911
1,08683242784236
1,10172416210455
1,10347254066222
1,07699332827409
1,06182811308806
1,0366466560264
1,00391160597191
0,992244829531943
0,966715852323784
0,947036658129121
0,911000669887832
0,885855969172291
0,857808730578152
0,825420842366628
0,806702166198518
0,779799733942357
0,754357438783089
0,741721365001693
0,719814688098191
0,704837414353893
0,687187815591525
0,680964816660754
0,665374272576489
0,661443884147285
0,64469669113402
0,636328762737438
0,627782193871721
0,619520011635604
0,600749086990222
0,590702125972295
0,579517265806033
0,565214487636479
0,544470126168937
0,527423410718069
0,51468923866524
0,495312326480427
0,469280694975954
0,455789835628779
0,436142958645651
0,415473255283566
0,394057311582969
0,377141506863195
0,356793528945279
0,336568082461244
0,321264387406937
0,302859815222773
0,283442863565034
0,271704483574859
0,256752778773552
0,242129925317043
0,228289613498558
0,21755545651575
0,205622281556287
0,196729699133011
0,186262012615617
0,176601528228244
0,171964276487847
0,165006001496468
0,155988433427577
0,152122482596724
0,147611441265436
0,143606309006346
0,138766868740883
0,135376480847064
0,133432402795565
0,130492862757544
0,128514325200802
0,128845702530921
0,128432473082596
0,128141748894364
0,127438079987742
0,127865415844061
0,127471568649484
0,126696809879394
0,129501460445702
0,128735043550944
0,130618600899102
0,132196033577473
0,132649614848434
0,139441469456486
0,138364665142768
0,140243755816645
0,140696316900305
0,142896540586285
0,144033431281949
0,145995402428057
0,147195428244168
0,149340999581862
0,150123223736603
0,15200969657674
0,147548344099634
0,151876982434285
0,147317629315442
0,152211437758989
0,152709013292095
0,152750871726857
0,155250152246587
0,153545264940763
0,154573290127249
0,155440019630589
0,153916415638001
0,15542505512373
0,157240375557374
0,161864683729056
0,161224856178742
0,159884354939473
0,158657700159773
0,159973730488146
0,15917591092839
0,159639978083585
0,154395852709376
0,152366587764569
0,154148241678636
0,156591255624841
0,153697224352467
0,15641951236733
0,153419964690015
0,153798420941132
0,151904097958621
0,150871751180399
0,153915903210232
0,154546184179233
0,148402247882995
0,153200242890912
0,156850602787454
0,154378922825032
0,154835411659032
0,160660227820629
0,159996801609326
0,170684982565117
0,169049912622341
0,170622317367601
0,175062457319051
0,177506029460116
0,181960876008505
0,188489054856352
0,188971075096574
0,183314326107248
0,180267945860629
0,182462148472884
0,180328522339024
0,176975446658357
0,17225148898848
0,170225590906192
0,165084878453678
0,166034120000022
0,155272995389593
0,155028768444552
0,15743064224555
0,15674833715352
0,155415679415126
0,15443083477516
0,155418965303074
0,158329764007102
0,15396231270435
0,157311115357973
0,157813276340462
0,160192996285222
0,160385908844137
0,159557499607913
0,159910235145189
0,156629114483959
0,154900908222634
0,161834935615948
0,154480514513197
0,158268626347488
0,155973715312835
0,155199423365568
0,158768091507871
0,157995796394515
0,153352335652454
0,158550751936121
0,158706285804588
0,158362290611614
0,15445139310204
0,157305384809224
0,160486450683269
0,160344833662557
0,152933440785624
0,158731436532072
0,155667918812331
0,159501905873407
0,153121116514459
0,153256441468859
0,150624820154105
0,149789799761837
0,153445950064845
0,148734886395767
0,150071688779993
0,15692810721145
0,14527750481355
0,148250685633067
0,148591399609317
0,145807831924718
0,143845628710139
0,143836973604723
0,144433318318486
0,135980985748882
0,137302767397792
0,132977770109668
0,122955346394091
0,126525411576816
0,132075530288765
0,136134125139767
0,129712428006944
0,130098053682309
0,124329540874709
0,131722806033154
0,132781007544732
0,129510827740669
0,12094864807699
0,121834693370447
0,125025217466345
0,126431951936102
0,130819196977044
0,124458994669673
0,121420648211526
0,133532452337498
0,136345595071116
0,13269983831754
0,127604559975628
0,136275638570842
0,129042112488167
0,13817565272845
0,132007957800935
0,131663508909391
0,13619553692207
0,140108850328199
0,14592396867045
0,146381435645092
0,13707926581944
0,143635206083535
0,146834108366098
0,154109313970026
0,149461931949553
0,15582247559416
0,154096754568996
0,158384451014363
0,164444541627664
0,176118960770287
0,173933686962854
0,168676466268864
0,171469348142288
0,190594309494179
0,184918202908713
0,193918963018478
0,196246780331301
0,20617105904814
0,219347180738964
0,226145242877136
0,22357592402498
0,23623875140056
0,219202317656435
0,2241065226226
0,228676699887413
0,235453641026237
0,231744532248986
0,237268529941315
0,22958206708201
0,233547626537059
0,231800404031922
0,235865724679809
0,23301687313943
0,236056378013705
0,228643763214249
0,23370048070091
0,227121106372251
0,23236882352444
0,231434706784191
0,232827501252156
0,233721164393893
0,234639212719112
0,229951713034362
0,232327854933181
0,230946879634909
0,23545994195609
0,22647987597802
0,247310386003511
0,225039457126826
0,228787927901929
0,228205287415711
0,238568833011597
0,21937958348266
0,219695859970259
0,219766624944939
0,21755937517726
0,204267335619891
0,204786033480127
0,200336356259486
0,224343822177574
0,212090452751242
0,201173710365023
0,204450683477254
0,218313947504404
0,207840577676187
0,207370265627952
0,210212920264672
0,199373308218356
0,210648026577814
0,223458484427516
0,199739745414109
0,213888389248763
0,194489372145609
0,210485709188324
0,200687429331935
0,204411633395337
0,212303074295634
0,197552104249303
0,203304008114213
0,212854780800094
0,18615735605234
0,227099328609569
0,230901675012383
0,215995011641593
0,228482693605223
0,243838484248959
0,225855663203512
0,222349483649943
0,228094246297561
0,242939960836551
0,23925316618066
0,250535069874433
0,23538005584148
0,22891235758389
0,233023674756522
0,281940056426813
0,239193446720467
0,267038606217988
0,245442220215812
0,277841948527038
0,295001724616307
0,265183332010067
0,275461178825394
0,289339221150702
0,307496217797412
0,290395731375787
0,282461084479546
0,305636931572055
0,281066020224333
0,290351158861435
0,29152020417768
0,302039304627386
0,315617784496496
0,284828004866074
0,310122268626716
0,315372067926101
0,27225744367013
0,325806926831712
0,266554257933421
0,28430261452862
0,29358006696928
0,262533370127769
0,252478278419426
0,263848793161488
0,212501334941565
0,285658994893789
0,284278876565039
0,30176913810521
0,266233005079321
0,260608593478141
0,217759013716448
0,237804796312988
0,313220901035264
0,27891101453134
0,291436624749064
0,346085453770084
0,299254139913482
0,28400188431979
0,257675628152945
0,299431508619075
0,274890681189746
0,285195730833211
0,27879200977612
0,302505988865859
0,232184988724538
0,327957689988632
0,336209395046282
0,294336330266307
0,290582974841695
0,365700095534779
0,353952652357635
0,27724014106169
0,226951315728872
0,304315109378658
0,306967545470562
0,198294915828961
0,277663213649151
0,325027491421533
0,171668077439163
0,261596088504697
0,521217297402944
0,29233940318916
0,154669213480885
0,31387146411638
0,374404852024997
0,232765319167741
0,289162715456451
0,577099280967363
0,353751743674846
