3596
4000,36533379555
650,420452594757
1
2
2
0,065998513045171
0,0513403639164691
0,0592409142320924
0,0499271994834482
0,0573017770359817
0,0510234478014429
0,067355540806776
0,0562166488514905
0,0600317505426108
0,0528819730121886
0,0671652384342685
0,0541631233762548
0,0615133955596631
0,0511261491267457
0,0573305670231827
0,0569169766048704
0,0629882068897125
0,0489277916856704
0,0664005080517294
0,0517829144294455
0,0585690789725301
0,0482810271008271
0,0609783515234303
0,0497996186490542
0,0642218784575296
0,0510891521471981
0,0637902618003991
0,0519499842599302
0,0621966997522314
0,06102649333811
0,0596809288806396
0,0476417518598549
0,0620887761821675
0,0542000198941486
0,061793413295678
0,055607121082343
0,0554991173332385
0,0456113293270411
0,062930187210501
0,0528783889538927
0,0642572219413452
0,0479533569832998
0,0572145926301355
0,0544275242347574
0,0606389036798068
0,0582853773049665
0,0665113490058083
0,0545278496352996
0,0661248971278594
0,0508159646113218
0,057001022981589
0,04417320906135
0,0590315379751208
0,0590803440073904
0,0565548999548449
0,0536335582470506
0,05867758636511
0,0538600751235816
0,0592837063467566
0,0520498787448579
0,0578877734221669
0,0550856906611402
0,0572199943467875
0,04765665566243
0,0532615634188709
0,0410178664145101
0,0593413750208216
0,0428496579221989
0,0539851530123344
0,0444623182619281
0,065136960519879
0,0544124307180615
0,0679002019489148
0,0476667136634427
0,0641587917456707
0,0510008632843095
0,0597178515735604
0,0409335380446672
0,0604217969151908
0,05227675385142
0,06871535663068
0,0496737119444376
0,0626276616667967
0,0456071663337742
0,0599492928348454
0,0468109141362851
0,063269030165902
0,0399905819378168
0,0725419220473243
0,0557292332906381
0,0529048150452029
0,039914111463752
0,0556444959671604
0,0356217858985058
0,0555339122943735
0,0420623241461146
0,0554631857919404
0,0395394537941234
0,0537439308884307
0,0319927347759669
0,0620787612316294
0,0343289510047506
0,0738962699544504
0,061142797237505
0,0703156478409803
0,066932798389376
0,0445886360386081
0,0697020222058301
0,0665960213814456
0,037712041609023
0,0549552048106355
0,0437023384966673
0,0559316312193667
0,0334537606728289
0,0557108946987928
0,0447154238161064
0,0795677868313083
0,0414784260083141
0,0570209718194012
0,0345915117158483
0,0553203132829161
0,0442761679381697
0,0904458970787277
0,0516199301098548
0,0603084952919544
0,0343418852638382
0,045471676950788
0,0498960109998
0,0835806532068602
0,0343155794976637
0,0515035436793939
0,0392245405952647
0,0465490910785838
0,0344161725781483
0,0755572268155813
0,0540718626143617
0,050370597558686
0,0370319756002379
0,0555353706556275
0,074141135898995
0,0549453244771234
0,0373196797582827
0,0542926471149335
0,0364705287712068
0,0856036166315468
0,0508578862843299
0,0411607681887079
0,043114590312131
0,0619934391284784
0,0347674224523383
0,0464951065247206
0,0406911665561478
0,061243580893425
0,0477346131295563
0,0511241079096528
0,0188968139761391
0,109795679176091
0,0568963396379987
0,0853821801334324
0,0553280949241021
0,0446305317932671
0,0443126303303331
0,0447099090546148
0,0488793600118273
0,0420383759831296
0,040246773695447
0,050848356310494
0,0568250483360866
0,0454671598340601
0,0366824405233493
0,0730743505572039
0,0543349796540064
0,0641619851720775
0,0518713590843998
0,0769107228749996
0,0215276359067764
0,0625385812710697
0,0509910205499551
0,0468297594627622
0,0434157144344788
0,068878748480864
0,0462591266573046
0,0483379093092876
0,046353638675823
0,051247270502137
0,0489201627500252
0,0533552579240175
0,035057215938532
0,0443531136031469
0,0328556895250296
0,0509020260330409
0,0624958453997202
0,0817521782444754
0,049182110593443
0,0462067926874491
0,0371603724825251
0,0476986303683207
0,0731109146435954
0,0507530533725391
0,0326709392168203
0,0497216760084777
0,0379727468044129
0,0489753092942076
0,0357035018169574
0,0477974246947876
0,0442761471048606
0,0710035937441034
0,059730393012972
0,0406531802563014
0,0384399540322729
0,0468264174961433
0,0458871657245868
0,0595279433090162
0,0685143539923674
0,0516427516141898
0,0474609950511376
0,0585835830560256
0,0471411134591286
0,0646612455540786
0,0388211645156805
0,0462733731635274
0,0367888225283874
0,0463760807776615
0,0394535746533084
0,0479060569740508
0,0403456294741273
0,0506088409135941
0,0385444813286627
0,0490414114610921
0,0437703878206226
0,0534722608376941
0,0414216251698084
0,0528059402780696
0,0393956091839847
0,0486836424714099
0,0412910117628836
0,0664199309890137
0,0502939913883613
0,0459412853922676
0,0375574324587054
0,0434917489734396
0,0432860815204537
0,0487764634444561
0,0388396791306364
0,04990940763238
0,0486591329564604
0,0660109826069747
0,057567438429226
0,0395516433481029
0,0480335672730563
0,0474382804051102
0,0602371097440548
0,0376565939453602
0,0425312284161696
0,0428356952548359
0,0459285794982399
0,0490431754600255
0,0621237980222225
0,0543577062369357
0,0523198368816924
0,0548503904553317
0,0493310289213425
0,0461475334153345
0,0459682996281014
0,0553559149208132
0,0695950044141445
0,0761609401735321
0,0389088878853565
0,0972587360620494
0,0626925126267019
0,0575649966847659
0,0502983270218713
0,0509478409751262
0,0857185459923203
0,0909452589926789
0,0451157280578708
0,0612667590619469
0,0611549244844451
0,0622400030751028
0,0438084341359995
0,0589561899683596
0,050772502026012
0,0801624532076264
0,078260204181564
0,0798179136475655
0,0627609469628083
0,0543533337186768
0,0779542439252502
0,0536025092447486
0,0538840757893886
0,0539545990952969
0,048586988137584
0,0616447633837301
0,0674020851264136
0,063838498351621
0,0547254004550267
0,0632074414430001
0,0583041509405898
0,0716306079472887
0,0499868121100384
0,0600587091441966
0,0592556198987426
0,0592795162857201
0,0530903214161759
0,0638576620456279
0,0470056062413391
0,0582523637763722
0,0497922478183438
0,0952930407057569
0,0665411268822912
0,0701932971111808
0,0604870917166281
0,0718753018382378
0,0483791732843227
0,0665511973795927
0,0506705595584322
0,0626021915094906
0,0465504275623535
0,0693032423474888
0,0633362943789721
0,0717356654322307
0,0571267330658675
0,0671359558759909
0,0515988453999221
0,0607448522659957
0,0548239602342977
0,0654953398357189
0,0613757039705093
0,0627169819661141
0,0554232970023131
0,0871137686187518
0,0624873884340188
0,0731673061635739
0,0602058928294467
0,100096271199674
0,0661728870783524
0,0728614969467956
0,0598065415659532
0,0665461869626273
0,0678045018505482
0,0755227365075056
0,0651536452528712
0,0776006105499773
0,0778911591288758
0,0867939479431138
0,0724764256715267
0,0915581637315585
0,111994268177493
0,117614713702938
0,0954859787426639
0,0751674488510629
0,0775186969888937
0,1031140707284
0,10349183620927
0,100627516481655
0,0873114780658434
0,0947477709299844
0,0741551303112587
0,0942127731112174
0,073602134385458
0,0924739438137189
0,0775452366624485
0,0967564061629075
0,0838037177495783
0,100279178734743
0,0831629848533087
0,0942226136834536
0,0919319591633452
0,124629604406766
0,0985140221522879
0,108081408453679
0,0894317220600548
0,112658227969741
0,109127613180704
0,15432320918699
0,110606620171033
0,14525142773797
0,126625833100843
0,132466902595643
0,117796812031203
0,111752229076594
0,108148691889735
0,115530657359821
0,113471267149638
0,120255351700731
0,115136127464498
0,1245456328656
0,116959915671758
0,122031749073318
0,118173944065351
0,128131821464973
0,13046854286672
0,146528030422027
0,145035398715184
0,134499518647945
0,137567566650274
0,157510716968021
0,161686301221511
0,165269353112187
0,14494548623064
0,148475729499594
0,144477543738317
0,152293381225298
0,149815321689112
0,164505054921523
0,144685234542841
0,174745168619298
0,155235989261329
0,1806715016869
0,16790650772847
0,169023093896751
0,156332556265328
0,1706362620945
0,169002856581847
0,181621334594186
0,180390020784481
0,183271803458865
0,175371773199003
0,197937777141181
0,184326595891782
0,211936164126341
0,182577983421982
0,195823490405793
0,167618934622117
0,205043671800998
0,186420290801183
0,219120642697716
0,198162492362099
0,218238011051618
0,201079205371859
0,222063156407941
0,207413170283713
0,222250801917523
0,221028630144142
0,236343831017372
0,216041020985993
0,227976947353125
0,216912400885695
0,227399877686802
0,244860305785612
0,261132122034169
0,240336020658308
0,27031564660242
0,226618760037411
0,26146375944748
0,243700809613298
0,261326232849369
0,243780483282611
0,258710795200441
0,242260181014674
0,264299647668563
0,262944256506586
0,278473758567913
0,254926414111959
0,27684330705422
0,28396310681774
0,292105126830961
0,263715460120998
0,301984154116614
0,285235688844287
0,298999786091125
0,308624587479944
0,334928661776676
0,307142181230131
0,35753271932185
0,287107310940476
0,333325192346971
0,305124043774542
0,331594002275019
0,302011338774282
0,334724843835337
0,321754911956776
0,35457566466254
0,316505783977159
0,350157558137111
0,333624267878919
0,351103493004055
0,341636842221923
0,367004056972205
0,339490923797018
0,392107793974422
0,364199573651312
0,394455217525344
0,345956157351176
0,400794028153699
0,375708011910711
0,412813132205131
0,374912846160569
0,408306681458776
0,373148378673953
0,40592855476675
0,388363783086971
0,427593957509103
0,404612847445194
0,421417758355984
0,404131435861412
0,435542518660616
0,414545296930932
0,456205847201251
0,419915176374196
0,442574668387305
0,434482161214055
0,453592550189601
0,421639009948694
0,462926943418246
0,447034397658701
0,478091715562442
0,45080784498115
0,491672215739892
0,429018852076165
0,505058616053527
0,466118802764244
0,52473947945331
0,488545212671058
0,497214607618169
0,467032138468777
0,511343974916622
0,4933477439927
0,51931075429475
0,518003043844204
0,529197852265296
0,507433163151561
0,53967873343405
0,513779457408043
0,54289559518839
0,518214124767778
0,543595031769183
0,532168850305416
0,567762101098461
0,559914904815002
0,564382835576735
0,542215278930991
0,577192241281068
0,535410267758225
0,625726062504151
0,554367766762147
0,596948650640734
0,570735627261616
0,60684183382873
0,585483873557726
0,619593222668475
0,618106173329794
0,632841356103219
0,613317871506887
0,645500199215564
0,613626305359716
0,651245850941575
0,623246272448753
0,659403367717831
0,627442326625484
0,693434244928007
0,655469674311359
0,674509997998752
0,630567283304049
0,687468966162063
0,6094700539366
0,674883715646509
0,654024954912611
0,697905976981633
0,647323566815396
0,685821055853769
0,677540009522738
0,708008005611841
0,650219009866685
0,722244148435343
0,681006135997303
0,728232246867878
0,715228050537056
0,71139616149818
0,724342034074105
0,761581350468142
0,691183652417937
0,753687987396547
0,718424834113138
0,790104164458341
0,769656103342732
0,759520341660257
0,725790024461503
0,77800869827218
0,716408682880034
0,813368948575684
0,761698473213425
0,801406080909135
0,739943596099784
0,817211830294408
0,782246030710037
0,837184398038208
0,780198648902293
0,839320269352118
0,807845811075173
0,85777538966278
0,771707318207015
0,863880191473001
0,784918318020903
0,835996954936852
0,787309657099749
0,836615394356918
0,806138027309352
0,851006486088707
0,82255578869288
0,847720386188972
0,829114091517558
0,873991627658126
0,813340744090216
0,870774773304088
0,835796280018022
0,914503492796567
0,854329578875863
0,913989678130382
0,879526332977577
0,86045137694991
0,887765739624249
0,894203302939616
0,836871680835701
0,922172619477866
0,875776895442209
0,952326424662429
0,897705073949261
0,971603777954711
0,881592447402671
0,980736705414363
0,878617865061205
0,951346382225942
0,906728659114121
0,971349871306634
0,891278924077542
0,949124477830177
0,889289028303684
0,978521758714782
0,930271601704058
1,0231875739945
0,916012663691945
0,96201532308638
0,92609756825815
1,0372398380939
0,93849098262974
0,989135156327801
0,934544274265018
1,01858023172068
0,936249286884792
0,975504905038641
0,933664643152036
0,972642329288541
0,901985090689342
1,01103209696591
0,976247655267941
1,1199553051079
0,95179661947209
1,04749261495583
0,942817795999294
1,01442470759054
0,945963667671317
0,999817492971313
0,997997122869829
1,09142407853311
0,982266426192777
1,06982529086271
1,00179439766127
1,1026975892706
1,03086841692671
1,02310589787576
0,963081356717594
1,06720519778586
1,00622171006487
1,05203539000467
1,02477685323896
1,13499189486837
1,04394724637869
1,11235183144466
1,01936521720094
1,086036334528
1,00816206985729
1,10267753194123
0,991023096782959
1,08870063900675
1,01351901806961
1,05917155612545
1,042560900348
1,16342072747898
1,03840833252047
1,1193492390278
1,06258876164664
1,1494453484527
1,02938872963288
1,11744553339527
1,02542033850351
1,11466327313301
1,06095218553925
1,11540195839272
1,10933356769228
1,11985586677472
1,13339402983688
1,22630767445932
1,0429102084848
1,16588449258581
1,04280352728829
1,11991942404861
1,12398463083572
1,12266132470849
1,11205913454577
1,11084060747771
1,06645630844143
1,16916788571296
1,04990569687829
1,16237787994567
1,09793779103226
1,18019962937457
1,12106182080683
1,15638278075464
1,07957422438676
1,08555084502896
1,12368358122489
1,10981691089579
1,07293048331173
1,17070398570932
1,08948748712878
1,17142283244979
1,07663188130062
1,1224797568298
1,07832173256612
1,17401113886271
1,064049766252
1,23414827059635
1,10196188251852
1,17871434614967
1,09165557278146
1,18265000359321
1,06313804223577
1,19155320251154
1,1155004892519
1,16582077679373
1,11728353326898
1,15969048210399
1,11126221845081
1,13321066401109
1,15923265463791
1,16604764160444
1,10683752243629
1,12944426292025
1,08306358705159
1,04880304555966
1,11475902611123
1,14790522960027
1,11872953819456
1,14564005152584
1,05027620841939
1,17156461767835
1,13337120201628
1,11638234078697
1,09055623503301
1,14317486934522
1,06759636398888
1,12339372801443
1,12724466642883
1,16729269388545
1,11397719670643
1,10795122404754
1,04279626263218
1,11379508375145
1,07640090504707
1,12883130661993
1,09227689317797
1,17756271394354
1,0187474848574
1,14155904233349
1,08437931855991
1,18199814927638
1,09968258731229
1,11347153265396
1,09843568861786
1,11676451068318
1,05652386618369
1,11133724124509
1,10643289116485
1,09815289032907
1,11600179832278
1,11796176311154
1,06836744765643
1,16784010624576
1,06909323657399
1,09582112822612
1,07937210889343
1,11648745680343
1,05840699597241
1,12886535997253
1,0797835395253
1,09688138194933
1,11945865105503
1,09070568658
1,08745906256736
1,08980201883528
1,05690605544579
1,08324173778186
1,07136434548242
1,15167725363573
1,06377124621685
1,05008643733652
1,05142563804632
1,0666199014965
1,0713932827974
1,03545175088498
1,065267696463
1,07396972823627
1,03577839249208
1,05908462548383
1,01849262655405
1,05170147397355
1,03703750574311
1,10662047542922
1,05926563957182
1,06362099483469
1,00930952500447
1,06136606829502
1,01295379870605
1,04709402610979
1,00551040158694
1,07551799720072
0,994624044564979
1,05571656558
1,00729783679124
1,10506183790775
1,04452471481168
1,06494942384135
1,02273389346573
1,09808690734136
0,99191782037153
1,01876848938934
1,01139445247102
1,01301310165677
0,969493717967164
0,987729822283217
0,995676808026271
0,979348110873093
0,993089087866229
0,985598042328041
0,940331285816164
1,01223926686364
0,975871460868343
0,981418136524565
0,975548920342501
0,973122262192015
0,981130050176752
0,992668788317397
0,958303122856443
0,980783872083598
0,925318203042744
0,979018503816516
0,952078616322251
0,956183478037876
0,915357572046479
0,972374276730129
0,948418268493768
0,953359522325996
0,923036820016909
0,952787248726285
0,929962356933174
0,9271198836021
0,918556451828128
0,925547374454766
0,909715079791564
0,930910840648114
0,906084798001812
0,94758878070444
0,865625007479139
0,912702226395669
0,913149666662268
0,89777758500796
0,896793128005643
0,902353499885704
0,841775500467635
0,888133345930864
0,882107911045968
0,907580030734742
0,857628338228627
0,883904278745541
0,822548884306023
0,843495418087983
0,846516733187358
0,867309138984529
0,837252395590312
0,837866610188868
0,82561122278274
0,847885886313883
0,826157311142529
0,846966721621023
0,835334546657819
0,840462198310912
0,814345460504166
0,841907583236136
0,790931288963541
0,842677293745964
0,8006529426376
0,816839875741596
0,802354949751313
0,806935196879282
0,785536422433913
0,778390671785733
0,756171502671532
0,777406495746362
0,763778002790538
0,798943815807258
0,755411740160749
0,784199469354617
0,744529793613378
0,774675406948141
0,719909782951376
0,778129041335618
0,724270964049923
0,751744133040081
0,721623691491281
0,748182071631875
0,716826298787073
0,746772077397149
0,713009431115724
0,731108721123349
0,71341659313987
0,728770899293251
0,69444371428722
0,719391885651863
0,695078439344013
0,695360721619413
0,683449766326766
0,701553923419079
0,692501074627765
0,690131683490466
0,670536908468191
0,689737662421853
0,675315986722418
0,689238201351775
0,662858409177819
0,681555339734106
0,656312421606117
0,663557239725576
0,644595556422941
0,671992147719557
0,654270571315044
0,657016786929511
0,641279671451139
0,647582002554538
0,636870876978852
0,629408667197455
0,617507242236531
0,636806797884275
0,609607633679114
0,636305089733166
0,597731917908873
0,627613694454891
0,600283052440517
0,612392132678665
0,6045494913432
0,610210355240762
0,5921549235638
0,602911694721402
0,591706405700165
0,600906478291674
0,57713536005596
0,590053388585178
0,576795007343576
0,585976875370397
0,567238508465232
0,583213182170665
0,558176897587316
0,582940092377265
0,550013867128493
0,556101325962571
0,552787542185396
0,56046107080181
0,54449984409133
0,557205388665581
0,540839374410318
0,545541975158139
0,542489005120536
0,541144968328329
0,525503640255774
0,531718808901421
0,526295180045842
0,53744700751175
0,527249593839894
0,52310123458116
0,508843884955143
0,525013533910456
0,506167349721413
0,514364389567996
0,499833522789274
0,507687662892647
0,498396290412865
0,50917912162983
0,488605208539207
0,500624834019016
0,488564672141765
0,496032288232037
0,481811039038727
0,495040237958005
0,467691883624956
0,485706492109302
0,470634934147132
0,483747491646268
0,463385133914614
0,479787451636889
0,467283920169507
0,472285695780667
0,46451668394955
0,472831278579535
0,453053510409394
0,466563315245605
0,443122622904649
0,457323510146911
0,445507425213534
0,446572462236274
0,442397029360975
0,454658657852639
0,432599315076656
0,448592311300872
0,435489983265612
0,446934040574514
0,4230008755216
0,440324847338478
0,430803337541876
0,429678063742939
0,411292410266665
0,42450601443109
0,417803343265882
0,419654407352099
0,407542370005981
0,422926767001018
0,403109129072014
0,410697254330096
0,403836171385797
0,415084284207054
0,39730183855271
0,407789166455635
0,39565189436073
0,398919220719858
0,389911183460724
0,400898788681674
0,376815268277562
0,394995880682371
0,383268313092997
0,392482801709161
0,379823590745713
0,385131216751174
0,375241677769921
0,385901575941279
0,371934347312126
0,377733737329463
0,372746027673702
0,37872742345368
0,366366446291034
0,380516438680499
0,366381201691307
0,36947859529481
0,352157566379498
0,366211770050199
0,358190533441565
0,369083981655883
0,350727399029738
0,358058847824517
0,355272791063692
0,36658549589901
0,352512053172127
0,359769043266001
0,347702818524265
0,363551101768319
0,342018985705954
0,360179172288964
0,343867598012492
0,356444599750258
0,335591588670279
0,351943101592068
0,343457411879525
0,346021248267879
0,332106216565753
0,345105439001812
0,343832415071197
0,344330432383098
0,338579167884602
0,350936968779139
0,339454786652603
0,345477956952886
0,333205391409488
0,345738992764693
0,337132792446167
0,347155215282807
0,340257072859616
0,347162463802882
0,340333060081116
0,348175965484033
0,3389622819942
0,350366643807343
0,34642504746024
0,351869365788224
0,339731352970172
0,346316266523671
0,347252125271601
0,356109285270286
0,348013798829583
0,35768651059023
0,352757961777173
0,365210532850634
0,351179500830125
0,365005218583631
0,357108054363998
0,365069723708209
0,358333932053909
0,371902359961504
0,358985453098256
0,367936469358982
0,367310739696832
0,376609266976539
0,365133812595336
0,37547182313762
0,372328857808104
0,383558794129426
0,37156070056361
0,388818221968059
0,381041642308646
0,384697363901685
0,386754924041394
0,384780848720256
0,386546313245811
0,398558053959806
0,393462332988368
0,404376277329826
0,39046032874797
0,407016964385544
0,41043659393403
0,422966514325243
0,415116620415546
0,422692060573801
0,416605210707117
0,437665837520832
0,430249595994303
0,438374796256357
0,434531960376367
0,448565212406676
0,434463327379629
0,458980278960339
0,449315295385568
0,460736826170361
0,445670467655981
0,468886366428038
0,462033639276683
0,477301710747593
0,467566234430842
0,478911040260764
0,461118981499715
0,485897224534498
0,475192077351216
0,496698356077337
0,476772506500621
0,485993539782347
0,482307388086876
0,488493690937083
0,473342043143445
0,485927653025716
0,466383431872533
0,491031694941833
0,478871211661363
0,489976348535913
0,472661949361112
0,48832382164542
0,471401508845711
0,483626867208003
0,462751121623957
0,484556698795261
0,461781568649385
0,480000543772141
0,466429634756815
0,474482297337142
0,461416651730917
0,471665585613337
0,461495748723715
0,464976995390344
0,459007467834216
0,466467084595861
0,464186156089275
0,478466838932047
0,462774553748323
0,477190038707617
0,462247296328312
0,464293319921462
0,461311226208304
0,47274271609723
0,460218427250765
0,46733187064838
0,448107283006405
0,467967247974566
0,457169499372841
0,464741705801981
0,457321793904736
0,469394019459989
0,456895787081464
0,465368079621444
0,446626935264542
0,464790303465506
0,454901043661346
0,458114243624665
0,455590678957552
0,458094034808128
0,448499607435876
0,456405941739452
0,443600082725923
0,45565216387809
0,441548734372805
0,445993293058473
0,438250119416372
0,441371565528923
0,42728165577134
0,441896704457057
0,428404608775507
0,432464245291388
0,423216876788575
0,429422826447938
0,415864693872666
0,421891863895716
0,412340232979945
0,425059298743997
0,410352154563577
0,409093833357409
0,404933066423365
0,403004351894434
0,395695712089389
0,402685332518399
0,392550765177646
0,392998934574009
0,387699089736639
0,390848373665181
0,376020485416638
0,385615943646569
0,375004163777043
0,374303332610386
0,367841741777483
0,379238889943398
0,366565090727056
0,379109747841401
0,364162893206258
0,36523480599576
0,362335741377123
0,36814252367955
0,354038262867769
0,361467664650552
0,349068227029251
0,358127399962205
0,346713726735477
0,35284285410342
0,341079459672692
0,348241289440261
0,339508133945483
0,342394358991855
0,333035200512917
0,344689315366986
0,330954526788664
0,337691283624686
0,323785668337882
0,339289242081073
0,333327907831327
0,334995008649972
0,327412956378609
0,329380872500075
0,325848760755526
0,328250990192327
0,31765635377376
0,321772705860873
0,313362492964171
0,323824203459361
0,315640341959772
0,319447842179167
0,312765826188235
0,317645410052738
0,311808805304466
0,311809767844303
0,30346818138069
0,310090488403397
0,30471230496734
0,312680433783037
0,302947934916798
0,308341462340633
0,300533177193647
0,306947745522978
0,299673559598272
0,304217579340514
0,294011830459544
0,297675465662826
0,296327321453052
0,296248290959578
0,288610597385361
0,295424215306264
0,284960046574299
0,295645823965654
0,290350850001832
0,291334860351841
0,280216702806402
0,291312770525354
0,28364436949645
0,291928780284704
0,285220434763929
0,284001979455649
0,281820229601425
0,286714577825561
0,282487116227509
0,285692234829655
0,2773352448715
0,28862893850406
0,280447014766533
0,28332779834482
0,276468510381229
0,279032011548576
0,273955350791249
0,283198871141086
0,276121618837136
0,277524253119993
0,271320213555276
0,276422903927781
0,275330377871847
0,276965183284166
0,271048418386481
0,276770763244922
0,270583429844447
0,273628602251101
0,268869561004969
0,275331540910022
0,266170894383339
0,267948875938182
0,268083972461775
0,274500018457885
0,261699907339638
0,269429632905769
0,266991385134309
0,274249928129437
0,26364658713236
0,266481424009
0,263393024446113
0,265066620645551
0,255900440605217
0,263836677153303
0,260676236442165
0,266895435908995
0,258218184971155
0,261645756821925
0,257141628894572
0,265057978964451
0,258431910823834
0,262409084638599
0,25832894896723
0,262302763612397
0,258265457789111
0,257328153932094
0,256402146438371
0,257508986853831
0,254469774615792
0,257938733933177
0,257136539880365
0,261752960450717
0,250400657632018
0,256062191769465
0,251921301416693
0,255744990867685
0,25157881664245
0,258787151426706
0,252147192143998
0,25764420461613
0,249806726337714
0,25238850300394
0,24655246751833
0,252620141535801
0,247761304785361
0,254344399635181
0,248864616263246
0,252446515921189
0,245841727777836
0,251376846020899
0,251725470940254
0,249268091704586
0,245458088237394
0,253489929663271
0,248757090377367
0,249658984887561
0,242485515655944
0,248697938614915
0,244994972782702
0,252411648874379
0,244077136026172
0,246898313483147
0,245683387290256
0,245226916920017
0,240246189495555
0,242406193969146
0,240930688021119
0,243125241500872
0,23734298558469
0,244626246556921
0,23613218657199
0,24358994472025
0,239555111504378
0,246716915614911
0,236024835690078
0,24202344046042
0,239533360691052
0,23981806891962
0,231436181979957
0,234732639885966
0,237003608816047
0,24394894574497
0,231473181519948
0,232537141146608
0,229663876795904
0,235966809552497
0,235497118172743
0,234108329528998
0,228873556077065
0,237332297515404
0,230964147949627
0,23562376312613
0,22900325076039
0,231899062948043
0,229849364791546
0,230306094678357
0,226803700417928
0,229875614079857
0,227550119120835
0,233302363461197
0,223143822189278
0,22828268533403
0,224482904337176
0,229836877510318
0,223756465878494
0,226364526466983
0,222775724537342
0,225761775137227
0,220356299912606
0,225412805039267
0,219409149608041
0,225121747857278
0,217799511855132
0,221746420829423
0,217193067202467
0,219545757303561
0,214360388160306
0,222608521896015
0,215953966585369
0,217711258248516
0,215750394196666
0,21908333711234
0,214506268390614
0,216175461959828
0,209056416731786
0,215228477103899
0,21068791046646
0,213943167183601
0,211097750137388
0,211745539829164
0,204159492235384
0,211328061921412
0,206276995735906
0,211324288103366
0,20569340669419
0,206293098611274
0,205887249238153
0,209968909436057
0,206737509242567
0,206304914741067
0,201861674725869
0,200402225414783
0,199187479974403
0,204279421688908
0,194604071517171
0,201860324705983
0,198090417777997
0,201058463529561
0,198868367512265
0,200959396511255
0,195897134457116
0,196059326392938
0,1945753076131
0,20123913449612
0,193354991934086
0,196923403437055
0,195044944649753
0,193827241914237
0,188036177014515
0,191858239577183
0,190290191819952
0,193301397541119
0,190075726671578
0,189748791536527
0,188915139660668
0,194738079004091
0,188311640363282
0,188210562264867
0,185397670908272
0,189326829276642
0,185383448915692
0,188015956091812
0,186886599013707
0,186552761969889
0,183656428513531
0,188748711428675
0,185521600783946
0,188184996907882
0,185310972564966
0,185225516329049
0,183101575337425
0,185765919193962
0,182704427658176
0,189551272973868
0,180583130862774
0,17864474663797
0,178503047892241
0,182459656662279
0,178530153187274
0,180783083453357
0,176592221490294
0,181994469694567
0,177245682746451
0,177860775195567
0,174663199243442
0,177684794024581
0,173892943788102
0,181078210092635
0,17462078515096
0,178715963821863
0,174546947726359
0,173834351294588
0,17149277744783
0,176623848349221
0,175015245084787
0,174339171716937
0,16986806716987
0,176532927756149
0,172084231812187
0,174947572258965
0,173724001385505
0,173641026360802
0,169490595804626
0,172856720963552
0,171801559139962
0,175767124894902
0,168381903432801
0,171575942821773
0,174627955936667
0,173156652294513
0,168619594997835
0,173068612096084
0,172049817434951
0,17066051348579
0,163885310292802
0,175836430207086
0,168476985360362
0,168075035595432
0,168713974122085
0,17005545433878
0,166814193706421
0,167484897725981
0,163907954073115
0,167125458235464
0,16641608608732
0,172077321266041
0,163542404130925
0,165418543296719
0,165497110019962
0,167590978494511
0,163557466749245
0,165280546030125
0,164018431899684
0,168189498787214
0,162594939405039
0,163752884587393
0,161192186832311
0,164258477773842
0,163658405821188
0,163026963929777
0,162142835043608
0,162852190202975
0,159869168957602
0,163574058631439
0,158694125939752
0,160403328735572
0,159757878462911
0,163841089339483
0,158717053849042
0,162464552259006
0,158440209318654
0,159540853509929
0,159583289854664
0,15869849902456
0,157053222105693
0,160997248399365
0,156886293758812
0,158173239153505
0,154158045972469
0,159754432183595
0,157612524452071
0,15598949536334
0,15429293221846
0,15646832229539
0,15097017811151
0,154041140796092
0,155770058186949
0,155969305611293
0,150182677581204
0,153949096318539
0,154760041079859
0,157910169602478
0,1522438293702
0,152833608559741
0,152365494903452
0,155275270790547
0,151472775780219
0,153834879655195
0,152340972838537
0,151906452218268
0,14922752521205
0,152500267398952
0,151457238717165
0,152512751352435
0,149096709001531
0,154148195237339
0,150379515198673
0,149918354041211
0,148417210699855
0,14983546732994
0,148617603743187
0,149248330334292
0,146511260631778
0,150341963350346
0,145718560900721
0,147625930859764
0,146278456927483
0,148612814782465
0,143828234067483
0,14554611924493
0,145647909434228
0,146382050321682
0,142247432731577
0,143135500989929
0,141463494058975
0,144376509751718
0,14144731761536
0,146431923006527
0,139434043146598
0,138971236226518
0,139277558553549
0,141884943097285
0,137517578560646
0,140852750004917
0,139460425565378
0,141993925332036
0,137331364059847
0,140240735080773
0,138748202372229
0,139182365436883
0,134337246350107
0,13828643708486
0,135743516509351
0,13655684823311
0,134202386737878
0,133557700074509
0,132268216054567
0,135704741853364
0,131037241942935
0,132273395040295
0,132410173947093
0,132974339790371
0,131013975462465
0,131383624333517
0,128406146656937
0,13298698734622
0,130721782123534
0,133536509743098
0,129600732510159
0,130310477391289
0,129378393588808
0,127643665009645
0,126261380418132
0,128718690858493
0,127217141389563
0,132332262231631
0,126802620867853
0,125918205450034
0,124091581533303
0,126640322850106
0,122908819999502
0,122180077638795
0,121520848571294
0,122479407185429
0,120250723024305
0,122387550668529
0,120973040250841
0,123706369239851
0,119574137295946
0,123012239241555
0,120169508672576
0,119567039614914
0,116892492014127
0,117541069940247
0,116202218765653
0,120427936341847
0,118390030478059
0,118516745053106
0,112630201868028
0,117568447879418
0,114608141038287
0,113771857763753
0,11362777266917
0,114524793036066
0,111987988302772
0,114946637356962
0,113155149803268
0,113504130750428
0,110357179380553
0,112168322038124
0,109718251590929
0,113103251956211
0,111265305319863
0,11253605339494
0,108470191359587
0,111237203300043
0,108024001255598
0,109487200023381
0,110489190408633
0,112159992081143
0,106265582063062
0,108405330125978
0,108394344137047
0,110022412679219
0,106740747325609
0,109161881471194
0,105980350135531
0,108075576503398
0,104477212351414
0,107773508195777
0,10558972770944
0,108310760084146
0,104207162398261
0,106113371304358
0,106225852602831
0,108575067134242
0,105408714994293
0,106580449675294
0,105352292113222
0,108448563675617
0,105203845082936
0,108814463290957
0,101810043391719
0,105576854619057
0,0987492096831805
0,103205582057654
0,0975228004242693
0,103340094052533
0,103479337825172
0,111775353750698
0,103665219187427
0,103607140305775
0,0952778826503014
0,100273702313776
0,100126967797799
0,100578258430175
0,0933518268692731
0,111430355480473
0,0974969909457216
0,101363095588771
0,100694812344289
0,0982333753910126
0,100125733563318
0,108631669874914
0,0973245406156878
0,10118059764398
0,0915461953837494
0,102856803137834
0,100261667531824
0,105325076463387
0,0947737868284683
0,10083504432989
0,0884858829005769
0,100851560147098
0,0935436360604052
0,10201033991906
0,0942116933788833
0,103082361879603
0,0917353234855725
0,103627353084711
0,0889926329901651
0,101413041397959
0,0856347424596027
0,0990427982989267
0,0890256029399566
0,103631305459428
0,0926535877387856
0,107734756770781
0,0912448956972149
0,0946048207506571
0,0830878211538578
0,100403673789585
0,092053302011693
0,103048896660901
0,0929618008520674
0,0925917517449804
0,0846829899922917
0,0977433874260614
0,104490640176715
0,0923334375530041
0,0927472045693141
0,0898695656378171
0,106047821210051
0,0822125977748886
0,104375413183663
0,0857017343231125
0,104968209495071
0,0792637710750259
0,104552480828739
0,08567138866424
0,101918497050341
0,0873366543748812
0,09824459072987
0,0870165310282681
0,0939027636206371
0,0920956182281574
0,0924604403971838
0,0897597377930734
0,0915698458945829
0,0892262888711573
0,0927106002572139
0,0895224886870197
0,0913067488639955
0,089486072081706
0,0924631235571773
0,0859117353711291
0,0891762915442465
0,0863605278526272
0,090367343569292
0,0887359136304836
0,0914440280532173
0,0857476218131776
0,0863803061487731
0,088986588985712
0,0899949264076661
0,0860668045024521
0,09156644441266
0,0890328034084342
0,0877681318086113
0,0860418814119273
0,088857862133886
0,0863152456674236
0,0894480811054173
0,0863840282195079
0,0892772511643408
0,0885493464911096
0,0893355613060661
0,0878281367603237
0,0889727786355905
0,0863424658958699
0,0886934662723405
0,0867831865208701
0,0905985943632855
0,0879668171979717
0,089267291523029
0,0869772401617448
0,0878345328163401
0,088770448667124
0,0902479832046639
0,0888473209278481
0,0899181772302507
0,0880748879184692
0,0888398705467514
0,0873139517514263
0,0903257343101071
0,0847503024777291
0,0878233477378321
0,0884982090385139
0,0871854556608879
0,0856762251192208
0,0889523362480163
0,0852754838182079
0,0875132109261143
0,0877964975369586
0,0875872507885022
0,0885321499062067
0,0900642688684772
0,0876283694306709
0,0899537174071067
0,0872439979064443
0,0869017362296092
0,0880459007536957
0,0881066568634104
0,0854209414594344
0,0868653580141
0,0868204217837833
0,087804915859944
0,0879905175023211
0,0868325789026661
0,0850556729799941
0,0860485501883263
0,086986704456169
0,0899335482550626
0,0871204046004316
0,0871372246130372
0,0889282953304746
0,0891700620416109
0,0839709183794087
0,0865302298654854
0,0874667226598304
0,0877846039343711
0,0867919021688268
0,0881636738935999
0,0867132610340925
0,0896772159121573
0,0879020504749183
0,0895210544059754
0,0887980717919025
0,0900401401339177
0,0883272013598135
0,0883832749922281
0,0889873954392278
0,0901710813283332
0,0872664569687855
0,0868732989863736
0,0871751001605463
0,0892636029720012
0,0892147746714233
0,0902783294335357
0,0875042682867612
0,0908254059114954
0,0906965540476603
0,088408192846112
0,0899181113272358
0,0914919325895743
0,0896068223370486
0,0904729501041476
0,089599678560029
0,0915427744030887
0,0903572240797198
0,0886428853686461
0,0872911787088651
0,0906287755173319
0,0913325287852663
0,0915806469039683
0,0884548432050612
0,0911438561395418
0,0917839761268473
0,0911097870043543
0,0896323405015007
0,0895103440379212
0,090099899181196
0,0897744829293261
0,0898291747839001
0,0929089858681068
0,0915428264795121
0,0928205492192255
0,0928434574340874
0,0915514601546463
0,0905824563588137
0,0899941099158971
0,0896314381631895
0,0930333677582668
0,0929461389687416
0,0931596522841618
0,091541953442728
0,0915060390758573
0,0936219575932669
0,0955791050939405
0,0899355496467062
0,0928963051961021
0,0938882362815219
0,0936109375030814
0,0929221219707205
0,0940026491779403
0,092897712730254
0,0926438497090739
0,0931723652748224
0,0934367546263477
0,0927656160796324
0,094463525119579
0,0950935621873308
0,0964364646931783
0,094100066345409
0,0966372686271513
0,0945844433982548
0,0936268542966491
0,0944430462100204
0,09709845747107
0,0958788736621576
0,0930869770889576
0,0937490200756946
0,0974812266689759
0,0949280713693008
0,0940698020444377
0,0933078721791551
0,0958761867099518
0,0952331693096053
0,0957776202499303
0,0943087700503476
0,0975217496605992
0,0940649887179797
0,0940777705117096
0,0942539944901293
0,0949917214346862
0,0926704253705652
0,093113762867047
0,0922913121549459
0,0943386013596436
0,0943823589511647
0,0934971612423536
0,0929214601124396
0,0938026188658169
0,0939771416268358
0,0925766726085908
0,0915637651053668
0,0937812763651974
0,0901542169285711
0,0921250841286556
0,0904997146518065
0,0911249558612425
0,0943564871660689
0,094341783591095
0,0906294835519754
0,091030302442454
0,0885875073128899
0,0911306082230976
0,0890556910486039
0,0885995332155326
0,0897481545429778
0,0909521133394302
0,092298621235456
0,0933176627200932
0,090548056726421
0,0895529979236258
0,0889448733709125
0,0917202670243095
0,0887860130535838
0,0896472538383638
0,0898993362538609
0,0922718678668521
0,0890449226953512
0,0876941953892271
0,0879996838997217
0,0877400108835619
0,0886007592342341
0,0885578734130642
0,0877853589606541
0,0888067327742312
0,0866868290985603
0,088246544373066
0,0879474371744214
0,089608274712527
0,0876429798785145
0,0883957931045336
0,0872263589460752
0,0895020716089306
0,0873925176619097
0,0872336524328747
0,0862641182657623
0,0892895963962043
0,0893076843706819
0,0905112762412461
0,0847721035193746
0,0870712246435508
0,0896765261885519
0,0874536985733641
0,0855229483279625
0,0882499113747495
0,0848154153152398
0,086897951236734
0,0867043386040609
0,0868043785354862
0,0845074799564983
0,0854533212729048
0,0848139799581141
0,0858406125894829
0,0861841088282281
0,0862267370555427
0,0844678762661054
0,0854369307738173
0,0854103027031672
0,0871755902310624
0,084996656073009
0,088301176676929
0,0894162379091359
0,0865680870210675
0,0840029513208204
0,0857103268065737
0,0845968784970725
0,0859937159435989
0,082559322667222
0,0840292838844569
0,0839528159619084
0,0866400739044254
0,0853655907084938
0,0838609740173466
0,0820530058674941
0,0831826180547941
0,0832027357796379
0,0833269246667387
0,084054768699368
0,0815183281725207
0,082576616479507
0,084412941224012
0,0795240460815808
0,0828182031270823
0,0817251613073617
0,083420059845286
0,080139306117347
0,0832949972469262
0,0835380070014128
0,0831055610902173
0,0820839533036835
0,0810940031962291
0,0786120879674095
0,0806825873414625
0,0794993882767094
0,0809764568076549
0,0791431814220598
0,0798029454739835
0,0777763460139261
0,0784659299494517
0,0777762559031277
0,0769826149887935
0,0760335272779676
0,078458459859065
0,0765326599358509
0,0783642577137218
0,0744781436107467
0,0780276386316796
0,0745498551511502
0,0764391116595963
0,0736051121908208
0,0750909271279474
0,0761820784291064
0,0765492210765564
0,0757116795724505
0,0751246337536153
0,0730818482653566
0,0726957277601229
0,0732999376629991
0,0709786830982059
0,0701781946834399
0,0705472785857388
0,0719534469490751
0,0735076558217879
0,0712309774433887
0,0695801727598861
0,0698566460661473
0,0702814154974426
0,0696147394077692
0,0711315859413823
0,0700184332646756
0,0671941272837983
0,0684828366956394
0,0689389751107484
0,0658951430712041
0,0678238714070699
0,0683655275100376
0,0665384466752541
0,0684247735290498
0,0641878070831983
0,0738914071011557
0,0729163462453298
0,0670410018402667
0,0681029375986068
0,0682933207344957
0,0697130212709193
0,064645868500008
0,0656618474725295
0,062685342878443
0,0662086196262386
0,0653526638450121
0,0669414926017226
0,0653295976592597
0,0660892711760109
0,0645772175988443
0,0656177541499041
0,0646152638387591
0,0653444830358633
0,0660381117895569
0,0662983177455721
0,0646797087801308
0,0639494869733051
0,0647530814221075
0,0639250973804815
0,0631888063193319
0,0637465521990879
0,0637736912221249
0,0712228495627916
0,0647313309642638
0,0685701569458525
0,0612049024610086
0,0627049463543653
0,059587192956646
0,0660556774535099
0,0640891639549881
0,0652030210269702
0,0629104400401941
0,063686569688307
0,0581166443655563
0,0636973051431133
0,0645272367363176
0,0655281882747225
0,0617710964675997
0,0631113513273529
0,061176476955986
0,0660589746934638
0,06125195024198
0,0646196493229399
0,0603836351291434
0,0632892415915179
0,0590619154733681
0,0677986690830922
0,0556783641154339
0,0659773385411502
0,0693143156964955
0,0656816690710014
0,0599822423215119
0,0604787936864309
0,0621792167223476
0,06175784429053
0,0594352585682102
0,0602995401892328
0,0615650567481575
0,0621725388682431
0,0616311858476869
0,059319856639966
0,0610568303599125
0,0619752990367307
0,0598069294395819
0,0617639362664946
0,0616312095519825
0,0613170001888233
0,0614597261830521
0,0576282289738728
0,0640192931238346
0,0738205065225851
0,0596406515228732
0,0641708349573005
0,0592848093299411
0,057716738502081
0,0728894990825157
0,0576519763734552
0,065480170805423
0,0558133057448152
0,0618754379859785
0,0549973968827498
0,0643505989936711
0,0540259128229015
0,0639252248276823
0,0615744163936721
0,0633755436509821
0,0625367863375021
0,0587955729092678
0,0603624924756076
0,0585786421454431
0,0613516368305002
0,0564708898240501
0,0604233415428985
0,0560016775528129
0,0566790816193956
0,0591201463991489
0,0589334224747873
0,0586792932233934
0,0559106602336892
0,0626309290558748
0,0567280298692351
0,0599711968176607
0,0567868769997173
0,0626244746383465
0,0544836744611632
0,0621818351863018
0,0667275658886751
0,05851908048592
0,0611125265351471
0,0548185610429259
0,0595512082503343
0,0549825542149271
0,0607034450221222
0,0546211731223181
0,058843788158856
0,0560530418783741
0,0631607460847825
0,0557867774132822
0,0598676386203607
0,054438473632126
0,058650338955002
0,0563257901132417
0,0578084665526708
0,0570834208316373
0,0586263353118083
0,0569487570791958
0,0573856613318342
0,069697133704006
0,0705262599642277
0,0723319110615875
0,0622006332438745
0,0654497111839679
0,0565687532773003
0,0587088619096577
0,0571320048891099
0,0590685339471278
0,0608567708791617
0,0570271333246231
0,0588932645543718
0,0580863283800757
0,0576930806307897
0,0570631451311528
0,0592345118158314
0,0557317150464963
0,0576340003955946
0,0538358985991105
0,0596627916155062
0,0544993865911924
0,0622399215178374
0,0519955901268641
0,0689329094884165
0,0562941873405004
0,0677599040070019
0,0465254922994994
0,0969795384828802
0,0594530194890463
0,0664805731564398
0,0565716067908822
0,0605922162958398
0,0569709689187488
0,0563153579142604
0,0577068260229096
0,0614391720733603
0,056931578050615
0,0609273782823027
0,0544789569999312
0,0616354347477818
0,0585509211514011
0,0541021798187116
0,0653616516082492
0,0817362476174097
0,0590479928058835
0,0685691906319382
0,0489629022945592
0,0703773652611539
0,0692340954959445
0,0538969434616492
0,0655668827292193
0,0562308622080053
0,0602483269297134
0,05814939826696
0,0607906508669592
0,0590918835527154
0,0616676212962624
0,058395212292315
0,0598832765714501
0,059585990273007
0,056004924086884
0,0649989414156796
0,0580104270511698
0,072489142023666
0,0673653144756171
0,0573388355523817
0,0653819049511003
0,0601826078918093
0,0611614622484924
0,0623621946118464
0,0621156936983314
0,0556129811509383
0,0678251050929677
0,0716361999187845
0,0618215118867182
0,0738207703250662
0,0661874033028676
0,0578518672481375
0,0649225525691386
0,0628695599604479
0,0747807885404765
0,0496039559840834
0,085092681144384
0,0699717108750134
0,0766483762179338
0,0776891708297919
0,0587460135185646
0,0661402336640576
0,0575155303373986
0,0660402600102924
0,0552961376565179
0,0907881032321203
0,0491333348117816
0,0774677678438644
0,0470388540711659
0,0881558322057483
0,0651984851262357
0,0736169412039737
0,062994600741016
0,0670845674421665
0,0582860748078915
0,085144730717372
0,0561863006256063
0,070315249884372
0,0792889022051082
0,0869378783785738
0,0926713801976441
0,0628867548544831
0,0621895177114559
0,0985456937483632
0,0613604648930975
0,0737443493156947
0,0574231512400399
0,076109451603082
0,0578492135781973
0,0787015121132661
0,0849085656177548
0,0686943009838685
0,0691185238992885
0,0726831233399499
0,0642852859017403
0,0925038833153129
0,0656134053099396
0,078870643331974
0,0639699660652609
0,0795380217943445
0,0555553275229925
0,138694572344446
0,0589236707380602
0,103294202173465
0,0770020624075559
0,0915653270547545
0,0772657762783579
0,0854077583519216
0,070515887937943
0,0894423068305431
0,0847742009901929
0,0842150443986113
0,0683068512493223
0,099410373149758
0,0877660870228728
0,0809271936972723
0,0905801408557061
0,0755114616013796
0,0817731087476019
0,112561353684051
0,114218443957503
0,105045998168542
0,0856358001124326
0,0867547474594717
0,111277083488102
0,0853891019019228
0,0909724300580961
0,0831247953273345
0,0888315502187022
0,0859561238294167
0,0812612406267248
0,100919221951704
0,0854858917716584
0,102567124206371
0,0869474319146701
0,101143748828395
0,0993927419175201
0,136882300299436
0,124826045144069
0,0974254070169923
0,148701103060702
0,11047269648701
0,116113449057913
0,0995483701357974
0,104483485265665
0,114271391217442
0,104768339596388
0,108799728968684
0,101352150741558
0,143172612194729
0,112507766749914
0,129773763026291
0,123667121655531
0,11916766435164
0,12733643886587
0,0949041912204249
0,322704031559489
0,118039501806796
0,162558046359206
0,118859610447353
0,167367112736965
0,179700273912961
0,14662304236389
0,145043187347995
0,148200017556495
0,142177771725693
0,158151667902789
0,157788060782948
0,162391379822921
0,172202787327514
0,171634292640185
0,163570437766426
0,20487835945897
0,223394764432496
0,235666298658573
0,199718886175996
0,185400852007876
0,206371356316812
0,212667768115563
0,19410174410778
0,222153341279619
0,199761034428535
0,22557783197255
0,25218979583435
0,22071644673231
0,234966635132476
0,22471471804607
0,278929024649927
0,211003943119683
0,325248126256991
0,244355228170594
0,27901938708983
0,247202496309117
0,271055534442252
0,262111066779841
0,261748203489943
0,303074517934627
0,290186794281743
0,289832052371698
0,291142606463915
0,28790084397558
0,294258201036428
0,291125576258678
0,304010700865501
0,286397483089939
0,363158394273155
0,302691683482639
0,516238935033124
0,313786372484785
0,326713935639924
0,304834314257672
0,317870487564646
0,352948384458497
0,320448808365623
0,369488157423671
0,326158714581333
0,317177470858648
0,327551917918327
0,31376083039545
0,320123508830067
0,310260545726309
0,3357026822314
0,296493116611491
0,366594865356896
0,2928227028444
0,38149916469768
0,344035728276506
0,327150028639998
0,310364782507093
0,324993274290354
0,305183141182481
0,322270872774446
0,303606751134618
0,321280514490098
0,333536573710001
0,304459096480263
0,314503546593609
0,287476333531009
0,332920992443382
0,325563318288467
0,296614892820152
0,306014684309935
0,283548766430416
0,307278222463609
0,275017290912624
0,306992740452031
0,325517690389597
0,28201698754745
0,287034970706158
0,27479669476321
0,280896602879744
0,274555346234645
0,270644412532022
0,276997373029589
0,268651877458455
0,262140145812654
0,277805733339758
0,260343648127199
0,268935818872072
0,253516181986032
0,270255072178076
0,258212676513505
0,262198889631737
0,257213213093189
0,258903578302533
0,257937208490674
0,253662141556667
0,258573033564031
0,252106596062823
0,257288250441882
0,255199743559781
0,245876357838427
0,254792528917097
0,249480454508159
0,24972085641235
0,247872122433448
0,245885189132474
0,248992372326439
0,247802850156204
0,247020450133195
0,243232746549572
0,246340949209974
0,242055862162244
0,246112037502555
0,239620250919578
0,245439913441224
0,236013452676404
0,24824367525694
0,222143910407864
0,311851859600332
0,236619617929534
0,24108929031483
0,235755867742
0,229512621801712
0,235173222096601
0,21746875750936
0,283357437613685
0,233170746688408
0,229791329362196
0,225329836901395
0,21623188942185
0,236989271160582
0,228535983658155
0,207664974494894
0,230904365392449
0,185965852773964
0,281748320613301
0,220954818776764
0,301381903485198
0,259831236568392
0,227233035361942
0,205044807286664
0,219602086878469
0,241391572880366
0,191526665953205
0,219500019505321
0,180252623713121
0,261078316308391
0,203762478801632
0,201727641716119
0,197230471514508
0,193486035295164
0,227329385604802
0,228068763220026
0,193661121990462
0,216815638783529
0,223634556934872
0,200302823371916
0,245333723507235
0,2324234096124
0,211600717812399
0,182272710009597
0,1927020078045
0,186770760432169
0,184571104790106
0,252739844867987
0,176129887710541
0,209534743213588
0,17352651281634
0,183566880879633
0,175452551437247
0,198015225846751
0,18786875150141
0,179978089104287
0,229926411636812
0,155042230114669
0,213086552993288
0,175432879932381
0,22660930889193
0,211501058992436
0,191997709632826
0,161801979642248
0,216161086172513
0,210531312330763
0,175685216449299
0,196023832368979
0,163374591649895
0,174996128985695
0,198443045395076
0,163001790355718
0,204642027916339
0,182249791897696
0,191262091419891
0,218585655460721
0,206068301677324
0,219302333717173
0,178650477286057
0,170406885255112
0,174820283442334
0,16897448558308
0,190689491274179
0,158614805167317
0,226540776387271
0,177576066776062
0,170335017942916
0,236709907791931
0,179827796070936
0,183584551464943
0,186809837140431
0,181644580806306
0,191151450978503
0,200147248708453
0,234768851590515
0,200968702896441
0,211495393813939
0,228121881366683
0,199194418892135
0,214938245466175
0,200643545
0,218397916648832
0,207394117073505
0,240228487069689
0,219880194001295
0,231331580356573
0,233851238344507
0,236918785159236
0,257239238266395
0,279614687129657
0,230563144349782
0,316387775049973
0,240900060316631
0,346786780237107
0,274770635068054
0,288678889361549
0,292545518465891
0,289333346329704
0,301012346394584
0,304357152336678
0,30272403225553
0,352431226938226
0,301338409984628
0,339865638818283
0,311385386812947
0,346971610212217
0,316638176130923
0,38987296933638
0,331445848643979
0,402428782951919
0,377664643853956
0,370145231488374
0,370276241374513
0,347279088086195
0,368939444628159
0,364956036152463
0,358317162811918
0,357267991294182
0,353088170301054
0,395297859367945
0,359503367269548
0,372641846899524
0,360619489187581
0,375397623875135
0,365496631518061
0,370938898574102
0,374914392728
0,376831690178872
0,372851841826531
0,387137999088359
0,362350676195946
0,476247520110468
0,382869351193609
0,400784450535474
0,390023589903775
0,402108278759394
0,398710473339647
0,396784601234884
0,414352563826409
0,415360267959009
0,409885625575778
0,427251547504489
0,413063917267329
0,425945841431675
0,412679268201991
0,459865446261371
0,404447280669585
0,449771083358116
0,402983057412917
0,472821458590081
0,463428779304926
0,443714509388709
0,463415334268725
0,43923016237171
0,450694911342147
0,441324073331663
0,446788577231044
0,445421004702156
0,453796119943634
0,441387980518071
0,452856816099761
0,443801635866251
0,446128712041037
0,451993146020748
0,434161949026065
0,470254919371025
0,437230120836051
0,444516629558649
0,430274799621447
0,442537188446008
0,427323523753337
0,473086259556343
0,439014880242696
0,441713238441958
0,442333959695555
0,436492846838564
0,447834510317352
0,446507419886565
0,424708085419995
0,435658931164335
0,426819226100788
0,435009699086643
0,428457480281889
0,443285500733386
0,461064079270024
0,439157746844736
0,446185187408056
0,440187395160547
0,452891956633776
0,449918513039846
0,458470270336582
0,450189770062208
0,458961270745878
0,458921769232857
0,464823852519474
0,463015437726477
0,469611523658564
0,483732373090023
0,482151297015147
0,488625751515141
0,4702058282966
0,475528296696842
0,474875036237129
0,479754108710819
0,485978879123548
0,474067157501404
0,477535833383905
0,473425755756587
0,475538374515289
0,466013385121425
0,506417450663762
0,46107185941521
0,484322203619864
0,463106820846529
0,460971965425312
0,459200599568522
0,460092568036443
0,456995829507206
0,453612948784686
0,456233656057517
0,448584449564596
0,451749667823921
0,452638301004999
0,4503091844467
0,444849304283373
0,448843644632286
0,445223792534048
0,444637641284351
0,444459182019925
0,441848652014018
0,441750953126562
0,436754918224719
0,441974466948743
0,432058019628998
0,453140857027627
0,448972193519902
0,457530669960367
0,447342076040009
0,439796258539884
0,446479058003256
0,433133992128256
0,440285910280091
0,430225471787628
0,440330865510668
0,435405478920983
0,440435535250669
0,429707249036455
0,433468814153523
0,42586540259465
0,428605263105178
0,420723694836427
0,429441844105116
0,41994218502113
0,421459221202207
0,414515937698007
0,424788320355972
0,408245139999294
0,417273070879144
0,410664575544263
0,408527935994978
0,409199859047581
0,398956847894698
0,409665976702599
0,402535684529991
0,407794628528345
0,399235982579147
0,400345703347226
0,403749656485289
0,397555426541182
0,404639183348878
0,403662485569437
0,398023007444753
0,390035301450602
0,395768629193286
0,394843135126575
0,394733137057448
0,387117413720775
0,392315449715822
0,389141646935925
0,384473038285497
0,381782590544536
0,380867501637987
0,376355355824022
0,372123247804349
0,3696517124638
0,368810882828817
0,36554556929947
0,359496578331585
0,358598706471206
0,354622616812867
0,35230956283262
0,353894132492206
0,346679812413978
0,347811432945784
0,34750826165396
0,348011241949218
0,34303543428267
0,344236522105321
0,343547392952694
0,344998727983386
0,342829771873531
0,338561300925485
0,345224718801411
0,342816518288519
0,339923407015389
0,344380756804679
0,347818748151486
0,345305536912639
0,347157322831155
0,346302490761635
0,347152635037916
0,347680350490089
0,347975798516043
0,35329624036358
0,355997702364651
0,352801450507058
0,3517225677616
0,355026990734969
0,355143055808161
0,355636499612273
0,358501615047812
0,355955169172748
0,356970073695963
0,356419503939127
0,358078221325133
0,358130765314855
0,35551461009267
0,356519387280686
0,355381599621268
0,354925317506962
0,357155389290584
0,356338397584898
0,353313766146597
0,356259196205595
0,353147738499469
0,351927085609333
0,350467824554421
0,353968070566788
0,348766429439059
0,349983492087995
0,350200280139637
0,346719574320476
0,342910377109564
0,348183485356073
0,345335343752483
0,344287012840608
0,342114583271502
0,34162132082579
0,340527151283493
0,336725981713252
0,33375556505044
0,335051992385543
0,334950440313027
0,334221151926488
0,329601731014322
0,329203489803861
0,325088989270619
0,324568377350447
0,325729870779496
0,321929363002181
0,317508243216211
0,318008014591863
0,311105490756949
0,310675882722214
0,309161445994774
0,30751806559254
0,305507706685545
0,300777143194208
0,297328188596368
0,297500685941672
0,295830052797072
0,296497386961151
0,294727583864484
0,294427718765851
0,293025139986615
0,292962962054495
0,292851082426574
0,292005673772783
0,292208324386768
0,29151319072064
0,290394412508625
0,290507629664668
0,290162627033938
0,289516065436191
0,288560240310003
0,289082605327508
0,287523207479476
0,283270994445803
0,279923962357328
0,276482154156406
0,272422455697392
0,271171802162707
0,266804119482444
0,26264576347208
0,256436477174858
0,253876700207419
0,248112773426798
0,245289338785128
0,240400378443554
0,242103509456616
0,240480526571172
0,238647008796586
0,237840801874511
0,237815395345024
0,240146099248236
0,246160531097078
0,246413175742602
0,250549437395807
0,258861654276427
0,263258281659579
0,272190992033814
0,282331925839205
0,291125176970711
0,301092792757138
0,314282248549445
0,325291281708387
0,337782288936932
0,35487533607431
0,367565501594651
0,383465743730333
0,40238945174616
0,423280022625735
0,439073659365527
0,459120224558252
0,482796485947064
0,504571580797844
0,524855230751001
0,54841196470779
0,566865651601332
0,588611554683942
0,612425759989906
0,628581391110727
0,651055982434461
0,671693808737894
0,686917882435009
0,699415530679215
0,706976149240939
0,7185504347103
0,730941791442858
0,729617540364642
0,740992900681937
0,74385210877101
0,733160214531925
0,734574444418524
0,736123666824607
0,722005215697302
0,721144886624446
0,7182830332411
0,705390302809015
0,698141071952478
0,6949214820087
0,683710780191568
0,67606491863871
0,67074424846255
0,661498971350598
0,66747146534261
0,654945512092208
0,658207467720695
0,662225731434576
0,663508790066105
0,664129942618719
0,668918422536861
0,677553596777847
0,676331475631371
0,683458060112226
0,691625381422187
0,69739927494859
0,708318786474566
0,718424099881191
0,719491765896215
0,72876299224005
0,733586234541314
0,738496259658344
0,746062084100605
0,746090102165958
0,757922493761227
0,763852692282517
0,770738547958843
0,768122443978715
0,777508642565477
0,774188264432569
0,778005856204699
0,77745303073042
0,780757922800905
0,786516307208045
0,789872250329648
0,786041048564895
0,791623630686287
0,801715431836842
0,805046478228811
0,816254148642357
0,816649931215757
0,816930328658678
0,821697649857327
0,826695627446707
0,830463225440818
0,834865843840799
0,835851992974277
0,851485741294583
0,853339783591565
0,848068580761448
0,870747369523535
0,881994192193526
0,886342105904725
0,904023034037062
0,920097191734704
0,941484455011027
0,957740418806647
0,983996673636566
1,01177339568001
1,03373487454298
1,06543617420189
1,09414473511629
1,11832290469015
1,15065864525204
1,16765528724344
1,2018426140284
1,1869143936704
1,21294996345473
1,22539132877777
1,22433545276836
1,23841335122292
1,22537626068936
1,21297780840607
1,20430680930945
1,19899141054901
1,21839566693457
1,20231103457138
1,19708192440532
1,18797447665669
1,17813909571129
1,15893320318298
1,14680099431776
1,1703240268783
1,19883546573951
1,19665802792
1,20353816356101
1,21554139308223
1,23754555595255
1,23857138118461
1,2495922917884
1,27910367605406
1,29458074638573
1,31499315566237
1,30727576845287
1,32670679524268
1,36733950993615
1,38791185027162
1,3853272342778
1,39962953020444
1,43076609194158
1,44048226475725
1,44597078950238
1,48508051421093
1,48916529766353
1,49059711926578
1,58674073062095
1,591985042666
1,56852297079275
1,57841987698989
1,58881931830517
1,68130726303454
1,68629105241946
1,66838592906413
1,69421299703493
1,7034405119993
1,75185576633556
1,80501487466722
1,87460888109487
1,7683098465391
1,81306265585101
1,90273434867109
1,91979084803632
1,86241917512465
1,90017384049137
1,8772854131394
1,93443642702512
1,97268871698158
1,87261693328692
1,98810301681695
2,00101647896357
2,110507258843
2,03953559084792
1,91645456830119
1,97240990383615
1,86876546829546
1,89319475746185
1,90524441394473
1,84015838618032
1,82013054936158
1,82225762210394
1,73223231157969
1,76098900243358
1,78164406065749
1,66843124878135
1,63407818309897
1,63045723922556
1,60010195796374
1,6718089335795
1,61565491789772
1,59164634068921
1,58618959917819
1,56338070429111
1,59150944743884
1,57463163913359
1,52433970927427
1,52504167696202
1,4832248543143
1,49633313786642
1,45063313145427
1,44365299094505
1,41103061439755
1,40513522539731
1,3678696476711
1,28998588768019
1,25231073241603
1,24730555817163
1,19168356516319
1,16754971644225
1,14673863122372
1,12681464178044
1,07820130145719
1,05734050550736
1,02830795110955
0,990875801209481
0,942689852484168
0,905591656949766
0,870248397169099
0,83850899778567
0,793609663135062
0,764647230033195
0,732581698810973
0,700943668800633
0,665995748663813
0,637079289865471
0,614737165857567
0,596713595895326
0,568682163925802
0,546573132229913
0,535494501214119
0,521549766199751
0,499567377655089
0,490198344747679
0,481861702134693
0,475220419482628
0,469015311233381
0,460456305575861
0,453318740872905
0,451829926696432
0,445775522856754
0,440070238746789
0,44175953140778
0,438376112497006
0,440220677332532
0,448057906449289
0,450486287738575
0,453749322117184
0,446751618831094
0,453914671006368
0,456309989407924
0,461691978605383
0,466483458093404
0,468648426406229
0,476720060125465
0,48172045859646
0,481738790757232
0,484299138419572
0,487533109498895
0,495378277199876
0,488270981197489
0,495628156553336
0,490517057054648
0,494003063875394
0,497622754559298
0,494490484968218
0,49483404169177
0,495966212159634
0,49674056393695
0,499655828832486
0,491182405889631
0,494698718617942
0,493324260125753
0,494346182699275
0,493057525874814
0,493846657313893
0,486147026926732
0,49057639882368
0,484275884774712
0,482563393465407
0,480187502274145
0,472052714621771
0,468937141510159
0,469768362363372
0,460275574357416
0,462369654400221
0,456454455232217
0,456741292004824
0,458567942933266
0,45607751993242
0,450909676271365
0,450860821136384
0,459884567480079
0,456557920073057
0,45094057539035
0,460536296220573
0,456628696528702
0,46560483618898
0,466647951574427
0,474168424916921
0,475365169766899
0,477710957881427
0,486258652741336
0,498464954951641
0,492997555746526
0,498484918179348
0,498444963646381
0,494299730872043
0,487923769851937
0,481371488231031
0,472016012738537
0,468983501511495
0,460005882292551
0,456012577102528
0,445295671388987
0,444383922829578
0,440661360192659
0,439589604389549
0,43630341155565
0,434266100930563
0,440066796934589
0,439815814514958
0,436115237841718
0,438506452787375
0,440560432599449
0,450562228845174
0,446564411518624
0,446888836107447
0,446703344124783
0,447663888825668
0,444211579832437
0,45703642445639
0,450250640525938
0,453463976097918
0,462093894917092
0,460307815200207
0,458965729912347
0,462170332533021
0,458443663211143
0,460332803036564
0,464170287720598
0,463628373175525
0,448902846751857
0,461038224849926
0,459530246458546
0,457237497547144
0,45585282225996
0,458899747488853
0,454618308240114
0,459786439210582
0,450875726263728
0,455646356984895
0,449753740786493
0,463840011536959
0,467753251840534
0,455159662355679
0,450911486435291
0,459682054598138
0,451853757477106
0,456147393867254
0,449540789973727
0,443816375719193
0,4438991450887
0,445752816949658
0,443641005937761
0,439576642013634
0,436755849688317
0,425473188129076
0,420988771735619
0,415857929612839
0,422694176275587
0,415800746140414
0,392498019114445
0,397738492189541
0,406363521480117
0,409316032913912
0,39839493640476
0,397045622670152
0,391710898807082
0,39952153279692
0,400362615527201
0,406778370615482
0,410674178177659
0,397119871835606
0,392969113061599
0,405654305306475
0,398242362631435
0,391706924713162
0,39545292222326
0,406256711106425
0,392196018192244
0,413117092698632
0,412409580018895
0,405505547637153
0,411260391830342
0,4052202460725
0,409627485105521
0,43441352373943
0,418794463000261
0,41374225401147
0,419016670651531
0,436820260212492
0,449419533266474
0,437068943714293
0,445074385617918
0,464574243519516
0,45590356004437
0,465706975589409
0,479754788892295
0,472514512212665
0,475553290851385
0,504797347329404
0,504307448667627
0,523120031909065
0,527456923926503
0,540405318307488
0,547093273150272
0,534582399480616
0,543269689810508
0,584064383032551
0,554916613922543
0,560023692080394
0,57092428207807
0,57573086950204
0,579542978469635
0,59582341487691
0,5702366249936
0,584126017855728
0,603421557273258
0,595425489917247
0,590974360600803
0,599963511571559
0,580130758352183
0,594371564257874
0,57541858128244
0,58616836604736
0,631993905874549
0,620475452466228
0,621893192784484
0,625034551087663
0,610454808075831
0,629767145934175
0,616764928053876
0,626100038470732
0,60959843068784
0,647552441019556
0,636531686920643
0,628611558874669
0,651613960491773
0,636529067701046
0,617379243258866
0,615159948841934
0,62638205466512
0,634542091986261
0,606686427016993
0,606523519344457
0,604482075820671
0,579891706866957
0,563641194159756
0,603450076893834
0,6126279418136
0,584449980331668
0,584475609929813
0,584448603004866
0,598113040689494
0,642672101044792
0,606695212486694
0,590606763551941
0,588328624282102
0,592452071300021
0,593840614805102
0,568878399830372
0,566715485882645
0,567011504379015
0,573658572125959
0,572569726197844
0,582862628080704
0,575901443828323
0,574421999513817
0,617663602148395
0,583050970394989
0,616193577717229
0,616819951339056
0,584437273751548
0,614650302738694
0,621896774303201
0,607100888818408
0,678188249756907
0,677629999238392
0,654054008726349
0,640482343241287
0,639416994239561
0,635702607711888
0,674800794871189
0,695997608443345
0,653829773739223
0,664041101930941
0,743128718937943
0,700107338242545
0,767933660552149
0,788432936300506
0,783834732183187
0,743679449287669
0,66151485402167
0,716859571786816
0,692522566376926
0,740756812120557
0,747583424593109
0,743499383621891
0,725018946867146
0,722576359734297
0,71071646981791
0,715585388212787
0,774877466400041
0,737310001865891
0,78875758215384
0,729331972015995
0,708438400622932
0,771956715491927
0,728484488589788
0,724389231909396
0,642438583047197
0,646765267636103
0,782193693886135
0,832287842419212
0,783773288180019
0,823749848261381
0,65837914770332
0,666000767780055
0,790965616870795
0,672748224522239
0,697187253227365
0,646132508509004
0,69982216023634
0,763177289723037
0,691110868543949
0,767212646438524
0,714624177922262
0,771066546859188
0,867343087643788
0,935970331019265
0,809434119547386
0,738076139555983
0,763067561848434
0,873220534083062
0,884696590388101
0,627298621973777
0,566819848857539
0,669758606876438
0,74238178003693
0,879754324615775
0,629896611921907
0,698121825100702
1,1437450876926
0,748353034415804
0,730212237671942
1,09169324759886
0,570507112455724
0,576355581602664
0,736973393367522
0,929993440520074
0,643343871444161
0,559746951967805
0,648781838433526
0,639069045038828
0,876354566275993
0,878813280707371
