3596
4000,36533379555
650,420452594757
1
2
2
0,0598897338461907
0,0554811104806004
0,0523773398748389
0,0490551801436576
0,0580692741477644
0,0427068760082727
0,0552198339436056
0,0500069201407317
0,0648101229213074
0,0524731174572579
0,0615301071279587
0,0519680767631616
0,0607943612242431
0,0588877718589445
0,0524281901944071
0,0492211993927267
0,0549815964901996
0,0597558614205115
0,0550384942919458
0,0603803842994413
0,0556202124431999
0,0607285940834003
0,0550515782657318
0,0513404667780101
0,0481282040585011
0,0520590279033719
0,0543415635319708
0,0584155545883952
0,0568616478545449
0,0531764639234222
0,0655415948314527
0,0527415383040341
0,0567944389450855
0,0545480228360559
0,0566820157216093
0,0489355983590639
0,0540506225033262
0,0495643023070542
0,0617710967089841
0,0515656923554357
0,0549340662773404
0,053124228713705
0,0587697667495108
0,0515852355353045
0,0491064502163846
0,058418818264881
0,0466069510251411
0,0529287559905603
0,0571355103423373
0,0567742530535119
0,0483399439676739
0,0622584730257335
0,0579389007821733
0,0503283782791862
0,0526287313732546
0,0494338312138675
0,0556843233095987
0,0454526264282882
0,0567635217231561
0,0545820580971979
0,0635334658360197
0,0457723275618093
0,0552326687507792
0,0525334049334781
0,0515314854529006
0,0449404136686592
0,0486161258433919
0,0410620839442919
0,056392260021617
0,0474573858593779
0,0503995556219863
0,0583697049928227
0,0511115267384366
0,059449771603614
0,0514168495613269
0,0468500271859477
0,0434638671089114
0,0373013391364078
0,0572339084261728
0,0393414751872775
0,0552379990772054
0,0374375074766877
0,0513234331313008
0,0404426294921534
0,0567713006846628
0,0452675077227753
0,0523838348874112
0,0445136033402632
0,0485223619526057
0,0486635400618617
0,0457406826231569
0,0542394991355451
0,0467299888945535
0,0492117310979389
0,0477335880964172
0,0433979894548531
0,0488057519701111
0,0513512610331257
0,0449763966436224
0,0401289316307497
0,0423618313834572
0,058791063609643
0,0405866848294704
0,0528159780859394
0,0449593735232162
0,0410851097361869
0,0515577993475311
0,0344426724677294
0,056883605716061
0,0368381094948618
0,0458185416907616
0,0350375306037738
0,0478639321200138
0,0339603700641937
0,0661501075522974
0,0400553262249
0,0497547581149489
0,0488929400376139
0,0402638112824699
0,0337948555007346
0,0347485963902736
0,0542964630337802
0,0365910323886181
0,0485068944555271
0,0379301694211061
0,0427994391334091
0,0320824226111334
0,0434636732088465
0,0461219476671206
0,0467869369034019
0,0436925462499081
0,0419610606064188
0,0375536537882501
0,0398292399592031
0,0534254801894123
0,0469097928364076
0,0525685934103386
0,0486929301224941
0,0624793586632163
0,0342695875041795
0,0502880930940043
0,0267253767470641
0,0466703778645055
0,0370855445551743
0,0526149721851586
0,049213705017248
0,0425400594145188
0,0514419003693883
0,0311480963046281
0,0471006367895781
0,0327644058263012
0,0449482383860637
0,0360618380065491
0,0438475763822961
0,0436980731215412
0,0329807149344651
0,0503566249901735
0,0734061530309522
0,0356797450075365
0,0520796341167249
0,0376928567049452
0,0424968743561948
0,0368741378995727
0,0372925113052054
0,0479659774798801
0,0416269182235771
0,053433025336552
0,0325989601095326
0,0452950050835186
0,0380094674571084
0,0522489626947411
0,0293808480529681
0,0498149146480452
0,0469087121709026
0,0394623123302804
0,0516229832895438
0,0367258631471845
0,0606671366109199
0,0305945726190279
0,0534072157525504
0,0254470632634292
0,0447339590847315
0,0302661593397777
0,0465505630728625
0,0378673017456994
0,0505107755729164
0,0445461947117364
0,0495083692800011
0,0432462620423575
0,0382782349012661
0,0477853030601261
0,0301863523678169
0,057096730108879
0,0398872058076726
0,0348750012061458
0,0385497512979827
0,0611632773718434
0,0473875248964327
0,047585211578695
0,0457227976790474
0,0512227020127314
0,0453396726959337
0,0352754977449671
0,0493816865563798
0,0327178698806503
0,0604651793490358
0,0331970920035609
0,064000280698221
0,039768943923863
0,0512889947889401
0,0287921098487732
0,0578856258066018
0,0431811802723902
0,0587250044929824
0,0438658130761398
0,0392316263015847
0,048608517124957
0,0484850651497708
0,0577275774807809
0,0412994615315039
0,0562335201869027
0,0354323941730402
0,0568321565290485
0,0407086658218301
0,0528259196721888
0,0385392730011453
0,0461935180832538
0,0502721271965858
0,0485886982124559
0,0562447728749902
0,0496750573268571
0,0566944962796034
0,0425331608666626
0,0569088738940754
0,0328553294046467
0,0634539117369437
0,0409935462168413
0,0596078377319643
0,0419701096222461
0,0579718909890093
0,0501827131867196
0,0578266142043814
0,0510065648441021
0,0505869267623659
0,0480489668065637
0,0498598610891486
0,0589733647045963
0,0530540519777122
0,0507322847815295
0,0528364333753009
0,0563904910474105
0,0474521087176719
0,0558378404880214
0,046757940872802
0,0477911372313299
0,0552182052340498
0,0485663186537509
0,058440940927779
0,0507014532862562
0,0726714648752271
0,0463777845633326
0,069177148994023
0,0425665001416184
0,0609671928743944
0,0542048295259137
0,0686580067018868
0,0483377140587291
0,060371160070006
0,0394646198418229
0,0634907735902928
0,0446294453674395
0,0499964223994516
0,0727435170612647
0,0526174287062358
0,0839735051658705
0,0413890940834336
0,0651293306660486
0,0392881758235932
0,0688358844500238
0,0408698346809795
0,0708243668495425
0,055678365640897
0,0674275492915097
0,0686514385549282
0,0500384752867411
0,0751762295475532
0,0432168084661072
0,0611692427295852
0,0434490967404999
0,0639297246313656
0,0435886507164605
0,0763754326642925
0,0467639702974669
0,0717053156255379
0,0494246960091932
0,0591437574288057
0,0568167627401134
0,0644314238855221
0,0552640930565144
0,0578135180720461
0,0679727985644995
0,0547012991067661
0,071124039107601
0,0550364836015419
0,0751719870107371
0,0561654801074864
0,074080006815455
0,0599803933707457
0,0644831037287564
0,0583291534768453
0,068715899340574
0,062828343337948
0,0661362704033509
0,05854398622595
0,0689769585436363
0,0655693963198417
0,0608463128462601
0,0670570105288363
0,0630618369390363
0,0716930975811974
0,0625612747028866
0,066114718552502
0,0667860312371626
0,0722286968911747
0,0666571972016773
0,0724687861735284
0,0753598447275781
0,0688446847770687
0,0701970889781284
0,0669708032937344
0,0770372763112693
0,065103609124004
0,0893325417054721
0,051923025293597
0,0936203017764594
0,0622927559478645
0,0881581598914193
0,07904186044106
0,0796098156098579
0,0767962854908981
0,0784397074956606
0,0868212205866714
0,0848538805410347
0,0908732977759541
0,084720709937506
0,094633365502388
0,0885748499777618
0,106464157493227
0,0881816398477702
0,103372928559999
0,0771939085391958
0,101866621226794
0,0863903071877868
0,113714905282987
0,0920745817631012
0,101339048091374
0,112961126679051
0,0970535418847255
0,115276339320023
0,0957848482269234
0,115114476581248
0,106119814415895
0,123826658666692
0,1104294952771
0,132016038139009
0,116592228398594
0,131828842513608
0,138965618722244
0,132689231555735
0,137849996062648
0,132438592720876
0,12774229386642
0,14013429772427
0,143373532980097
0,148161423720389
0,159463539367066
0,149575476831515
0,158041694581286
0,149161784911327
0,167602567806477
0,148018354077023
0,163352233537388
0,162797083954202
0,167409055194121
0,175285395881473
0,174865625085735
0,187599655605111
0,188184968597935
0,190929591669698
0,193002829652004
0,195297470511669
0,197337307368193
0,199195893830675
0,213116179228061
0,184569570681058
0,20617952746455
0,202412198965316
0,235134433272315
0,193705756791616
0,227434207190367
0,213342669794776
0,235478985273873
0,225861508987287
0,225684139770803
0,239646536262597
0,23712914386062
0,263604744894691
0,260827806867193
0,269469683216698
0,258027836550847
0,247551005814679
0,257377473852365
0,260796097141387
0,27638313777923
0,257504662795678
0,290419079586665
0,287438757709177
0,286766564417707
0,283722646402039
0,301842441369045
0,297631666919062
0,308511846889964
0,304551960589656
0,311280983820055
0,299634150763425
0,31178766699545
0,323963109534286
0,336721995851061
0,333057013064584
0,336888184995515
0,332766932572529
0,337176197047059
0,355448487542138
0,354382763033863
0,355922641528502
0,351161048221609
0,360713748184402
0,381814940107235
0,364924441798909
0,380782372038078
0,390797564572023
0,405872660138815
0,392717338727955
0,39364569941455
0,401846408220635
0,398447850437293
0,402160328683748
0,414818870961476
0,40121196148123
0,422029173896422
0,417341046191801
0,443430893324905
0,43434450003981
0,461973168725127
0,429129896803567
0,457290357910625
0,458249364076391
0,469753597352584
0,471335133708373
0,479493258380127
0,487857245057892
0,499158263385296
0,494936463859187
0,507771413882435
0,527749171670317
0,494966962562866
0,491552170849032
0,510093981860019
0,518845209294896
0,504148925074455
0,534186145148085
0,533266636481252
0,537100920062337
0,552462213056323
0,533124852117372
0,55163685177804
0,538305460485123
0,584481837623939
0,560217371445032
0,59437365598198
0,555205639821898
0,597684801210815
0,585933707180295
0,608089186182674
0,606660925288862
0,618571160533872
0,58599621130861
0,616172703868558
0,607765366271875
0,608728601178425
0,636720185200786
0,654518071182406
0,657277686971879
0,656756207429743
0,654477870381642
0,654671270645304
0,659774979617294
0,671290143926859
0,664050626669574
0,666490634275517
0,657931934456418
0,721195626464631
0,673376233175247
0,728929469947807
0,68003413087213
0,7352176062692
0,672639146339584
0,706643874279875
0,703022316916779
0,72299380647433
0,693814351760971
0,766098666052522
0,732272002434538
0,773414764330016
0,771249245707127
0,790997472847866
0,773943229302431
0,787887489013445
0,806221215437926
0,722771227464735
0,803703205056925
0,803871417749418
0,782313925611354
0,809156095660562
0,824231860269488
0,813327924426073
0,859076936436655
0,885798352445138
0,764553545734817
0,854764436898645
0,825983922617495
0,896573402355822
0,851417773404935
0,869352792572743
0,831438102808488
0,911640415364446
0,928320367799015
0,915789756029365
0,867255931215241
0,905848576458412
0,857165673517492
0,89094265301294
0,85876446690282
0,911593106698212
0,899009185196226
0,912555802257396
0,917226814599594
0,926574865617481
0,934379211453529
0,955310265204283
0,915399612946597
0,942710114416215
0,972763510453105
1,02725844867196
0,974029797845364
0,989145161882937
0,963533315534223
1,03360087288104
0,964203473915734
1,03489308174294
1,00346574805102
1,05684801662543
0,9674729125706
1,09920350495068
0,988736190725168
1,0531149776775
0,944209637283651
0,968785466057491
0,978689488038897
1,10045479983906
1,00644932465358
1,04779911237211
1,07396981526755
1,10916943019889
1,02336564563252
1,12854088270514
1,11114452916601
1,08799414240354
1,0401277582965
1,10696789652666
1,1011657466956
1,15458438527308
1,10985363245794
1,1247941589369
1,12305806878063
1,204342752303
1,07067938085679
1,11175041090571
1,11195940419315
1,26506592741907
1,14301794066552
1,1556451616168
1,12903239883896
1,27899716177041
1,16891873959024
1,26510947773654
1,09802083018668
1,19722585173235
1,24250843999119
1,26652773926178
1,13492360753779
1,19763203653995
1,21789080635803
1,25923486224533
1,19541252234392
1,18864083418395
1,22378290400115
1,26197266431683
1,23730898259661
1,21790645498294
1,22045156058731
1,2786376403691
1,21512474169076
1,31644097854284
1,30194883247011
1,34409111448752
1,23126488303405
1,29863566534858
1,2004405519385
1,34641995497591
1,2723826263779
1,36942712944047
1,3124407277616
1,40167360554907
1,24341115540018
1,30138716909303
1,28003012963721
1,46475425172455
1,27642818906754
1,28259572152558
1,377918278138
1,34246540617054
1,31300332468001
1,29716407962392
1,33981489348565
1,4230492515079
1,34115523210121
1,33493875248598
1,30086383076682
1,38583518834674
1,23833095813221
1,36357092431966
1,30167123725103
1,47585983192546
1,33277868979252
1,58344940561249
1,49963867545855
1,56512008167354
1,4936822043879
1,46074341547719
1,35277267655276
1,46546707056282
1,41532359969246
1,53061658655846
1,31617954230679
1,4584666152941
1,39975100529609
1,31844999536594
1,48161751896448
1,43731156641977
1,3831490269827
1,31153644114071
1,33250272455786
1,57495500227387
1,41375939270943
1,47529175540698
1,44097756101998
1,45016148528451
1,38850429030271
1,75250813107138
1,48848609559276
1,62752870176603
1,35954893210298
1,49181510540598
1,53263148653642
1,48679005798174
1,48036375824371
1,68947821817235
1,45661603350746
1,67185858455194
1,61979178403279
1,52790949135532
1,47714346733765
1,6541873962781
1,50037494031059
1,40506050854821
1,41935525473624
1,56367816950732
1,42191846202756
1,49393509446355
1,58529471320906
1,56738565810972
1,41402369233713
1,61229113047743
1,51444586186632
1,57352524891127
1,5484355760427
1,51268371807635
1,54924412217238
1,87033354089488
1,51741579003549
1,4235505549261
1,57963155572247
1,60286896217649
1,42962509044341
1,5425756800873
1,54162749752806
1,71033017319014
1,46576089654119
1,57210776096205
1,62962849342126
1,55140599231333
1,62362065552408
1,65934796388059
1,58959148829529
1,58980451399691
1,54806099555926
1,790175472083
1,76088892900755
1,57294920172604
1,8504902003417
1,74945086266607
1,56342791213393
1,69091834961276
1,65201916013452
1,59814512949926
1,51952436949015
1,54207217235583
1,63254375010832
1,85291908738425
1,5577451221989
1,61241157181394
1,69424947147161
1,56171680381928
1,5656584113695
1,61931465018897
1,54675993140733
1,61689475688601
1,55273566266187
1,67323442087001
1,630811318486
1,57728650504601
1,51302451548956
1,57962976188053
1,59024058496145
1,65016833979597
1,57690433592946
1,82593199472672
1,57128657495795
1,62316730074205
1,73556668244274
1,61447879826708
1,67208514510873
1,74365671181284
1,53697362433397
1,74300999629525
1,65495234077059
1,58788278190002
1,48176252480778
1,71776297407941
1,66206419264794
1,60184135269074
1,69134668004761
1,72382154674316
1,63574690925401
1,74325386386091
1,51226195224785
1,59576948924519
1,54032736916953
1,69466417671496
1,70507932014442
1,55652231584648
1,64033081431011
1,9081762077117
1,64310466284769
1,67153770225631
1,706542319379
1,72251356768938
1,65560264634173
1,7088084571147
1,64816915426624
1,60892432957672
1,58839843022503
1,62575950296244
1,70592961930967
1,59379898715651
1,58574145003514
1,8273124609812
1,6212034528893
1,73147244324279
1,61995615245822
1,70591901138406
1,73394594506304
1,64928358301025
1,61762356808556
1,61066651347981
1,58312911000466
1,63141118233449
1,57370291246795
1,56850354771589
1,44844730835764
1,66684451002678
1,50234532772968
1,55175164069962
1,58740765602963
1,70150294110603
1,48324634349119
1,72371937187371
1,71518396732673
1,57918018824785
1,58270342831413
1,65574372940258
1,81597627177312
1,75376712253089
1,47666017662612
1,5709255020452
1,56644269639678
1,63153457952131
1,60194755552574
1,62029388735539
1,61238923922482
1,8214263554837
1,64099288771325
1,56701369316174
1,65296486516359
1,5440168053186
1,46624564210739
1,53858918042167
1,63860844652102
1,5235177224516
1,52208792671908
1,55697287571046
1,50022153904857
1,50337558636961
1,62157538578336
1,55766318584476
1,4954967509587
1,54565261919946
1,61031948683814
1,5846628141471
1,48926375846194
1,51769139305583
1,51803868145405
1,53104847996031
1,55091472104304
1,49697227268119
1,52741903373776
1,55024128201019
1,36813645695626
1,54227722410266
1,51769357922931
1,4938789538101
1,45660518051081
1,51674601958341
1,50449639171365
1,43853042472192
1,46320856177304
1,44048440303276
1,51042829471634
1,56358840426822
1,46420306256057
1,47147654546824
1,392012288375
1,45733884437186
1,37960144563824
1,44047007908138
1,4534829485842
1,42320037420979
1,36713471771356
1,38851345310911
1,4301061709053
1,43247696200072
1,38340896614422
1,41196875594687
1,36124220371488
1,30764842049909
1,31257000101298
1,36036952650561
1,36764617160762
1,41160717214235
1,35741400522897
1,38355456906278
1,32835059715347
1,25897326651545
1,33889347214977
1,30213708779096
1,29959620391325
1,35283122096191
1,26032877874026
1,28322309122608
1,23790516052071
1,31162508848479
1,26347217497918
1,29100535583945
1,23400127364609
1,30321618052684
1,29848425677272
1,28501296353519
1,24614077087195
1,23722330747776
1,20527693410273
1,21627858699133
1,25565024811201
1,2695736269858
1,23939768142099
1,19179143245892
1,18669061050367
1,1957158443217
1,17982784730811
1,17697946459556
1,19525402813598
1,1505822348755
1,16151636753131
1,18061968870856
1,15232968129458
1,15283134342537
1,11187313177317
1,18331952425761
1,13878878254277
1,11074529058296
1,10044926517031
1,13317165276667
1,09590577207034
1,08810512968536
1,11755146844184
1,06982517657523
1,09089790995548
1,06532728720081
1,09374871756054
1,06089082189974
1,03552110106895
1,06527276528026
1,05350175013607
1,06429706592917
1,07149431440449
1,02475239907033
1,01307781921038
1,04040263244925
1,01815595056244
1,01774489506762
0,965287864676949
1,00898212509335
0,974756367976713
0,977088325500523
0,956618182498166
0,969794525162052
0,954192994883878
0,981949574677614
0,937823986144545
0,959361092185206
0,951352305008192
0,963372855165802
0,96019225547532
0,97376613943015
0,927532802631819
0,922998476765557
0,922019664370809
0,931420365525943
0,9263106196389
0,910566069781277
0,913718715739506
0,893909619962255
0,895541456626149
0,879900156994518
0,884343819052514
0,899433739220035
0,884448509388808
0,885147609294945
0,844898959570199
0,864038225440004
0,848932638455548
0,848910344341083
0,841399719332441
0,860567743634026
0,850440466849908
0,852277713970738
0,808976283200178
0,82611076686541
0,807977237151499
0,812923105784685
0,82280366838705
0,811341019764778
0,801450934532683
0,805973068016074
0,779504620790615
0,777542315244676
0,794561695224052
0,791090618667509
0,798891414389622
0,76967348030793
0,776477132621842
0,766671330569792
0,76932288017752
0,759646918013625
0,745086079815017
0,73503551396519
0,731234325882938
0,741785774590052
0,715287541234273
0,736793767899049
0,718027053506897
0,722182379356406
0,70969273142557
0,737261901448919
0,722976571846142
0,718809057528549
0,705603269898852
0,717442967370706
0,69630933185771
0,680351594270803
0,691883862321402
0,682972906896959
0,690086376101317
0,676083104326772
0,673529195070541
0,664557327799802
0,680332424806267
0,657040602689813
0,670476764005441
0,655314436437541
0,654603833319261
0,649781935681013
0,640263564251679
0,63994152248211
0,63822178535655
0,641304481342915
0,624666295431552
0,62710592425544
0,6227132770263
0,619372379272988
0,605533853548467
0,612842548650886
0,597656467411749
0,601153976329074
0,587657337449575
0,594072147287695
0,600500767262907
0,603504722663624
0,593988431304306
0,581116210159731
0,573703177339604
0,562584580467554
0,583936817122321
0,575868667673256
0,57869219055768
0,561128984121763
0,569875037849402
0,566491296365329
0,564008745693755
0,551207129391935
0,555676716793165
0,549624208983126
0,539046765405723
0,552497030981557
0,534625994969071
0,534338949099827
0,526454265892303
0,535754609062634
0,530430764744805
0,532269015690119
0,530224226223019
0,534484325478572
0,520216867111441
0,527912503498854
0,519793447067539
0,512219348909979
0,518526175989936
0,512668480812457
0,515346782659792
0,507377906480515
0,514293143862254
0,506505771622042
0,505948615811995
0,511041765119383
0,510071166740476
0,50703991270933
0,50321341439719
0,507226935778245
0,505401100455527
0,506169984479369
0,508179280354517
0,505173482784001
0,500156958730042
0,509718459620672
0,496663333787272
0,503707139364811
0,506038456425521
0,510954278647056
0,5117831879505
0,505911510086024
0,509405301619977
0,503621586864003
0,510137775625134
0,504699753945469
0,511517664140745
0,509288631352387
0,517945533183697
0,520578836663797
0,517673180063406
0,513039253829071
0,522131452061797
0,529885275732324
0,527035012161652
0,526298948101379
0,528662247361662
0,532690333658947
0,540950511862665
0,533458134280126
0,531578610161158
0,54408009527578
0,541003926826476
0,546154648396794
0,545599405392494
0,54590477875998
0,548675671295089
0,544821537500798
0,556346163189904
0,552097327248084
0,562561997938984
0,567786965899305
0,56014694456865
0,560191143310589
0,576938136897136
0,57507017873227
0,581174195512621
0,581237071715122
0,594633475062039
0,604520520616196
0,605212356768328
0,608218894068278
0,615732916324546
0,613724674024152
0,61680956721413
0,626544893178236
0,619815122122146
0,639231335367216
0,643279577457704
0,643281953464691
0,640641492223597
0,646962680859132
0,651362063877862
0,649603776385548
0,656810300627604
0,662688478526094
0,674225704152226
0,663772279316648
0,669943880506689
0,65944977365115
0,674713088473859
0,671322961044913
0,675065714282867
0,674777993983707
0,686001678242441
0,67683358457041
0,680536946648183
0,678851693555148
0,659827134496295
0,678692067843969
0,672652154476911
0,661222787064071
0,649643261393807
0,654026677260255
0,655679210713713
0,661507212238276
0,647766937420486
0,651723095447726
0,639328209437113
0,651780024765858
0,649410420810691
0,642618044298567
0,631903042704334
0,629371905641578
0,653962406339514
0,634947740248643
0,641167125484505
0,635215197843807
0,634477406680313
0,623592834362187
0,633670823353219
0,629096577919975
0,628015053917398
0,635918693934577
0,629367526759306
0,624200669198064
0,621479184980516
0,626764996288134
0,628590782719286
0,630019056130995
0,616319521178465
0,62995020562578
0,607230166129598
0,620609226521429
0,614988920542344
0,62969865294776
0,623339659727225
0,616492332478402
0,611421935921846
0,600998994527217
0,599842981241908
0,612488832721987
0,620311434257125
0,601705735202895
0,600767309826953
0,595840465407569
0,602983580982222
0,588273934862633
0,596840264473834
0,579050530382698
0,577342059524465
0,57231815176683
0,574965033191597
0,575008642033678
0,569374719742426
0,572960356102254
0,554263526900235
0,557016234630055
0,544660825557493
0,545410133998824
0,534467485221671
0,545757582819135
0,536998675315279
0,53863518917317
0,529319306251055
0,52582487105837
0,516469008654303
0,530330034151474
0,526665629541202
0,510707537775401
0,517966432845461
0,493073797688188
0,510903200552436
0,494952514059143
0,51109696182377
0,487050241226972
0,499680624619737
0,490407772066441
0,489205469160149
0,478716938156359
0,479263238580775
0,478114542538672
0,470634234141068
0,474193994391878
0,463119514385063
0,468719725609337
0,457603645833619
0,473388934278062
0,44953126645469
0,457073683826013
0,458806047362648
0,460104557097406
0,443003844293017
0,443663556443392
0,448009559555956
0,447738010105642
0,443270937839522
0,434797165494948
0,4348222110262
0,42730673906843
0,439900343559549
0,416332777176727
0,426160545456593
0,418600433695016
0,433036867014716
0,420880295687801
0,421855113972709
0,412420542184846
0,415790419449177
0,419440949431283
0,413500734089427
0,418172519264641
0,4031820345965
0,409937638891858
0,400514609774045
0,413605061509479
0,398633673729693
0,405977856175761
0,398290077731471
0,406105460895743
0,395428665052248
0,393095468894034
0,393207241243997
0,387027255311838
0,388535894068785
0,382935664543601
0,391136562526913
0,376011451327968
0,389565332334492
0,37896450084631
0,390044162936898
0,376145744892508
0,384539250784253
0,373887705946952
0,376751777452993
0,376665196768526
0,374068054097702
0,375443006448912
0,37335399165291
0,374587198105
0,365879712276548
0,375188023031436
0,360257371956591
0,374630083592439
0,364200699183555
0,363398843723859
0,356742888689588
0,3696278601572
0,36244991543429
0,363426450042313
0,363564615371995
0,357760355595889
0,361672107533895
0,356044593086414
0,36275512039151
0,355081076466591
0,361721680766562
0,34705496814038
0,357558548973617
0,3434409461817
0,354266573810461
0,350767205284987
0,356259314905047
0,349318464632705
0,347933087451726
0,346729521473878
0,340853133239225
0,348059582220074
0,337237673809598
0,34577676086754
0,335552127842028
0,349807505282231
0,341408785146786
0,340873851316285
0,337309054803835
0,348594542315574
0,339011065399223
0,334789570913973
0,336501417071145
0,337734866234556
0,335256404312798
0,332518122007878
0,341080136885506
0,331073816816093
0,342574383931993
0,325798880216339
0,337921554203363
0,329165610651612
0,332487547958014
0,325688137232138
0,335239138346939
0,326040437427088
0,328623115222789
0,329793570125
0,327748295535965
0,332529892697452
0,320833636118091
0,330791893014837
0,326377541199216
0,324913835486463
0,317239337509495
0,324237144773933
0,321175536183122
0,3231582159165
0,323673842056799
0,319362044723489
0,318708290070826
0,319499389756397
0,318693890959549
0,316362327204624
0,321960504557155
0,309250182210525
0,319257128268311
0,314120596986336
0,319920447535468
0,311604858836428
0,320278679909034
0,312683830077497
0,315471898190103
0,312878517626732
0,311167714672769
0,314284970425632
0,308746252291602
0,311422072452465
0,308649977170074
0,310476227053405
0,306313026050822
0,308964695724743
0,302951385186063
0,309755885458345
0,302112944841209
0,304960418701937
0,301905030902821
0,298004092847321
0,299346722919903
0,303702999582999
0,305620970828818
0,297121002343206
0,300749907012775
0,29376515863286
0,295550587715451
0,29805581834617
0,298650765533391
0,292516839505345
0,297920370844527
0,291953258439917
0,296265286327658
0,294680525200493
0,290210743857193
0,293631656622327
0,291584557453423
0,28966960561012
0,288532058785041
0,291274923942631
0,286982655463971
0,287555873665466
0,284705167319521
0,289166852035316
0,29217224718681
0,285911466002724
0,285459825586893
0,283819622095284
0,281827979689697
0,282744430805489
0,284606887404035
0,279492687970014
0,279039386754146
0,277189058046097
0,280447400065493
0,273271945154544
0,278427164042898
0,270992214087702
0,276550609815044
0,271410117578755
0,271041600556348
0,269027379283453
0,270769807825291
0,271632869502782
0,26694260648359
0,269313023939705
0,266833260273559
0,263457624818683
0,26800615980298
0,266950026690468
0,263296570362391
0,262140019427519
0,261727020311844
0,26232051614503
0,259895080761593
0,257234774665535
0,263799682035366
0,256695396859618
0,257251145030068
0,252358864151923
0,254398381192356
0,254404331973137
0,258980964737103
0,256037702404086
0,250487781062038
0,25028765632346
0,247151038980911
0,246503170537478
0,247852479754961
0,247424117327502
0,243297129768576
0,24343238586488
0,239785068047801
0,244892555783863
0,241706271838304
0,23572550011838
0,238719606728516
0,240563401912414
0,238090240503412
0,237395395200984
0,238186198172303
0,231548593517976
0,237288680757818
0,23339512092827
0,239386713750545
0,231979185864723
0,233862998123283
0,229720698902413
0,235689328591857
0,236948620937383
0,231697272722678
0,22701361043946
0,223165867561871
0,231727984906057
0,227916441495082
0,229071655969805
0,223615960021293
0,226802509778517
0,219363991371754
0,223605532233546
0,222609987624022
0,225716454571344
0,223441335829541
0,219295402882659
0,223387146243912
0,219408031344835
0,22091682518243
0,218128244922811
0,220482990513578
0,215927191911474
0,223762417374664
0,216662654063232
0,219545171673158
0,215183444335316
0,21691123703511
0,212936437329646
0,213614395415431
0,212357104478716
0,21279451617209
0,216636545045147
0,211363384232067
0,215701916780873
0,207847773826021
0,217583463736664
0,212166564658824
0,215811910141898
0,208332665857999
0,214603157454739
0,210535963794343
0,210353263381727
0,211972070049377
0,205608751850853
0,210292577322944
0,206703010186507
0,210794626289241
0,205288267569883
0,209526718355814
0,200943521060705
0,207574196205644
0,202451927517579
0,209337467808677
0,204764447202768
0,210322772922093
0,202038941861822
0,206450219991128
0,202117119563293
0,198062350260156
0,20286295315915
0,200841826612399
0,204145806342057
0,194976480337465
0,20567226075048
0,20235890030595
0,205451515859274
0,199348841084797
0,201135131622201
0,196597157130611
0,201249334592219
0,197790614954289
0,197849920609677
0,198602496909858
0,197376702085365
0,203515073098656
0,196326078328273
0,203359093224457
0,194097484603413
0,200560913875433
0,192723389243701
0,199028458984169
0,191595257638699
0,198072073351168
0,193471871505257
0,196946448566726
0,196696950669274
0,194610552339027
0,195869469168231
0,186982904121267
0,194475760430668
0,188708408796538
0,193143107296923
0,185048976135495
0,193196487598385
0,189174046878854
0,190586210705228
0,188215808408364
0,192769643117024
0,187910669319298
0,189141050530788
0,188855856668638
0,181957940611001
0,191968533819832
0,183378960425244
0,192623323400766
0,184275834548467
0,188789276492992
0,180084250808457
0,18800730268797
0,181194066382863
0,184476511655293
0,179064015133766
0,184565946985864
0,183505322967569
0,179579516241007
0,187729834936025
0,183324028717796
0,187556800691005
0,177205908661222
0,184830398476908
0,178370259547101
0,186404818844089
0,175916558348459
0,180320590794758
0,179279279555371
0,180321551876405
0,179816553890908
0,180298097557482
0,177836553014615
0,172112806289715
0,176860786806146
0,172179169758406
0,179606635729741
0,173330954593379
0,179722221490856
0,172441625209355
0,18043124516567
0,173189358868572
0,178986395285012
0,174942219373479
0,174474698332598
0,175685135659789
0,174102914097131
0,174432119423638
0,169841094647078
0,176882829796344
0,16829016177703
0,17555257650099
0,16730511097964
0,175076259435516
0,169619373821971
0,17064684247739
0,165210227228888
0,168071423830456
0,167891352939941
0,170267592560645
0,168825041925425
0,164675431197373
0,171845397794847
0,16414440606094
0,169317381175351
0,160452445204916
0,168933950994694
0,160271574981757
0,168142123572429
0,162989703682371
0,165471943990715
0,163857343718888
0,165876989638206
0,159623788631455
0,160486213140847
0,162294005981725
0,156793170380137
0,160394883807824
0,14943917753936
0,160524620379546
0,152197376683807
0,160359643103595
0,160248976049981
0,163731053599295
0,152895495108394
0,156476597949198
0,156094920554896
0,156961080266117
0,155964055493859
0,149283245368243
0,15449040505517
0,149482716054979
0,157555999213424
0,148642184404791
0,155071059041954
0,147233487841319
0,154986225184137
0,145271365716698
0,148529173831076
0,148272868490007
0,149009078237593
0,148113127930677
0,146393809961825
0,149241752831096
0,146990810148483
0,148556810358399
0,142492763455988
0,146650916621745
0,14054820053233
0,149197705293658
0,138628192508728
0,143177619306149
0,143313350536741
0,143906352570931
0,139659105036554
0,140661841089
0,139813624921353
0,138561095868913
0,143888559813648
0,137079433436879
0,141560433102655
0,135466239483396
0,141387534603232
0,133327704296825
0,141000535911333
0,138360179105097
0,139938414504941
0,137126014699351
0,139035564893366
0,136753557087106
0,135488556303669
0,138643952491062
0,133503332897256
0,13361223748558
0,130821216816178
0,135775822605372
0,128321173122988
0,135536937494511
0,1307870303892
0,132450565427786
0,128375256759727
0,132406183319147
0,12965215028246
0,12963302098614
0,131864669203142
0,131616495615589
0,132641256624775
0,129863897228894
0,133338876623929
0,129762494490995
0,131912183242259
0,128660472773598
0,13315721483768
0,126696307566363
0,12849245857306
0,128223629317994
0,125428806613637
0,127436217957684
0,123612939975137
0,12682902705525
0,124934425427001
0,13079915856585
0,120816259360828
0,12992899833169
0,121971106896596
0,128345640658364
0,123420203802003
0,12853454730752
0,126275533401826
0,128452627990208
0,125944076007667
0,127776945281637
0,123591751777514
0,121934260306563
0,123824094174844
0,119542492521991
0,123933619421069
0,118784287886508
0,123481215700787
0,121538699613829
0,124501574283829
0,12631963316425
0,11967125007774
0,120929077187215
0,116519987209894
0,127269356601975
0,115270411946347
0,128676068801564
0,120894474165742
0,126695320526085
0,118576447046492
0,128981592905527
0,119921921928055
0,12778830198213
0,117222317296918
0,122622486808098
0,118490397358421
0,124309936552779
0,118145975562051
0,122704259899021
0,117345826066946
0,118980858518845
0,119088336900562
0,120031411568404
0,11666579222433
0,12161068372298
0,117731296296197
0,121436366199731
0,116479941479864
0,123482336427112
0,117194518928801
0,125839304448715
0,114419953636851
0,118121874433998
0,11325492230875
0,119492876358251
0,116947922802938
0,117532920689858
0,119046217242711
0,11346633021219
0,122487087300834
0,110141573197168
0,125378204709682
0,103461825260444
0,129673393850557
0,097005446783476
0,136312498718976
0,0991630308556489
0,14050957300637
0,0960708753320694
0,136275039670858
0,0999227549000651
0,134927132578689
0,103830471891767
0,128217558712246
0,110571550332408
0,126706790285832
0,113057555330603
0,113847280462128
0,11747484337543
0,117333954133091
0,118977651049683
0,1135873831754
0,1175013418621
0,117530813317064
0,113557784661107
0,117984138607333
0,113674301465149
0,121265619198538
0,115124329124743
0,123447480398171
0,114368236766432
0,12200951396517
0,116688972817001
0,12342650397693
0,112285504917858
0,117513793518215
0,114384061191472
0,119749591067273
0,114930912932257
0,118418694155678
0,112715516791791
0,118006117286759
0,1171378010821
0,120233354306198
0,116748574604174
0,114566724255872
0,117159734217209
0,115253376485839
0,118701220888198
0,119423542357956
0,11571153181926
0,119420552439638
0,118279061873107
0,118956139472225
0,115898821798148
0,119736929693865
0,114980828224891
0,121405371281047
0,113546716219122
0,120425219315855
0,112602231768067
0,12185053895918
0,114915976759725
0,121307524723376
0,116510282345179
0,122668709526568
0,117108747159217
0,119036339508536
0,118292210141559
0,12134846175362
0,122136419845444
0,121714275863655
0,12306981123751
0,121869981176874
0,122347872792928
0,12010653300614
0,123854840908858
0,12062708710568
0,120183409381183
0,12119763550882
0,123192999297249
0,125523833451
0,118006845858902
0,124315190904774
0,119574946591206
0,126585009590964
0,120965196180509
0,12593689231258
0,12024174948473
0,12808982054675
0,122340011287732
0,127124961105129
0,124062038710746
0,127141526803881
0,123540683041515
0,124443279158873
0,123245120163995
0,121972983966808
0,120521465854026
0,119328701723587
0,122176703862856
0,120237751303984
0,123830034771894
0,120694357635511
0,126226205999467
0,123284439572331
0,127052368208981
0,126890920909351
0,125635530875116
0,12621068273694
0,122096662056614
0,129666285722451
0,123196552339434
0,129732146813645
0,123777707548159
0,128713104655969
0,123502807995111
0,131251918678167
0,121770637614528
0,1277515799842
0,124813441335669
0,128506204257452
0,126469450639853
0,129202610377454
0,131590413938446
0,12943214699683
0,129783356111321
0,128045183815915
0,132495234362076
0,12831870461475
0,132623280435111
0,125840937414518
0,129787760972819
0,129919516000498
0,13345878593045
0,135002313604045
0,133731477772401
0,133257778577153
0,131465770909054
0,137642860471761
0,128624685695293
0,133881577401792
0,130861812843629
0,136871611744246
0,130695160108467
0,136104453349962
0,132378135468115
0,138731104412302
0,131803511675434
0,136297255653401
0,134465249254637
0,135286876861861
0,134002726391938
0,132797948955751
0,136567212930646
0,138953813649452
0,140279765414661
0,135126420874537
0,140761482239531
0,134803431277598
0,139696318240541
0,135348452781019
0,13824706436159
0,13667793452515
0,1358569263386
0,14028499708624
0,133020829140235
0,136814868588451
0,136389511990238
0,142882156533492
0,135605026002536
0,143501841420632
0,136944978699906
0,142296023728508
0,135956982406979
0,143820227988786
0,140747870608791
0,145364572677834
0,140821138078519
0,143264987622296
0,141614847543394
0,138700427654775
0,142319253718938
0,137987198253643
0,142963774754865
0,140873364561779
0,144367280202283
0,14022533383583
0,144007829939686
0,142864935792126
0,143709471252099
0,142289965764733
0,142431066672815
0,147662270345173
0,142736215110697
0,144536407375256
0,142500372053016
0,147198396765907
0,141248223626158
0,146500721396897
0,138804797923641
0,144039541786738
0,135478517681992
0,142961325026544
0,141693312748742
0,14114524423255
0,138252026434386
0,141854148259028
0,140436942823745
0,14118614388092
0,144589473278902
0,138444719572767
0,14198574726912
0,140689061683095
0,14129890370837
0,136146557052557
0,143278161557875
0,141538046440912
0,141916902660925
0,141781825847158
0,141716567564556
0,138927668807227
0,138467728533654
0,143623995013549
0,137731020277223
0,140894733489502
0,135793304464076
0,142916303561445
0,137093060185879
0,1389474785566
0,136456786647004
0,140782182500119
0,135609962611936
0,137994899909472
0,135658475040144
0,13813719670885
0,138241366990676
0,13588940988717
0,136311944573201
0,135041006884299
0,13975815292873
0,137133291412077
0,139728960851368
0,137008761414311
0,138331650104042
0,133475712764184
0,132368120307073
0,136923430187676
0,136607447392253
0,137890696481104
0,136357306951052
0,140142304272626
0,133598621043956
0,138517887873641
0,135510585642405
0,138334246589136
0,135184045432948
0,14003332666482
0,134637896074145
0,138101542478412
0,133590615983421
0,137298394301384
0,135474478377932
0,136495875321278
0,136928679225226
0,132175466115577
0,13505293051204
0,132309997897696
0,13182111352898
0,130048611759813
0,132942582905516
0,133791343129489
0,137322368271573
0,133600561505169
0,132882487852692
0,133915130716064
0,13295266995967
0,133519138930075
0,129059329703513
0,132783599200245
0,130442974476543
0,134015612591015
0,131476386860579
0,134328727603931
0,134974267349435
0,134132232731595
0,130253057310832
0,132414350988961
0,130042852262233
0,130828725978239
0,131129759772734
0,133337695921033
0,12972418769174
0,128765790248053
0,13226872005994
0,131238772522211
0,131141602109711
0,128760808059233
0,128942597416783
0,126877244123648
0,128144576795407
0,128265922634763
0,127099361462001
0,130094462416294
0,127510678582012
0,129199039810301
0,123555967069104
0,126206704660631
0,122879856467246
0,125486886287161
0,120915357748411
0,125561768878718
0,125751500742215
0,124757835518374
0,123317528120814
0,127754245755755
0,122798017278175
0,122385083397183
0,122057098435196
0,122016953178024
0,122342153207244
0,120545597997246
0,122281233059394
0,12079064948678
0,120880569891449
0,119855996567651
0,118926999566202
0,118339298072016
0,113435969481764
0,11476412997839
0,111041879084271
0,117416567510863
0,115197111971683
0,117721652165721
0,116972589902241
0,120994428520139
0,115026466602858
0,112778930719912
0,111872536561879
0,112044641514216
0,110382429277973
0,111440308165212
0,110857792268581
0,109333820661933
0,111108361532563
0,11028186996462
0,107495302646063
0,107384168195017
0,109298985560927
0,105375945293873
0,106813010807038
0,105979657232884
0,105771524308204
0,107013289439846
0,106742296222688
0,109382798392001
0,108117904891793
0,107685357098931
0,106110321397839
0,106393029862378
0,104301185251004
0,106138834130395
0,105544549043937
0,105398931955993
0,104805772765615
0,108360327210625
0,104214284430868
0,105297723933203
0,106034695680065
0,104224165303825
0,104924416706086
0,0995541820119447
0,101049023342541
0,0991637495061451
0,103145582197404
0,103456919385661
0,102836284003142
0,103054520318419
0,1050078919735
0,103112918438868
0,101390834689204
0,0993005965103831
0,099875501166675
0,100308801693342
0,102169768410854
0,105806705105531
0,0981359370977633
0,103713203803876
0,100333419550239
0,101556180900463
0,0981427926422636
0,0997383389076191
0,096477650330293
0,0964582514877346
0,0957984653514581
0,10048455982331
0,102924989959114
0,100593051695385
0,101698095319216
0,0979028963831238
0,101865487086273
0,0974626374171041
0,0991148002412269
0,0962420049405419
0,0944693939701687
0,0969461456396388
0,0962005311528914
0,0986764893425978
0,0967882484473048
0,0974909970751455
0,0906510812269876
0,101432258773327
0,0930428645302876
0,0959404100136461
0,089820388173601
0,0976336048967022
0,092520026476802
0,0982455787727711
0,0923957563454762
0,095600932885381
0,0947707073409658
0,0939041981857461
0,0923340018100046
0,0915736315934362
0,0949079843774064
0,0928917722943274
0,0936786926509394
0,0938648223702853
0,0943824288450021
0,091957784599222
0,0943088512842889
0,0901781471946052
0,091901806194825
0,0935978971845793
0,0899233899359813
0,095260699747121
0,0878602198115789
0,100025286554229
0,093988234649945
0,0939339782469616
0,0910301244722926
0,0937285807533501
0,0894746561212846
0,0919383641978405
0,0865774959504295
0,0866245376910386
0,0944138035022751
0,090480789126534
0,0921352385074453
0,0915877993283549
0,0917892327087397
0,0879509340538527
0,0915542659661434
0,0861449200256301
0,0873061992169914
0,0850809280490484
0,0893047241046215
0,0842581141464595
0,0899647249615887
0,0891268431029271
0,0902694432352316
0,0876946384311943
0,0901620861147285
0,0905782462996207
0,0883418970466783
0,0864556178806475
0,0852986253738546
0,0851878976004078
0,0895139398391899
0,0879454369164565
0,0876576150903828
0,0911424004351389
0,0853493076540423
0,0865569505561859
0,0853984746707393
0,0876905815443246
0,0897254697943898
0,0853861662891647
0,0896527476988904
0,0882062855000327
0,0920699685486193
0,0894885961126289
0,0911123093493642
0,0856578195675286
0,0894787916152513
0,0853732705881507
0,084728131099663
0,0864957895940763
0,0857578580098269
0,0850653570629429
0,0876675208304709
0,0896502839971888
0,0896022032059426
0,0879369921422922
0,0834783077952185
0,0873575591221478
0,0856733891114755
0,084449843912196
0,0848067560011912
0,0881496118622363
0,0886624559320844
0,0907576354365395
0,0902712076519536
0,087661592367309
0,0890096471392254
0,0838335014025429
0,0896313513669132
0,0802623623107154
0,0907576179935581
0,0842429268084183
0,0934087096516377
0,0816220883072603
0,0919501915710753
0,0846327544969331
0,090581874307253
0,0796047528992051
0,0859055696436136
0,0911104762280843
0,078624583260041
0,0901978433566207
0,0818629943525938
0,0913366057355525
0,0844820451544461
0,0907632601004525
0,0863758837345228
0,0907300367205322
0,0836113148590629
0,0893773204934911
0,0822026316270713
0,0873450581447956
0,0847959824732874
0,0832739448445687
0,0934053667512335
0,0875803944914747
0,0899166778175179
0,0874855242531009
0,0849653452468169
0,09122058692172
0,0830379563562228
0,0908772192891511
0,0918101435785264
0,0880656947227735
0,0917985074768629
0,0902896202855049
0,0906658323573806
0,0887235087638577
0,0898682885218462
0,0909743469036651
0,088287207299751
0,0895701898532528
0,0902682904596452
0,0931858913546351
0,0873411803168054
0,0962950535195978
0,0860656826895825
0,0939304080293095
0,0911354405325442
0,0923254479276051
0,089866968300362
0,0910524823293018
0,0912456089381079
0,0895755228799028
0,098491659267319
0,0905430021730419
0,098929418675829
0,0982529676888701
0,0945306834298791
0,0944598447008134
0,0926851090056915
0,09434824883383
0,0979977447726709
0,0895539454756787
0,103491053626206
0,0884221449168277
0,106148933856708
0,0925085735426659
0,0992947589655085
0,0916844997056819
0,0997682733451913
0,0957993846027623
0,10305577065611
0,0965857236595046
0,0991882833515241
0,0982224687837722
0,0984330046045129
0,107959027907632
0,099852947019854
0,101176755754639
0,102024386823034
0,0990556130706519
0,104680608459482
0,103511088138545
0,0933097458622938
0,107527800861349
0,106406681553799
0,104429156149608
0,109344915426049
0,0987076651026
0,113066312873358
0,101651382315426
0,107701859729205
0,106080675624481
0,106025703783434
0,11155447101159
0,0985576785328203
0,120459091156155
0,112178995609197
0,114454865001085
0,115973660277226
0,10930841929548
0,117805412596562
0,114924194297283
0,113325444197502
0,113282007414314
0,118549613032907
0,103797508827431
0,127912301573267
0,121996050809947
0,115225698984979
0,128359863071729
0,119841690284953
0,125526242792277
0,119824382701808
0,123462320013796
0,123460388761776
0,127712966746947
0,123540741620316
0,126528102934304
0,127795757350609
0,143456240585744
0,124129124540396
0,13870250513806
0,125029420694942
0,132610966650606
0,125251328255808
0,14587170591479
0,135157476173892
0,144644245156569
0,134466180564663
0,15018513334901
0,144511362599354
0,146465990313786
0,144090474747307
0,147046184341951
0,151963484473128
0,149685336834119
0,154256339322144
0,154385628342981
0,159192440567029
0,160868608232555
0,158668882953152
0,165451933244462
0,154937012928548
0,179673394514089
0,158852314398713
0,177092193565776
0,166133248947459
0,178622213111927
0,177403364767671
0,180764248208147
0,184937039798547
0,187962035626118
0,184516053304958
0,18629261864854
0,190802253148888
0,197950033630946
0,192288862870028
0,217833074705797
0,202046433054514
0,218754522566905
0,187296013043202
0,288284948874555
0,225003908228745
0,235036052454333
0,237269225390635
0,230610158737403
0,275298229521904
0,260705925114402
0,2634342955625
0,271901827118124
0,276849741865373
0,290745602809025
0,29655398585795
0,307405836129739
0,309805380369237
0,324294948751334
0,31524694199484
0,331296883834935
0,362016206684238
0,369255534704156
0,36562137455367
0,374342653039044
0,383026781041002
0,391840720985269
0,387267266067813
0,399617085515865
0,405933840742945
0,396137327841814
0,454161365899989
0,433091935897716
0,452059842325644
0,439654052637494
0,48033558301954
0,461328088742863
0,501127592021097
0,500299455700832
0,492335723771191
0,506488644663949
0,501781482451266
0,523778718686653
0,508572269162897
0,563065904638323
0,554220982174641
0,560449889869169
0,569747051559627
0,568877862237611
0,570910192133221
0,579574063620832
0,580672312164736
0,579723162327618
0,606552482388462
0,603412771235946
0,688987142406557
0,626730521843363
0,603432146929517
0,620248867732346
0,611987924597646
0,62625127806279
0,611433440103665
0,648838362126888
0,640639808046674
0,624426572277907
0,634708866760369
0,631764493277075
0,631697184635996
0,632048114329612
0,613568209921632
0,616361974319616
0,629873644552496
0,61719870104377
0,599367113161199
0,68032200208695
0,60765947182062
0,616802428360791
0,609097839908013
0,621023183717959
0,589436018267006
0,58406847395766
0,589734102766921
0,600596174579439
0,577317375966435
0,58237351817639
0,560067403888409
0,581310245264479
0,581337192321422
0,552048569920002
0,541811891395033
0,527547206318773
0,522343570867383
0,510809276840756
0,486073198331883
0,536400572586591
0,493789014223908
0,506101913615979
0,483236530147968
0,494367902665281
0,473009924970551
0,465156094022344
0,457863461475362
0,453053865762174
0,440809516972948
0,457082768923575
0,436893177793214
0,434921646129348
0,42562255372278
0,432404187611243
0,424152359349741
0,417766693229171
0,416675991676936
0,407388988357658
0,40659364618984
0,390535426810498
0,398730577852975
0,400839950969502
0,395533746135918
0,400564920060576
0,391438171808922
0,39289030057119
0,387152406791164
0,389953680294289
0,379126224731769
0,390219452865928
0,382242236542982
0,389025537544235
0,374974860685272
0,382600399282317
0,377285357560975
0,383020746404649
0,37239954144032
0,372999913202135
0,373336823338043
0,365533819461269
0,375503974575412
0,361420737252888
0,39454809421019
0,385470232434885
0,374939385072375
0,371287161122148
0,367282027730089
0,374206683499587
0,356247158389956
0,378617527914208
0,36586640879916
0,366518230149986
0,371032858287671
0,376098579749021
0,371015292586606
0,38496118971106
0,358129967295755
0,377462488544482
0,34569013786479
0,383053754126089
0,360952520881301
0,36563529975186
0,371389461809303
0,369531706700956
0,362033407406066
0,36689732058199
0,389746954133193
0,360525555254059
0,36842036406545
0,349024952302816
0,375007977766915
0,367127015731401
0,362963307965965
0,366085542912857
0,360700102752801
0,364178175666262
0,372172269288873
0,353055688874581
0,349787400865728
0,357498437829252
0,345739899914007
0,374457322219934
0,359679922437601
0,357259197539444
0,334340956083266
0,346497250973829
0,341935710517451
0,340866320556658
0,342728814201482
0,333582906370375
0,329509676423212
0,332524626433951
0,322704595906237
0,325525998207212
0,325747415194203
0,3260533554369
0,314640998894552
0,337249128526959
0,310345319865597
0,319864100212748
0,311437609641404
0,306185608819685
0,322608180257185
0,314410735739621
0,302932419022211
0,306132578021907
0,325141458079857
0,309759347377655
0,31496643976615
0,306222424730251
0,291428241933728
0,310150792995903
0,289491009680252
0,295305240973946
0,290300296693597
0,303897881619063
0,290209896980903
0,301211145279966
0,298147262203925
0,297879071447068
0,286467880761426
0,288708022070937
0,279437049351042
0,289401881020647
0,276229271357183
0,298528409424669
0,297249013018059
0,282233665884219
0,315973725144177
0,28858767133646
0,297107164494671
0,290571411640075
0,296408479755095
0,297012871330963
0,304743862745966
0,317913960996516
0,3069168096658
0,311534876347307
0,319457330587566
0,319157147643537
0,316992100586748
0,327395011216732
0,332889057421128
0,333082521935395
0,340469842153719
0,345636838635977
0,345725560364025
0,363724569641163
0,361847797531626
0,375479209575928
0,398319841113898
0,372844197547032
0,416944217203995
0,392240747887061
0,438260098632294
0,425294561018401
0,430501330776162
0,439200346377885
0,451034548954306
0,460142151922527
0,464592817261935
0,471292837773898
0,498082133658302
0,489648302476382
0,498075357820856
0,500033074943353
0,506264164944639
0,506282903010569
0,524414526326505
0,528062495119362
0,560350398811931
0,565073807119449
0,534671566091574
0,551434318737207
0,541441595382677
0,555038253663209
0,545340632007574
0,546877731807662
0,543132892017245
0,542910513606871
0,571425460457257
0,549457819429329
0,552579676888234
0,547925615197517
0,556949033050583
0,554380706034735
0,565060551738458
0,566256967975482
0,567098746139357
0,57297757556807
0,57101258168444
0,574929235697839
0,600876490431657
0,582835762902694
0,576562910717387
0,579869486839214
0,578734335116208
0,588207717021254
0,579565462933113
0,605297059615328
0,599188645645598
0,609917369065519
0,604053600742078
0,608734559614315
0,60349241252998
0,602876882769787
0,632200821267194
0,612685702412177
0,631624835846783
0,609021893571009
0,636523667471768
0,651703279358138
0,633164381691279
0,641730298702263
0,628548002418152
0,633991491027299
0,634592720643388
0,639970456025949
0,626004598077213
0,640587130017363
0,635549323030252
0,639330350737579
0,63310084427751
0,641309256674843
0,624094683525334
0,631466639199808
0,631401592498358
0,628823628518389
0,614470202636687
0,627700075138357
0,626334124343612
0,619955084138238
0,629188304306447
0,621555144759823
0,626247964208698
0,613923663729055
0,605562000518154
0,618369166752021
0,614240096522868
0,600120902973651
0,608927105969978
0,613158714729056
0,620931787969132
0,609319314064185
0,605455589738808
0,638263675931123
0,620320192680497
0,629548312992379
0,620365252632778
0,636001783600536
0,635568137171693
0,648064873928862
0,643514893385725
0,660854112501887
0,660107358838816
0,671969484607467
0,667313732590118
0,666880471968119
0,668041882582215
0,668852570196021
0,676595898147078
0,672566552080919
0,681850725608467
0,676451520705308
0,688278204528779
0,682658431421771
0,679060548459459
0,69085526294194
0,688082546333889
0,682525022006527
0,67910692917563
0,69272972980048
0,675673827794672
0,696521979705231
0,676989633862721
0,683167182661537
0,681424220627078
0,681230430026932
0,667383755219073
0,66879008596888
0,664612742195247
0,668770178812972
0,667539393256742
0,662687643967672
0,65448338690798
0,658556846090947
0,664496337723871
0,655074489777182
0,652936002933618
0,648510740243184
0,650281440514264
0,643847553986887
0,642379350783704
0,644807523654861
0,63999771719367
0,648776745742286
0,642833072331702
0,653946368464109
0,641753973872988
0,642532816193454
0,638959194977401
0,651104821295168
0,641790745644708
0,643558321743868
0,642548891592179
0,635176304657525
0,623865810733556
0,636472937793128
0,620742828684049
0,620335534989779
0,622646748267647
0,613276571248759
0,614225434692855
0,604164620843745
0,608315767601265
0,598742823108477
0,608329723604854
0,597015549401506
0,599015170188538
0,594034630327829
0,584781410347714
0,580294488649717
0,575791099225302
0,590008205750865
0,576949221041499
0,57371724956523
0,57184759006271
0,575556409341398
0,567049742741312
0,579167764367931
0,561635282616502
0,563961205114618
0,560162033933541
0,573033308245003
0,567937534408734
0,565221267927063
0,565075618495047
0,562828796179908
0,556721879672685
0,5499739475693
0,560251050200143
0,543721569602751
0,538991389008035
0,536342330114416
0,540306389343982
0,531229459859259
0,525754873677889
0,52622473563681
0,524248248288921
0,513877624733
0,510627293176343
0,510318782277983
0,503918081047154
0,516277642957743
0,497521231367529
0,510738150725029
0,50269056044416
0,50461014529648
0,498172780275514
0,506065535464343
0,49817638790741
0,503335841871627
0,495190524917599
0,494411871165141
0,49932157414226
0,498965372455896
0,505154552095463
0,49733793375343
0,501777842799979
0,500094743711754
0,50302146587522
0,498106435995935
0,506649398146536
0,49897315723924
0,506498361578349
0,505988968176481
0,511575051266253
0,512539391698168
0,510704936197334
0,52107739518362
0,515874111456143
0,519555443418413
0,510021973569374
0,523912549241723
0,508135574885767
0,517941299505261
0,511230628315651
0,51657177109864
0,51332860051532
0,514368968966699
0,512697936676902
0,512000650395765
0,510093027518543
0,507751054487715
0,515914973554456
0,50776026564639
0,510434301490308
0,507206981374917
0,511543921025713
0,505907200982864
0,511548750916324
0,505963860444974
0,503837176066545
0,502085247367161
0,502615614433068
0,49804686402306
0,495905359715584
0,50229624970077
0,492539444537459
0,495441178133288
0,485665262747039
0,488100523957524
0,480934837038537
0,488258537944742
0,474810792059991
0,477755227049994
0,47109345879657
0,467312981239178
0,468184704838479
0,461293977709842
0,458922207225439
0,449580439839404
0,447751522610459
0,440661987315695
0,445763371735845
0,430243814321996
0,431401930596962
0,426861975240794
0,427125717188207
0,421108259126105
0,42561730074804
0,421606893787229
0,419292063761294
0,420502449190524
0,41570223089155
0,422156683187199
0,414659902272126
0,422528004549473
0,418692353976854
0,427563645767797
0,418437409096041
0,427401367649057
0,417407490309488
0,425460424540729
0,417847309412076
0,417568992714711
0,410271361218121
0,410186544508597
0,407057091205758
0,398357804825962
0,400107555791677
0,386069013924877
0,386761667896711
0,37400857492203
0,376177517680527
0,360370736075308
0,361013600830098
0,350134984221095
0,349973111244824
0,347002904813414
0,344523993077843
0,347038327464701
0,34216748464439
0,34491658323361
0,336639423612635
0,347029238822297
0,344244617578427
0,353000549769067
0,348545848416166
0,366461564499534
0,367733420345248
0,384580786499935
0,394084686906283
0,404957657598861
0,41704849425294
0,433252454471313
0,450979415569227
0,468043963263706
0,493210538170878
0,509809887791344
0,541620686456585
0,561007546352838
0,596244701845177
0,61907853904319
0,660141255127349
0,685950668308606
0,726125058921686
0,756258846170264
0,795924698221848
0,83133106505294
0,863030958157683
0,899080031332657
0,938481672738893
0,972825431706452
0,991867652818418
1,02393324351044
1,03441155039069
1,06759269258854
1,07327378724089
1,08022130258262
1,09378915046328
1,10374074146579
1,09150215168356
1,08426561250294
1,09073823312034
1,07330158881728
1,06455358418498
1,04607518071891
1,0446774844409
1,0130005229285
1,01076075431446
0,981231843426942
0,984850568795172
0,950673956761719
0,956981401445289
0,939015222424712
0,921752902132886
0,932577966501472
0,918982199695802
0,92368159020155
0,920758411641465
0,938236726272523
0,931883872125534
0,942963055924703
0,944033881206653
0,954809390266198
0,958386877793349
0,973687972243525
0,981086065368754
0,987376740041527
0,993971388724886
1,00493708695359
1,02188086588606
1,01166293510244
1,03880577300345
1,02676231933293
1,06175761032329
1,04352839741759
1,06502999463672
1,0624681760535
1,08558898654793
1,07633921314928
1,10379571292607
1,07389502314328
1,08725749721299
1,10910196850955
1,11723498797733
1,10610778198731
1,09939289811139
1,12121607686182
1,11300844199204
1,1370604031652
1,13220401859809
1,13314047990421
1,12746133532604
1,13311305002093
1,12245465390838
1,12779136693148
1,13484840117626
1,12439839422116
1,15005730920726
1,15211971924235
1,15501802056287
1,15040016849174
1,20462862553265
1,21099700797923
1,22120459933497
1,2642325276337
1,2854205596944
1,32551019466969
1,35555508377151
1,41052884883302
1,45575509477173
1,5017079837102
1,51396830419572
1,58271600018165
1,59634951236098
1,59040455737712
1,6383916286439
1,66504240233092
1,62382998791131
1,69590166986718
1,64787357964403
1,54143267132308
1,60949089202058
1,5644988684403
1,5440197522172
1,48921320865376
1,51022469362511
1,50753979366845
1,5515458926517
1,47073379110329
1,47589594692883
1,49117978786541
1,49910749190798
1,52684714706756
1,58875457762454
1,550391491099
1,5550463690312
1,60436485914508
1,62278148314728
1,63801716036992
1,69488872596254
1,68315154493489
1,68169332529106
1,70728861484383
1,69763513856708
1,69399839460523
1,82830519726371
1,78548860255045
1,88599229459948
1,8879307121121
1,92369300298572
1,94445863280069
1,99366503304003
1,95546484598105
2,17895449432525
1,93500910477013
2,0580833442212
2,0766240266067
2,02507559803206
2,25673421854961
2,29505725565196
2,17352415215277
2,18361323927001
2,30010960036594
2,24070657111788
2,46677189146291
2,29601912688207
2,31679068928729
2,38404800547839
2,60901357616163
3,12968882124079
2,40473514426053
3,95112822513945
2,39692834219632
2,93852879837456
2,49950325684433
3,04258316273844
2,57396330127029
2,50275455999267
2,78110720030241
2,6333853666906
2,80951517434649
2,51360387730227
2,85121583192114
2,40005362448538
2,4959009574986
2,43916987134694
2,20318664795253
2,7297779821831
2,28554941642843
2,55957568455607
2,72396422518865
2,73430244210175
2,62146665816385
2,76433318647776
2,44112010612957
2,27319144157715
2,1583713241358
2,23314116661637
2,10981473072284
2,30273016242419
2,7833082194402
2,75441788005322
2,31067317768436
2,44619273145236
2,07965644344871
2,23055618995674
1,97147182867865
2,10139620827182
1,96346548900189
1,98909552869675
1,81478169941621
1,78494253540011
1,86833080162427
1,81556762380283
1,63251141893786
1,7089298648868
1,66531699552695
1,58922819039216
1,50858712478555
1,51283406134516
1,45655468841001
1,45961641945387
1,38213392532115
1,34754941872106
1,24089785288202
1,18307630584379
1,14131883244824
1,11766537473105
1,05864592921758
1,0154850620734
0,9548435220751
0,95580628157453
0,906910694681093
0,879347233628339
0,840972580648552
0,833411850097795
0,775296621281637
0,783337707058906
0,745646729010499
0,746380716814648
0,728790237699104
0,707779773038381
0,701737702402775
0,681540617189472
0,682482839094908
0,674324572761157
0,677535781278753
0,647467139511249
0,671629226863801
0,636099953533987
0,660560770887588
0,643546097602489
0,656409828680601
0,66171535506921
0,665662446876385
0,667791419537008
0,666160654089437
0,690548422503619
0,684898179707241
0,719282687423873
0,708814128087273
0,749255763046836
0,72217999046676
0,755689714021238
0,734743016032357
0,765241450053128
0,740523225431378
0,772708715754792
0,758649443768584
0,76168938963764
0,77868897433139
0,762254435477089
0,790988696292981
0,762700174861796
0,789005428974031
0,767976890890846
0,773970312289905
0,767142877302984
0,779848592811328
0,768959679047308
0,771409013964714
0,77654540800123
0,760717941953042
0,769549794643356
0,743118122874773
0,772651465766104
0,73089237900668
0,753709857599121
0,716679153085287
0,755369887354546
0,714184496667708
0,728561201043604
0,696269515689111
0,712276628832892
0,689089281821918
0,71019631803936
0,683303921195052
0,693784588650486
0,692738129311371
0,685463326963088
0,714189079906547
0,681575233770223
0,717683581051911
0,685824558204425
0,713658644676068
0,700933003870385
0,717523204265828
0,709895405398295
0,737635322011553
0,723428922835488
0,73480509016906
0,748552540736718
0,719582893584223
0,750312096568038
0,703164985773131
0,74156850427867
0,691619512635604
0,718744367172395
0,664356671591822
0,703424157198319
0,655765975631204
0,697194701228618
0,661684311440273
0,667714984722235
0,667243706080016
0,658474594468397
0,66780112208194
0,655308933010094
0,672181891579392
0,658043086450065
0,697147904868225
0,661899858770198
0,699710830416152
0,670540363292684
0,692093401099525
0,689048445194358
0,692854787645712
0,698983959324166
0,703061532680828
0,729280341765307
0,708230391692032
0,785713441254664
0,699158046627383
0,791915757171555
0,714637749854833
0,782835221193851
0,722864120965097
0,792845311047262
0,748337489862567
0,789086117572523
0,734636489973643
0,780275101865932
0,783203024610798
0,776133347845664
0,79236996600017
0,747902984951982
0,792315583910761
0,741078452086173
0,801396498804204
0,770210185654938
0,819105494596674
0,767136229284161
0,804792357978013
0,781379903334962
0,792743137411689
0,796867586044613
0,740384141343812
0,791375540178952
0,77090475007201
0,792427185727158
0,722539651883892
0,814469754778022
0,703125889022303
0,788505977622608
0,715479132056545
0,804307828072736
0,723721400192145
0,777375097591373
0,738772081336272
0,740955134836596
0,733505718899666
0,728423493943042
0,769837744999553
0,728332092338059
0,820099451477637
0,698960048683567
0,751445701563622
0,730892652297774
0,781266563514484
0,723126631385006
0,787103393583413
0,73710403746553
0,74750624914594
0,746189848486049
0,710929777777294
0,820622431739891
0,679734586522621
0,794503417139056
0,701144977812388
0,792440504938836
0,727127608917821
0,834168066919525
0,708822861538465
0,84373873142207
0,780054166545555
0,815982213136149
0,805110896206423
0,797835546903057
0,808236889001278
0,761601717800494
0,827352418196124
0,808780015665061
0,87642926850479
0,757223308774686
0,916215481115983
0,792181531309742
0,896807576666817
0,827365577688859
0,872381811613186
0,927794185586875
0,867089044987406
0,960546744533528
0,892516399883039
0,970879801420384
0,835382091830136
1,05619474729439
0,858671881103707
1,10950197096092
0,862917062956049
1,06453416618176
0,856773524660862
1,01679608645051
0,948635057298709
1,03196777276561
0,977454886892954
1,01412127278934
0,971044419391942
0,948186357036514
1,09929556698237
1,00126968495488
1,03429519760814
0,977300421989673
1,03928211523216
1,10300259386422
1,14914527961294
1,20997967112179
1,06378629350987
1,20343438451073
0,936819845762377
1,1276442615746
1,03933792365269
1,25247668253556
0,980539755238819
1,3665890478771
0,973442593367964
1,22895788417708
1,0472412934965
1,22709705108314
1,10512484061993
1,13375826894893
1,12145353641404
1,07279507968718
1,10865202956134
1,20635189432654
1,23591401388334
1,04230333426714
1,14497671878451
1,05219584033116
1,00310622040966
1,00323270390515
1,13410129804545
1,16851351401753
1,05125016891465
1,21395734852007
1,04176108736162
1,20873208916838
0,915186769219894
1,1430970354579
0,908241167248842
1,18931066209848
0,892122877877647
1,34184908256168
1,0189656373616
1,37498067846664
1,1339778080557
1,42259178162354
0,946325018024906
1,15260663011208
0,966299459094272
1,18152435575769
1,15065844414243
1,05591568661719
1,24422431129258
1,09057300951615
1,0538731407967
0,991941286891824
1,17916806512105
1,23884801022209
1,08244389377551
1,14248002600898
1,02848616154898
1,21840919687722
1,04848816701083
1,66248985916112
0,911325964824048
1,81184039461367
0,827222622327583
2,76183961073021
1,02127134022423
1,58950001658085
1,16568306977595
1,20259484004058
0,966282349723577
2,98142366266424
1,28330781149461
1,3169971038959
1,41354470745684
1,63769489231962
1,64311451718846
1,23155366561639
1,27062457712912
1,34203443465612
1,18753067770007
1,47019103937831
1,29736600241821
1,63168500198325
1,11714756252022
1,44731258903248
0,978587885211096
1,70189046294627
1,2727887122929
1,51636463650701
1,34646762315557
2,13179408547355
0,651471306328814
1,65059984932768
0,712509220605329
1,63964698216079
0,858125996398131
1,96621196216371
1,08735590794174
2,11874280865883
0,920097261450143
1,40101133887188
1,90819358059858
0,990238594978025
1,21387473866995
5
1,35792268500653
5
1,16415100501176
5
1,41253823214157
5
0,912174966299773
5
1,28934391993802
3,17376944189391
5
5
5
5
5
1,81968124424913
2,48621715561669
5
1,37989918655421
5
0,958971830020628
1,23512220222573
1,83495680223426
0,610314744293488
1,42523101980193
1,58677611066114
