3596
4000,36533379555
650,420452594757
1
2
2
0,0331293523090552
0,013285897036797
0,020323671974839
-0,000177911754396028
0,0246956829812005
0,00517389488940852
0,0269432814780585
0,00852846070581983
0,0315282568913821
0,00795026272208598
0,0326246423746328
0,00462196402364177
0,0259421156404809
0,0139980257886469
0,0210110779972399
0,00854811222278656
0,0187562361425182
0,010678056542857
0,0245179931714149
0,0216467075734199
0,0263158033764639
0,0100863171660022
0,0294925512177319
0,0103467931039979
0,0246276701001572
0,00703733101892287
0,024671573181559
0,0100062857821909
0,0322134733291184
0,00855460769572319
0,0341768178713901
0,00640816376671909
0,0268857027761072
0,0108737220694511
0,0273502276098382
0,00278767623342309
0,0238997299025169
0,0114398214050415
0,0301222398806751
0,00663736498512343
0,0276445767603384
0,0116776063291089
0,0366590600040159
0,0188372793941386
0,0242333093014912
0,0163416488703975
0,0185253194674634
0,0108569085556484
0,0220969118238813
0,012474105188447
0,0320037280203157
0,0160696823971997
0,0305850105121917
0,0147687430222978
0,0223640959118763
0,0134308080422906
0,035706172102785
0,00692101202348101
0,0326436255668745
0,0114972827356016
0,0304735365665994
0,0198145079341683
0,0304233851358568
0,0176681357120166
0,023672630104623
0,00925287344774356
0,0118581242348296
0,00244872144441035
0,020911854841682
0,0123887028172812
0,019396757819389
0,0205872088977692
0,0336815420177426
0,0142514999870576
0,0318966266209117
0,0159553846708596
0,0202632186027822
-0,00254138189021974
0,0172450366320651
0,0065540830007524
0,0290985068567847
0,0153953089167689
0,0322172174649022
-0,00179256895454927
0,0160943487278949
0,0146306639841328
0,0138889794711811
0,00353859862255191
0,0320059082442152
0,0166169863981116
0,0194963360868613
0,0182392924436799
0,0167222559245383
0,0189586387501497
0,0213804319558409
0,0180616203652603
0,0238400539623268
0,0191454894242333
0,0172944743631726
0,00381983445217871
0,00370874611048436
-0,00226966684412469
0,0559867052737713
-0,000742215984253113
0,0605120410979437
0,0127963096016441
0,015687375740434
0,0135492432699475
0,0490275581820522
0,0101427700202176
0,0223417989707012
0,00669540318024028
0,0235776955705877
0,0108448350813985
0,0225309815868028
0,0103643475690939
0,0436154759159592
0,0212951817895672
0,0128386292950488
0,00718835011785327
-0,0116182007678481
0,0171938071286223
0,047931337018596
0,0173604620130369
0,0332416161892019
0,0124206712501456
0,000790558338401875
0,0167583847336229
0,0548613806919605
0,0252592453857139
0,0271706155774031
0,00132614240887034
0,0145153940876796
-0,0141583780921618
0,0473672647446401
0,016904521965715
0,0330281192446194
-0,0150777325509853
0,0397758390317497
0,0297203741813878
0,0414747134760562
0,0100211296401466
0,0147838324839031
-0,0195278869398757
0,0508764322018587
0,0300570050691594
0,00868692896104745
0,0281210444189045
0,0293007912593279
0,0113291210086215
0,00766162683546056
0,00115362469963295
0,0241874668270897
0,00899281798413982
-0,0332334929697642
-0,00475710241206124
0,060712646439313
0,0272663815543061
0,0730513216678438
0,0177815792933183
0,042428568153652
0,00589312505979462
0,0277885504673751
-0,00249985232735716
0,0352446926195511
-0,0107374774653535
0,028664298389015
0,0203595932840917
0,0228674394357157
-0,00943855599359664
0,0510721884786057
0,0051299767040389
-0,00682771791018654
0,0547056851312853
0,0332157032392272
0,00422472316925695
0,0383175497049104
0,0421719801590337
0,00170092166379256
0,0171341153057775
0,0300840289052821
0,017440154238761
0,0092352901791464
0,00361738363054388
0,0117826981204005
0,0223557649021698
0,0288652052642991
0,0143458470220718
0,0249693561981989
-0,0212551301523495
0,030826191739035
0,00815650535558987
0,0620839599794427
0,00759846371499735
0,0312234575390703
-0,0356439247759315
0,0534027535258894
0,0390899329770826
0,0398731544621195
0,0178900868278466
0,0235499613009752
0,0113600583321186
0,0139137054126131
0,0137039722095008
0,00990383842136569
-0,0141840233956835
0,0346022103711427
0,0432415118212154
0,0237481335631453
0,0117446771266519
0,0164905898543025
-0,0159798087976802
0,0535172258836299
0,043460315724523
0,0267058767001683
0,0108750258406985
0,0100031829283143
0,00839027703736889
0,0510435501015892
0,00373267939674453
0,0335740203315517
-0,0016467142124671
0,0278256766003921
-0,00104431757687332
0,0205016498619595
0,00210195257160382
0,0233569874758804
0,0123157421465798
0,0228699488979757
0,00933920112553376
0,0213157343256964
0,0249038809093891
0,0151532884805079
0,0227115252943333
-0,00917093728527576
0,0183499600351044
0,0298624655971288
0,0245903283685668
0,02472478605975
0,0183650172124655
0,0223297274709475
0,0103612246903176
0,0159620118335742
0,00789851292403462
0,0161325356510589
-0,0228260625142281
0,0530998501111396
0,0151725076430849
0,0392726102932319
-0,0112950599749724
0,0383725460836161
0,0141514910004368
0,0309543773451932
0,00451446010451023
0,0269860203239193
0,00290155569049918
0,00702132253849309
0,0282879344069564
0,0270039139374404
0,0131466244634815
0,0278010950227756
0,0262977467473963
0,0199389444294793
0,00838827647818974
-0,028743166770613
0,0699939431130017
0,0147389358727783
-0,0206221145483237
0,0635412199938132
0,0336040119946258
0,0345685651240882
-0,00236790960188312
-0,0184536229200838
0,0331816870636214
0,0904987825455214
0,0111770281819351
0,0392122136399983
0,0138211372797776
0,0291392438634024
-0,00538778871353864
0,0226533980571482
0,00123984055417565
0,0336565203482092
0,0272112895635803
0,0666906792506208
-0,00309298183363406
0,0283864819772658
0,0323360574686322
0,0234772618947852
0,0175680629799317
0,0133455111767242
0,0136894696583803
0,0200249058607509
0,0207332500282743
0,0207828956335292
0,0147727026122474
0,00928355422829632
0,0311067811899723
0,0264461366500624
0,0057543272323079
0,0290607941731244
0,0129567679638251
0,0323834711427548
0,00709032796856143
0,0249110034210954
0,00456750747117293
0,0214121265613298
-0,03222273216113
0,0591688708303624
0,0167898017340908
0,0202855715569649
0,0322493698411396
0,0313694768932682
0,0100965942546459
0,0232615596683755
0,0112497424308432
0,0166131631104624
0,0115695497148772
-0,00597704485469421
0,0343221072550305
0,023133101591175
0,0187181609482004
0,0173305208897407
0,00983067130060412
0,017742983787814
0,0159377367458671
0,0269122229798037
0,0114922558548579
0,0183381465341118
-0,015138027441552
0,0259280717555529
0,0219713012605827
0,00764754233574146
0,00482104954413164
0,0645994717557533
0,0132617018520293
0,0357124280570643
0,00501198947088073
0,027031195353773
0,00367079126092282
0,0212359494331274
0,00742379143131811
0,0143643757612132
0,0275473482269982
0,0336165786514867
-0,00114847985308262
-0,00568540842392091
0,024297222313683
0,0718411237569832
0,0339446789177748
0,0239443839833596
-0,0109034671608617
0,0210154649418997
0,0309965851568552
0,0331100835069153
0,027459404276801
0,0322215500391448
0,0193725075221437
0,0263955712282774
0,00616196265982348
0,0187613932718769
0,00999405581776157
0,0258447345596568
0,00932886227611864
0,027615734817431
0,0171643617523301
0,0137991890296891
-0,00200238243727996
0,0540185874234471
0,0322389092753193
0,0305203247956348
0,0172823631443033
0,00514917237326646
0,0206539162855887
0,0218664803937791
0,0468620876943613
0,0448283121921023
0,0224039153595638
0,0602140788235433
0,0269723253533261
0,0332238072091547
0,0104967057808819
0,0317742666466133
0,0177448500641273
0,0339423500704761
0,0213752960932701
0,0387802184772475
0,0254607054843283
0,0426450324127512
0,0199047942067562
0,037837785421193
0,00476794148597967
0,0452590761830693
0,0229614082618942
0,0257264816087076
0,00239710843321529
0,0177717454638482
0,0332873406426677
0,0751084718295565
0,0388537503774312
0,0387670139252907
0,0372831929932897
0,0362679813784563
0,0221574313985398
0,0299983380925396
0,026092151009332
0,0267477395469356
0,0380535818754516
0,0594541390746157
0,0354315625045551
0,0631467111905155
0,013702410713336
0,0526909089851624
0,0342271827644741
0,0362186960325247
0,0424913881972965
0,0698350288621645
0,0136918190672292
0,0478258962300848
0,0538619838167788
0,0535396844559297
0,0563015802428329
0,0529971543633631
0,0430964870973291
0,0414752320516964
0,0368474175892514
0,0470784607400568
0,0480056018615751
0,0642904678078847
0,040623530582134
0,0620754311212771
0,0481552024017855
0,0547137595068331
0,0507947737856298
0,057492148621764
0,0342296053238166
0,0656631606191582
0,0436384853303045
0,0687962628494283
0,0398274875306605
0,0735190210161576
0,0556580550431738
0,064478134771319
0,0760185508832317
0,070731768699219
0,0634253672467456
0,063139903348704
0,06062951282012
0,0564565670431841
0,0545459577289411
0,0735855677385128
0,0677583993136607
0,0712135558290514
0,0736952837006193
0,0702564847698271
0,0630740434143969
0,0675530881905659
0,0614121533577685
0,079243031095311
0,0605732809350525
0,0829549956039529
0,0523507641946013
0,0886454377461182
0,0529889362815733
0,0986106626944554
0,0779023135517333
0,101506656048233
0,0615337502705992
0,0903657340735259
0,0602849215913949
0,0914722571656488
0,0738229659573783
0,0945627761562506
0,0820439924670954
0,0807777696632221
0,0866519976489339
0,0879824336658373
0,0957681651229966
0,0825037472100573
0,0879544838318289
0,0976098130099052
0,0897678117372356
0,10020571982423
0,0969408487151191
0,100107162763809
0,0963144444001579
0,120577030611784
0,0855245857388
0,113314494238569
0,0876160052901017
0,126863677015033
0,0827699250305427
0,128637873320162
0,103120597407
0,122475838187997
0,0919489108418405
0,124296402165771
0,0974600011056149
0,122513384119835
0,0906187158192397
0,12154201468997
0,113499654254514
0,112101993640307
0,113970500562362
0,1262290769072
0,12431432146994
0,127612336028655
0,117640982759435
0,116701867159957
0,113990716749616
0,122810770149473
0,132798060316435
0,13986123181498
0,115183598217589
0,149844039118946
0,116894399835551
0,160742838723074
0,104212828020569
0,15060483027136
0,0978569737660809
0,156528610955701
0,102125887215716
0,150008618506285
0,11147104924066
0,150372170717918
0,145013999717722
0,16123010226148
0,131645580941927
0,147542524431164
0,137137634754002
0,156064459527272
0,146700773382255
0,152647468994882
0,152479277142248
0,157569690684977
0,154884918115758
0,161977884790467
0,145309638250031
0,157181552824624
0,15178638340527
0,16488153369348
0,146190285615153
0,191804934325414
0,148428914707276
0,183727887789942
0,142573567643975
0,190080019548504
0,14396820044617
0,189003463293747
0,154003361129682
0,193056055437487
0,160097917474265
0,214309768067052
0,166583483866636
0,18702403875125
0,178126637932437
0,178948148251463
0,183682301516918
0,173407151301742
0,184143346708183
0,174258351758078
0,192945506914243
0,183537604770666
0,197062290923845
0,186571084007421
0,197823195981969
0,181468917552603
0,183769096906205
0,199245564430259
0,177043602514916
0,197503219823915
0,179816809192258
0,219346996078041
0,178604829806671
0,218442340933588
0,169788242952665
0,227483295474093
0,182431145348024
0,227881504924749
0,172288566187075
0,223358409377021
0,179526421988873
0,210908655134664
0,196303881100957
0,213048718984868
0,212087260604861
0,220842199802934
0,210006592913554
0,213036043145512
0,223409736061424
0,208176101388532
0,216881729517942
0,216052947291445
0,212360031874047
0,219855504682548
0,223537990511171
0,232321088047196
0,212578684954485
0,25148417174723
0,200960858002968
0,231493001659107
0,203104970080209
0,242371610930681
0,208882318668836
0,245373567022726
0,208725811319082
0,247573463753366
0,206205561248169
0,253489509339699
0,208764202327564
0,243827343803529
0,216431464224229
0,246453122334471
0,237990632011661
0,238275220818167
0,245039366666209
0,244418316846179
0,238413512558708
0,232071681560851
0,251238585121439
0,243000139432163
0,246920294080102
0,25224246758467
0,232970523188406
0,243975936175437
0,235439901897468
0,255366826263323
0,237316877921898
0,273439581816358
0,24814505916998
0,26394014599711
0,234965966935686
0,270320057974258
0,233671993827267
0,256090323925938
0,221005714095564
0,267271850813197
0,230412293008021
0,269413634230381
0,253190848665326
0,265909592463961
0,244380801151652
0,252764394044915
0,247267355100478
0,251755511093904
0,253426256029953
0,251395520137028
0,256306190515279
0,267336136846201
0,25139924981476
0,266634646483516
0,254899992865977
0,264560751778535
0,253223340725601
0,270940808670579
0,245660047075905
0,266423020366223
0,248856293762146
0,299623727779786
0,242367774357115
0,277509562995598
0,253505355480481
0,286700138402788
0,253846730303517
0,276858315866085
0,250252319807268
0,291702109288079
0,258880899279214
0,268129979917374
0,265831850753706
0,278881371766615
0,260826995231008
0,270678131106148
0,273789021885286
0,26726838338266
0,256492539468259
0,272895705484631
0,268478711901443
0,273989304118802
0,269930350481667
0,278584411922332
0,26484396647376
0,288232937100931
0,255173417014063
0,285927465649993
0,250572013669912
0,282522826838375
0,259284467773232
0,28787905728341
0,251470069336109
0,289396039299853
0,269925993466132
0,277330051367247
0,248595683379617
0,277223921930547
0,254732421778582
0,272353245599237
0,26496120991707
0,273856018351751
0,262022073618524
0,274191021721819
0,266143165038337
0,273801250268213
0,273434809123108
0,271976108447846
0,255213767873516
0,269353713411438
0,258812165126296
0,265129075767483
0,256923871742141
0,281599939781554
0,268047306756542
0,278418109566428
0,263037999798133
0,291300567033238
0,249917216743338
0,283955306564487
0,246840246624351
0,267618125792078
0,255267078465038
0,278201914768188
0,26410450127664
0,277293037787917
0,263247604640484
0,276360607318558
0,262803736153738
0,274769599769765
0,257995326502478
0,270604498735092
0,26123320212427
0,264572047524307
0,252185102222688
0,270891450949147
0,255089862092951
0,272703802935148
0,258689825686549
0,27263064165285
0,25511477900502
0,268561487657396
0,258292810646461
0,269502191532731
0,251667119504127
0,269194049566884
0,250041296994502
0,267994810705428
0,251553746769492
0,266472880447631
0,249427603679629
0,263783264948035
0,252093247828511
0,261057657113345
0,24782455296506
0,254535286827483
0,247323513898505
0,261431325267494
0,254299873460353
0,257590231155678
0,239603303196267
0,254577064484352
0,242270505203918
0,258862062031404
0,236595224597148
0,246458959071945
0,240613334972923
0,260784028063863
0,23824470102565
0,255345893891337
0,240384415067018
0,258598068549574
0,238696875522845
0,25012046121548
0,232039831889489
0,252707177520431
0,232044233199536
0,249747454976095
0,239404422824225
0,250917175257537
0,23286636520664
0,243785125994041
0,24520443714905
0,245223871655504
0,236114105819939
0,236286529177199
0,229593312508864
0,248676505302318
0,2308338969864
0,239501996670838
0,223686375673096
0,245241040361003
0,223754766678468
0,249019019902214
0,220813242051011
0,236778263490716
0,223285257218467
0,243322271939306
0,220482284485971
0,239591952301617
0,22493950519893
0,232703369215433
0,213918179682655
0,225617399822572
0,21720328084381
0,227897359456109
0,210743517971189
0,229390202839485
0,226605113205638
0,215388400777959
0,216965848073821
0,218503378353833
0,214527723922896
0,226361513450975
0,202818001366685
0,216888237469275
0,205895048137987
0,213368750828363
0,208448310491911
0,224062099098921
0,205797103881466
0,220042550787114
0,192747287175389
0,228355499610637
0,191276070235319
0,213600204203608
0,195239365319063
0,209480416204431
0,200588297269621
0,210812357743791
0,198921798840127
0,204831890863256
0,204442261476145
0,204591740172308
0,200178904382214
0,189968771106069
0,198939866084693
0,186495419036696
0,195139271131093
0,192281739108461
0,195745948829603
0,202768875454283
0,188688610257033
0,203069574884123
0,185373032890599
0,1933382784213
0,181718145300532
0,201900087617844
0,17221874038455
0,201979824996839
0,176685622510201
0,206370325539228
0,178002495092329
0,190110175898775
0,173544476882382
0,182520261788405
0,179197447587668
0,185091410310372
0,177428843194918
0,182242278985232
0,177955953814014
0,178811224894257
0,178461398826715
0,176765465401966
0,167681616799853
0,165947399894147
0,169484614351503
0,16679997023404
0,17037125695722
0,172918299215536
0,166808766408975
0,177329102307747
0,162474168112293
0,174650139149862
0,159289268359292
0,174926142490576
0,146236580287687
0,172428322207677
0,143216976986809
0,171428445234574
0,143662902576892
0,169835173894565
0,151878301903881
0,165946468704337
0,150966234440738
0,165344374876366
0,149280435702934
0,161810465789871
0,150790899180599
0,151055641743173
0,152635656374489
0,146478208162579
0,153071291424434
0,144151336739341
0,152845344275342
0,138897456324709
0,14558653046428
0,145156072380483
0,144051226921712
0,148916539845835
0,1347331401008
0,15274280500649
0,133041403305282
0,147314308097295
0,130052310949585
0,149624748571233
0,124521677062199
0,156916655528981
0,119703126863233
0,15084784732507
0,122959602699877
0,138684190489848
0,128668525240538
0,138896698830138
0,130838864940725
0,135212660168679
0,133722803560083
0,124940406763744
0,133879019458795
0,118332400744021
0,124903747985182
0,12552708129407
0,131652577443066
0,128131050518437
0,124915694241338
0,122670727951474
0,119945340398011
0,126010290093735
0,110684858471237
0,121061864036391
0,104118625865911
0,125322722888363
0,103802231615149
0,133348175508254
0,098435093582019
0,130634482769181
0,10254397265042
0,125524474467367
0,100751317391385
0,117373787485886
0,100067376301056
0,116933616520493
0,109198996283537
0,113877060646565
0,11045670492783
0,105211396419439
0,108358885412458
0,0996842499385066
0,111695545889223
0,104296673018043
0,107482276879719
0,101690346132264
0,107827789480683
0,101062852427822
0,10073142157683
0,106023208671503
0,102567985965039
0,112213040679007
0,0892240973048452
0,107922879608562
0,0906292649993357
0,109949722963816
0,0847837398408562
0,108944031944841
0,0846529514323427
0,110024102470585
0,0892454110165944
0,101195525992576
0,0972247320143845
0,0992309040156884
0,0907949845154519
0,0907858785297254
0,0901068104362179
0,0913422010824088
0,0932285233802577
0,0876603659119578
0,0921321171024858
0,0844170657220043
0,0965820393734234
0,0823056407549711
0,0922063274318032
0,0868074469510158
0,0821208746135266
0,0905151584715726
0,0776091316770591
0,0941242573599893
0,0761019083189672
0,0926557765592775
0,0790827255506703
0,0967309408118153
0,0749108792146098
0,0964919348498718
0,0674594375535356
0,083143543525443
0,0658949787238108
0,0897572830936095
0,0704547885939736
0,076961132555981
0,0751826173436875
0,0826976017661646
0,0823291268402103
0,0807963253704657
0,0759500745683812
0,0753492680175652
0,0749604680127182
0,0726026165171897
0,080952917826747
0,0760478705602698
0,0793033740909955
0,0765976940824666
0,0698195472179245
0,0763631811238626
0,0666956782214645
0,0729588964511133
0,0588666921911196
0,0781761094871196
0,0620255649900868
0,0805477336814565
0,0612785970923728
0,0800602152939395
0,0623762823264054
0,0788121927974988
0,0643921316238888
0,0792949860737036
0,064860682600391
0,0662642313742717
0,0614240142029945
0,0736816444340496
0,0697250467447545
0,0728529656532344
0,0675702812681467
0,063392116468196
0,069088849574272
0,0659573799473252
0,0619157720924257
0,0618976461690043
0,0629857972223546
0,0629837989135524
0,0592631425088291
0,0637530856998872
0,0590076249855409
0,0679005336173695
0,0553146647225806
0,063366522110953
0,0515892559048571
0,0640872863020698
0,0517087807485679
0,0611513323958832
0,0502990734322536
0,0657052394086339
0,0503495329288869
0,0618587279558702
0,0561089275736664
0,0620392784471287
0,0519476905260923
0,0534847773766793
0,0532487020254916
0,0523894976773873
0,0515676674025652
0,0521007274837451
0,055315017656473
0,0583846533310616
0,0554708447979255
0,0523873593866954
0,0513001187877259
0,0519382242232905
0,0484801195775345
0,0575754237630187
0,0522681034317302
0,058324216102617
0,0449083935565508
0,0603050403004174
0,0489042327047954
0,0584828359515647
0,0461219338485775
0,0564212051914618
0,0533236890366298
0,0556917696116393
0,0475754918600685
0,0516562161300978
0,0470991666144058
0,0531200585806963
0,0527413504410781
0,0550517196955542
0,0525959078644108
0,0508221966266947
0,0511725796338034
0,0513930459865661
0,0479203754552389
0,0557429243686023
0,0516552980137682
0,0510775568187802
0,0525993875855002
0,0558567286354002
0,0493407394464944
0,0563934282364098
0,0520019965499526
0,05887603845061
0,0455574420154259
0,0550628544849425
0,0514338916745607
0,0603586284791839
0,0508057358260492
0,0584391409026502
0,0571591818868733
0,0588576078377147
0,0477468501131017
0,0609312447335395
0,0510368186153809
0,0589809482605084
0,0576738285865959
0,0588215916821744
0,0557620569451291
0,0610317516095783
0,0582676274701782
0,05745517280114
0,054770282691613
0,0646899986628419
0,05175810208465
0,0648492953878719
0,0576173851393285
0,0621052477311588
0,0586377906282424
0,0686713800554891
0,0541751275260035
0,0705348477305724
0,058567087454708
0,0661556232039222
0,055814343346763
0,0636993702658897
0,0601630886713514
0,0699310621784683
0,0666128041208867
0,0782477126800472
0,0655839127501659
0,0701242589294798
0,0658111088614484
0,065626009181083
0,0728400373662949
0,0701442663405842
0,0647145953720824
0,0730925766119637
0,0696214351641736
0,075823566162556
0,0681691525778443
0,0778269745193018
0,0659742115240893
0,0765454833565586
0,0665454947540518
0,0794376064735464
0,0658437087373902
0,0782857827705192
0,0668565119773562
0,0781802359358428
0,0679301750244526
0,0797573900560066
0,0683078652417297
0,0782482071316942
0,0629949834798545
0,074845363132293
0,0696242898423725
0,0687659020981452
0,0650810269458187
0,0682374903591178
0,070631650758919
0,0703976526791713
0,0727762443866895
0,0718518605818553
0,0710423363329919
0,0703137187932841
0,0688259946627711
0,0724584387574785
0,0684862077837652
0,0745073510181186
0,0623848566996046
0,0817236873487828
0,0620923059457524
0,0785354115289522
0,059284344923423
0,0753035839105355
0,0673753200598278
0,0772409830013801
0,0676589238139037
0,0705773561972425
0,068240540834505
0,0738653573692817
0,065501990492056
0,070148611498868
0,0708368710999954
0,0699434514799733
0,0709437615189562
0,0662673774878078
0,075478852361943
0,0644339280330689
0,0710194848488327
0,0699011663090982
0,0733319393115083
0,0744703327722783
0,0705304417801817
0,0728001280078951
0,0677722547393852
0,0737425711294435
0,062221315613759
0,0754104105844157
0,0647089164340855
0,0750379146475659
0,0603890444092798
0,0783401569272985
0,0643680877967207
0,0787343146485476
0,0620153782295244
0,072872027623605
0,0622086714217464
0,0680262057585182
0,0647621678892437
0,0669350354154881
0,0664317524017401
0,0624919720676683
0,067554206759826
0,063067902263388
0,0621454914863493
0,0590192514585484
0,0612357458588321
0,0574786380598732
0,0552046388826311
0,0593311639838252
0,0535686949010974
0,0610543276718162
0,0541068113624426
0,0630244365652557
0,0519998141802265
0,0682563598850269
0,045045127669101
0,0642906371233656
0,0472895848493983
0,0654644791664469
0,0394787066292683
0,0575641916640408
0,0442939028088415
0,0569778931639947
0,0488536557469316
0,0534815765535567
0,0498601802195487
0,0514748233659202
0,0542099393597104
0,046447829458144
0,0507487527963902
0,0445465660735769
0,0570321964911704
0,0462516209187068
0,0506226497970171
0,0491123286883436
0,0531611941353118
0,0444023703483654
0,0466002076529483
0,0510235363185968
0,0413393211309609
0,0545883754067305
0,0405618746851656
0,0521864549477032
0,0377654969775512
0,0564925969575636
0,0363312768504895
0,049297890670283
0,0345677341016024
0,0478957867507855
0,0404472739113258
0,0486735999270914
0,0415045446538443
0,0463391854373358
0,0445402631029146
0,0413883199641658
0,0436892902922067
0,0401914496669082
0,0454611830617941
0,0384800778819336
0,0501739167336315
0,0395586446400791
0,0440494639814173
0,0392747283178086
0,0398623275904174
0,0403533212437199
0,0387796537983059
0,0414734686159123
0,0336322683686191
0,0418456776250492
0,0336096495172254
0,0444823779009699
0,0280044867122176
0,0445523310655029
0,0312299774720872
0,0473503221245715
0,0299994589157762
0,0462375184983113
0,0337830145825192
0,0393533182180286
0,0352481993096995
0,0413180647138722
0,0366325938736561
0,0372821663566537
0,0354585840862802
0,0323248655694494
0,0389609939385274
0,0305628427394116
0,0368068552240726
0,0335661219957414
0,0358028148074822
0,0331972061414034
0,0357042090376524
0,0303573306740986
0,0322942518506629
0,0399979585834563
0,0317311795246801
0,041358699419256
0,0289846522523891
0,0430723098122169
0,0300960899534154
0,0444520987754092
0,0254857352188484
0,0417022976047435
0,0260804225151737
0,0429336662423144
0,0314241240068753
0,0392044577092124
0,0353138553825319
0,0354291436880872
0,0323224044215134
0,0337182774288277
0,0386798735748915
0,0288619793019347
0,0369949879037911
0,0280368876396307
0,0399237891269155
0,0317696644973287
0,0312649390618709
0,0300824281973468
0,0371806827656869
0,0323366135056534
0,0292950363312316
0,0336013330624425
0,0329093719770411
0,0353079224762535
0,0259815967340745
0,0383350579234274
0,0233049937447663
0,0409324582489973
0,0249810674765684
0,0388780339188144
0,0227136294710116
0,033258400649549
0,0227010521070737
0,0341782105698682
0,0237972551440687
0,0339801737500023
0,030542260532048
0,0329374096639093
0,0327291695900456
0,0290884463571045
0,0330990023144452
0,0330508023401067
0,030923388353003
0,0281660869225704
0,0287745507840055
0,0299311882318818
0,0291735192510975
0,0300373584175521
0,0279474459674378
0,0295929083997546
0,026132022370679
0,0305476982292825
0,0230733354050519
0,0346243225277944
0,0216961161950639
0,0354733790419249
0,0258260310619753
0,0354013247415567
0,023186042949143
0,0348593395519272
0,0269544011305221
0,03299831494409
0,0276178080557735
0,028604357928365
0,0315593624121358
0,0297952877998832
0,028284426065652
0,0305164764783792
0,02865141834198
0,0250241571071898
0,0279858938972839
0,0286657626732026
0,0297471588257223
0,0260958523385146
0,0280781414059623
0,0276205260068274
0,0247269165627179
0,0296990660085723
0,0289324247466045
0,0308509588887735
0,0225262173918247
0,0307713627113431
0,0231058378344625
0,0302594776156131
0,0224001057760723
0,0303157213465749
0,0216589266362639
0,0301966424189026
0,0208002097199854
0,0285140564581386
0,0258897081125653
0,0281039069001351
0,0236552651313266
0,0251767692064682
0,0242253417974824
0,0234213580478698
0,0250974472654143
0,0241783072496866
0,0220927399285007
0,0270977696268311
0,0278603605597017
0,026455707593513
0,0230573345502235
0,0294170531613909
0,0237967815607165
0,0269331204879557
0,0213762779436245
0,0295575282962803
0,0233317428592074
0,0267872387627544
0,0197029173836207
0,0263584554772063
0,019881013823985
0,0288275448201338
0,0175401569783744
0,0256125527933741
0,0218310704599849
0,0290040376768013
0,0235222743719311
0,0217866207224884
0,0260875750467021
0,0231612603337521
0,0227847565987207
0,0253671847251746
0,0232441966161449
0,0235827836176545
0,0231199398915072
0,0223811055606482
0,021718202118879
0,0243070698039934
0,0200886347365324
0,0237870316258843
0,0187814536016569
0,0267925628160642
0,018581334301347
0,0260441564548201
0,020479130950666
0,0224627581735429
0,0223068857586918
0,0266809248594777
0,0193073287538473
0,0216961119225984
0,0230907904388265
0,023511172631222
0,0204175060443362
0,0219882429632761
0,0221255314260714
0,0213130127884503
0,0163798276944604
0,0185073726474621
0,0218282367999741
0,0193169078207805
0,0140647013589229
0,0199992533130042
0,0194094536350087
0,0197668801490029
0,0155219700051144
0,018829365796972
0,014618965635699
0,0256501759634034
0,0162924482808029
0,0245676531816547
0,0165165889613971
0,0216446959293051
0,0131196424525312
0,0207259975177557
0,0192653472511671
0,0215045612295188
0,0187320170595361
0,0160801974769055
0,0217211654571626
0,0197821273511871
0,019636850826808
0,0186073860232966
0,0192764584555329
0,0166862424578162
0,0162578130792325
0,0204359331677944
0,0209568082320076
0,0184196885348181
0,0144465500075622
0,0194782226474124
0,014524877752668
0,0233285227756248
0,0152301086714532
0,0220318022687053
0,0160293214388295
0,0215393908157647
0,0132361210846655
0,0240137276497186
0,01260273088319
0,0196735039745255
0,0130096414680467
0,0180020844435116
0,0139020020505468
0,0172739008764942
0,0191782538860062
0,0156593840685368
0,0202295607173284
0,014569251352236
0,0216833056252337
0,0177212483034606
0,0224282053155713
0,0156899825954383
0,0196170891516027
0,0198557876752762
0,0155832815226713
0,0173514332326003
0,0143923034222528
0,0188520502095459
0,011489047129047
0,0195589471313601
0,0107431266247744
0,0222193522373744
0,00859863686859777
0,0196562496259382
0,0100593921689012
0,0198855078401831
0,0108316407743982
0,021165949114656
0,0137044831729227
0,0183588009885271
0,0161692379108873
0,0162653320729664
0,0138232840844984
0,0157178941057272
0,0160138238491839
0,0113130965568654
0,0188571455618597
0,0138721452214634
0,0153663618199052
0,013391553589857
0,0164616787474549
0,0157026789744627
0,0163976803647082
0,0160694809754425
0,0129150295455559
0,0167140539146144
0,0125664454792264
0,018919402140501
0,0123518424117884
0,0238998094289037
0,0133730610218749
0,0204359700738971
0,01019409583687
0,0221914893120158
0,0103957378810051
0,0206990403570481
0,0140556226799552
0,0175589267740426
0,0159999549014975
0,0181136248561367
0,0190469304861282
0,00970863630352438
0,0161826742757427
0,0161818701748991
0,0141122140763046
0,00896228375792169
0,0150386641469803
0,0126784523784594
0,0121977254846135
0,0147526368875386
0,0160590236867074
0,0145197633362862
0,0121694547371548
0,0168357811414778
0,00836933667550075
0,0177006630744042
0,0111444233911541
0,0217739634986649
0,00894981413588283
0,018672750650464
0,0101772510078201
0,0159836761804529
0,0109528478584231
0,0154004146871541
0,00834610898788249
0,0141736444389146
0,0128141671996667
0,0106203180635724
0,0144592559908043
0,0147622847077835
0,0177793673177736
0,00973011193783517
0,0197554260789881
0,00859360244077869
0,0158848746496142
0,0110991042566908
0,0121126877070063
0,0119744140040447
0,0124327848366405
0,0138177135332523
0,0114304583836027
0,0141113837788761
0,00798681717310019
0,0110976182199369
0,00640554897682872
0,0153460085038054
0,006484359439034
0,0197521203163804
0,0090485058277753
0,0185966795409357
0,00851582563011328
0,0137955744561358
0,0112751361434395
0,0114144316205533
0,0109968252187477
0,0140309449683551
0,0118483703041078
0,00909282059689601
0,017008321534398
0,0119528793928674
0,0160105393222419
0,00952927645801701
0,0148992081801249
0,0110156484644685
0,0120166934628305
0,00907227579375293
0,0118280435770763
0,0130171802160984
0,0110275422727019
0,0141178840276621
0,00877460834591141
0,0157394499110478
0,00803020662398209
0,0167731607141387
0,00496665761276461
0,0157848414714678
0,00436271347887308
0,0139009180461743
0,00846689976657359
0,0138588058024576
0,00997233458535862
0,0132218999027391
0,00822782336634131
0,00812880543421722
0,0106691947712525
0,00737364708955605
0,0113464011785049
0,00292373436570075
0,0121863804589089
0,00489483042303931
0,0131598930991817
0,00892983438993352
0,0156304413939596
0,00776486502156142
0,0107028490541087
0,0094525013365657
0,0106590453482044
0,0111093022903282
0,00660964008602961
0,012857722970393
0,00609775289082845
0,0162587115789171
0,00705791279563388
0,0148194723302043
0,00537115842634012
0,013280949753389
0,00346626313643046
0,011403000971865
0,00682834021475573
0,0090333836004743
0,009802417762995
0,0109218769272658
0,0115545948542586
0,0110877937395587
0,0113193997739223
0,00651278821356859
0,0112155192067967
0,00699242232556446
0,0128188428462749
0,00582485946700744
0,00748529023526387
0,00781500490419909
0,0106337793129017
0,00998486284300535
0,00975036641744281
0,0091182379926869
0,00805265792830368
0,0125183142061816
0,00471588800189015
0,0128495253590511
0,00761519387642546
0,0145290782434177
0,00596027173682606
0,0122446577174492
0,0086572678135752
0,0143208431470871
0,0108581180014707
0,0114333708009633
0,00781559537568804
0,00878442173526111
0,0106434791370955
0,00553756203788091
0,00758310696308814
0,00509039028895755
0,0106593497496189
0,00456517284839649
0,0103917030758456
0,00634773191199365
0,00827378618764599
0,00452667124598162
0,00821951655265324
0,00634111448136625
0,00831610623430092
0,00908390092942942
0,0084965144604368
0,0125890772726156
0,00755155768063831
0,0100582706697957
0,00543248224343617
0,00935292567171774
0,00534217500312849
0,0114748382170693
0,00658103836047306
0,00907604199202497
0,00871613427360488
0,00801048098449303
0,00835196121340525
0,00563384732323257
0,00992494836532287
0,00597597760276477
0,0104064968045634
0,00230482421551467
0,0107886627937758
0,00491447705244691
0,00967132770293506
0,00195368026800216
0,0100122874777592
0,00804579755887666
0,0078349224668898
0,00654009535068902
0,00695925707863344
0,00208935215826611
-0,000835152625961349
0,00768379786381958
0,00803557199706847
0,0112953352764726
0,00461796602964106
0,00470647799551303
0,00331011826018487
0,0100342846143547
0,0114024877080481
0,00190873078447203
0,0124551620767863
0,00370968399508165
0,0170963588844188
0,00116027603824877
0,0148316959681906
0,00803307617632121
0,0169668222994611
0,00510521656986603
0,0139062066323531
0,00859385820989831
0,017292421476571
0,00887191945447845
0,0154989432752261
0,00497599718867697
0,012237277032974
-0,000778559006617477
0,0147064584331947
8,31066796163494E-05
0,0133055258336306
0,00623664031812659
0,0171419022925299
-0,00173542493056866
0,0182444718839907
-0,0022558444827909
0,0206241676858862
-0,0100932203040983
0,0213898660975284
-0,00753940667319247
0,0268322225190325
-0,00615851058792083
0,0290569526936273
-0,0119419909344726
0,028784448226781
-0,0164498590708405
0,0276751432517776
-0,0114469195774669
0,0326292699931808
-0,0126451692731849
0,0244572334562527
-0,00859153701028089
0,0292375909672283
-0,00174353109000846
0,00747135453218546
0,00680317270127274
0,00997852239155746
0,0183035273711463
-0,00649111264775659
0,0236231672987606
-0,00542834104144068
0,0312181288411961
-0,0111621401961858
0,0351631471979218
-0,0130251768567053
0,0300882960369441
-0,00742191604134954
0,0183799136593309
0,00189472233388633
0,0139557095273107
0,00617810027952943
0,00907990810453941
0,00939843309081858
0,00878766461917919
0,00419245667077937
0,00966847175479104
0,00137809353109931
0,0126058132004619
0,00377992115547876
0,0156120030406106
0,00141176705457178
0,0155755532291174
0,00444304361002241
0,0158021064288572
0,000677419065585491
0,010299493057645
0,00173609182758906
0,0107786138752154
0,00279799773848397
0,0115561078811615
0,00240492310219321
0,00891516329392983
0,00332819716557019
0,0103638083354362
0,00477238273491013
0,00514132357654147
0,00487286798697129
0,00550492610729171
0,00626060796681958
0,00953097000081193
0,00244221715551784
0,00787380726011452
0,00534451868358236
0,0102336494206834
0,00279695186430321
0,00649191105881757
0,000202200289240556
0,0106535487370126
0,000563821353418919
0,0111378113376782
-0,00208610510576863
0,0127150620323296
0,00253649196696796
0,00914015069882687
0,00242970214977956
0,00935180757901825
0,00138552527415661
0,00800489358320508
0,00387305278898072
0,00879316362732619
0,00631025511173475
0,0102020161359689
0,00502346963328441
0,00866540001735625
0,00623765379712572
0,00787300499300831
0,00755162732170432
0,00562813316870328
0,00447108098991685
0,00851360389228801
0,00521943135938024
0,0118088380247055
0,00343067174827578
0,0110682271196056
0,00266249288292287
0,0126536439865132
0,00133628704246713
0,0117205960080292
0,00345963885535925
0,0115545144435034
0,00180975606368528
0,0127697545815829
0,0061254757653834
0,00967466249338425
0,00464035121517537
0,00904978748317565
0,00472539870754404
0,00773772864119627
0,00163156183329808
0,00343973203302116
0,00396251081467696
0,00447882360421552
0,00468264788534388
0,00330859577739715
0,00461466859747053
0,00625720737789964
0,00551307315203831
0,00690781639882127
0,00472996966290485
0,0082598101572523
0,00275635169085599
0,0100201008077568
0,00220290297234074
0,011361090241142
0,00347125461282053
0,0104892761153413
0,00371725730897358
0,0103972173612382
-0,00168065755742432
0,00964273660326175
0,00116048533675681
0,00972818970863434
0,00279721958750262
0,00623781378932512
0,00742926359829723
0,00724565392503268
0,0075270192590814
0,0044775601426405
0,00924308461692755
0,00717360171259251
0,00454355252704392
0,00388818813094939
0,00676508511996276
0,00844687947001196
0,00731555601476426
0,00804121917585062
0,00469417925829861
0,0106583418612335
0,00536622776838798
0,0123406048146023
0,00190776188264342
0,00979207083820321
0,000662135168668602
0,0114076898330455
0,00281781668974521
0,0125806238891592
0,00515567735775346
0,0115488139432131
0,00313298491063276
0,0108523579154606
0,00476300642180334
0,00669961309138507
0,0038713746118714
0,00598861204578216
0,00759451786891936
0,00829691661831347
0,00830642257518821
0,00728847731489865
0,0108565691784787
0,00560189930213991
0,00964845953037413
0,00480868459756855
0,00607887898989501
0,003365979833619
0,00340748848414593
0,00912826987833847
0,000128514801362129
0,00900105183026786
0,00269345308818965
0,0108849211566685
0,000401186271773884
0,0113553957122985
0,00115423323024296
0,00826437584949335
0,00102163916214537
0,0127918062911998
0,00430443227681995
0,0117450567344371
0,00613679927127047
0,00961500149493778
0,00673103479166766
0,00574177214142858
0,00551451576463989
0,0027535517591764
0,00802947040109144
0,00725429039207681
0,00773083280129531
0,00600746357714019
0,00968654114562512
0,0079355638865874
0,00770238508724968
0,00660914201327286
0,00584509382058868
0,0110655294729151
0,00513850226247679
0,0105977535407127
0,00571339324113859
0,0112836902640709
0,0036611284469256
0,0128976127290154
0,00649365736916652
0,0127130711963628
0,00162778456464191
0,00892892929342606
0,0033040320029964
0,00904921099378602
0,0039173497737767
0,00886708966761836
0,00605370351780757
0,00848806342510511
0,00997770792414775
0,0057313995568502
0,00819273538932151
0,00707497211751953
0,00698105747143372
0,00375545415191629
0,00798994492988134
0,00894597660185631
0,00901540297942653
0,0103937635596279
0,0064237308774207
0,00838638785039012
0,00280440771050149
0,0114407270297542
0,00217309213525822
0,00901115062321722
0,00144474468961547
0,0107515237033183
0,00424419586817279
0,0087389887628236
0,00176668579261906
0,00904298146529207
0,00268678242827758
0,00636857874219856
0,00334899509089725
0,00769258405323793
0,00585677748944182
0,00676233748942183
0,00479014971835443
0,00627939287577011
0,00843620761075104
0,00547828934318715
0,00492132274994718
0,00516028055536371
0,00551235292903431
0,00575034847625168
0,00199281460559362
0,00708312541583296
0,00426177744115424
0,0100878266572919
0,00598809722894915
0,0110414965977924
0,00430893502732132
0,0108141604520697
0,00430567141046301
0,00982502297281837
0,0050766924643434
0,0107668177685474
0,00373963330340707
0,00909573683084782
0,00509400146934414
0,0117184183598248
0,00653655533894752
0,00859824380309623
0,00846405456335228
0,00604825407423823
0,0043938529994492
0,00593146204401141
0,00471805601982091
0,0042582813184583
0,00442586860789238
0,00910366274912594
0,00909302327464539
0,0082637587431007
0,00374703330306697
0,00677504764923853
0,00402210511913584
0,00823952367685108
-0,000433237347214685
0,00671137645386714
0,00458238650196036
0,00888112151165842
0,00754435346537135
0,00969734600095523
0,00567059619640957
0,0078854225407902
0,00150921828878344
0,00548479808774994
0,0039897609230038
0,0055672197987875
0,00505777377437533
0,00884847215114832
0,00532284044889036
0,00536392006828221
0,00860788164843743
0,00878317405712014
0,00697130745928182
0,00718836358154154
0,00538339655111469
0,00423025056615414
0,00316786012167722
0,00661922521088381
0,00778840224041729
0,00741643564253334
0,00548253173743837
0,00934450325196716
0,00229038924729884
0,00608599513161661
0,00299276255773779
0,00609112406327367
0,00146923018079204
0,00690857669376978
0,00498226085702879
0,00753436767478292
0,0063084427571157
0,0105118624417139
0,00433014929844019
0,00723503279470604
0,00467907638236882
0,00546251546268958
0,0056922202446699
0,00607543787952715
0,00785238442099737
0,00613248615247153
0,0073359452760848
0,00915896927177099
0,00514214964363694
0,00635438834807847
0,000547455282853356
0,0061374399065307
-0,000629850130043467
0,0088448976924495
0,0030597382857786
0,00854905235929347
0,00668266070342396
0,0126868286872405
0,00528802372392587
0,00697121579092536
0,00376918410588172
0,00626570113833789
0,00144773109431053
0,00591884201880705
0,00329386056020385
0,00600859327169492
0,00449546897224538
0,00578296581225717
0,000581267255132601
0,00324394697315709
0,00178806821753172
0,00351420840761304
0,00361611411011089
0,00451437759317421
0,00178448150313491
0,0062474048361206
0,00134763041128501
0,00974657952781593
0,0020750905647532
0,0110689179613714
0,00741661500724489
0,00436907307712589
0,00340187285527181
0,00720616899143244
0,00545148328183983
0,00585363629225689
0,00643488532540966
0,00764252686600366
0,003817977930736
0,00756861370150711
0,00652115421387907
0,0049349185435984
0,00345412984494905
0,001575936408837
0,00604431104330539
0,00150301846019824
0,00465848060474787
0,00665239137048742
0,00452802421625363
0,0050954145597392
0,00648237908825704
0,0076037460773427
0,00397565567277043
0,00357291054579749
0,00377746844813703
0,00508993365515837
0,00486442638534626
0,00797470028034834
0,00301458726431572
0,00815699256856594
0,00315393334860841
0,00471138213347976
0,0022579697035754
0,00630833228202142
0,00113389905859875
0,00107182432153669
0,000640392566698652
0,00532365427028826
0,005818725415492
0,00419416625524499
0,00573300244743279
0,00476229403069609
0,00841274211987356
0,00408263281473554
0,00477856121252343
0,00228628339236006
0,00165463291854928
0,00309504075117652
0,00480389869753975
0,00396078983181744
0,00777949782556231
0,00199923533316492
-0,0037351701293444
0,0125697680992199
0,00169221524465907
0,00940390540191563
-0,00384816694178666
0,00828944028810545
0,000425586306511459
0,0116512638336895
0,000790846889859367
0,00687524236287182
0,00253634916502519
0,0076195310737406
0,00288334493766642
0,00529119923960153
0,0050257174434128
0,00381714765538274
0,00233280585257581
0,00516466530119908
0,00425455429118044
0,00794830395779265
0,00414761817999879
0,00128685598057848
0,00700796050365014
0,00788114341817325
0,00442749501132412
0,00832877683373301
-0,00824193705364047
0,023600977866379
0,0042990738554696
0,0145296180827912
0,00216900875048162
0,0103906089618507
-0,000485331447721704
0,0118860895720874
-0,00319509351207191
0,00380357020008279
0,00745020351610126
0,0041464173321278
0,00805068397473038
0,00664932289234626
0,00391317784684684
0,00245715588380322
0,00393775028815534
0,000741832977881046
0,00178621871091803
-6,69149034629981E-05
0,00232397416925548
0,000121526275093518
0,00221702862985794
0,00731781801534607
0,00201637755578649
0,0064517716408088
0,00564732382326391
0,0100423088683377
0,000927404031403092
0,00506884768414906
-0,0029125121853348
0,00221997873610581
0,0091144441455953
0,00521414167724115
0,00611312291305637
0,00482655929341484
0,00458816674680284
0,00199303240334724
0,00264476123740651
0,00496128245239588
0,00613715542411827
0,00200223906464915
0,00558422301713046
0,00503448738211668
0,00860202942846418
0,00748516802668423
0,0090749981538752
0,00293940676420864
0,0071807227954906
0,00348327838395153
0,00157912793670087
0,00866816669656537
-0,00396204930440875
0,00997694681667261
0,00682601789273332
0,0137200878492413
0,00749482760109518
0,0106309532357862
0,00166565564593338
0,00547597630674913
0,00289693926802911
0,00418944053051558
0,00126330468960799
0,00708434523319197
0,00570287229287891
0,0101483873089616
0,00647480543294113
0,00502510798702263
0,00692655411442948
0,000586984385836756
0,00847589395220819
0,000286677053117269
0,00950250420176984
-0,00184840715437106
0,0136776896008482
-0,00513165211535058
0,012780207027
0,000390579907783247
0,0166027641124366
-0,0182586015622366
0,0173768940867371
0,0117010680440662
0,00325205868456259
0,0113457905866016
-0,000828701999057756
0,00969091472206109
0,00123747439546212
0,00792968017200186
0,00585749749670563
0,0095383522046951
0,00186919606402111
0,00658689246900868
-0,00193413290409548
0,00880402154599049
-0,00497255124687579
-0,000424796314746893
0,0216945757067725
0,0039223171413241
0,015349242038589
-0,000285516066070194
0,00398068229138173
0,0166944779129902
-0,00166708967171145
0,0110656602485978
0,00455761352140645
0,00910195967273859
0,00641643576937081
0,0100224322739722
0,00352071404861458
0,0116359620007132
0,00288932178759995
0,0104666396166404
0,00478807073508573
0,00566417170532079
0,00395536637680801
0,00361910052481564
0,00186393122679611
0,0138447444181755
-0,000277501695888784
0,0117072763278155
0,00332471286944005
0,00875879525393669
0,00241468634462401
0,00749522996061538
0,000627438359801328
0,00506896884594949
0,0123575245921215
3,28523357722388E-05
0,0125751207833883
0,0150314435294623
0,00400580752597543
0,0100221304967608
0,00055284505093794
0,0159161441257479
-0,00615282730428755
0,00487565376365041
0,0104162313297164
0,00568005643973734
0,0199795316740625
4,74200508211513E-06
0,00892274043940388
-0,000247646954370585
0,0109620529517036
-0,0075803895653949
0,023387563951362
-0,00526275975713299
0,0157534930415054
-0,00589767512706234
0,0109502732092051
0,00843444384571705
0,0102420219213947
0,00605671183627988
0,0107862422594838
-0,00340746513341244
0,0191355807623341
0,00132967157232719
-0,00887364152312175
0,0072698488132293
0,00118220573011925
0,0267544858753056
0,00882073226338555
-0,00410651892180935
0,0249561441501324
0,000219518002410731
0,0139434095407148
-0,00187545061650016
0,013473317966397
0,000378067867100783
-0,00265752882026216
0,0285486571035908
0,0055993494801228
0,0164070873907835
0,0114879898616437
-0,00151924970258486
0,0210455817944586
0,00926140433668206
0,00908502090266909
0,000618602550284421
0,0171217136492836
-0,0236224269734278
0,0471512918699544
-0,000954336152819618
0,0174537260436497
0,0101207233016932
0,0148104680676865
0,00963396363163804
0,00892954736064818
0,00324505229174366
0,00952472886346942
0,0160050306673949
0,0134729835978335
-0,0043933699199697
0,0126284932483338
0,026467528694866
0,00240605059843869
0,0242789308015599
-0,00320230280058572
-0,00200682861930016
-0,00630308298835968
0,0238939792774694
0,0225243785340995
0,0159028827757614
0,000834174857966863
0,0226263221494921
0,00980719199056255
0,0137669410248139
0,00490249949048134
0,0088864345798072
0,010852248688157
0,0055502448692183
0,0172672596207416
0,00604122950693836
0,0205576960934307
0,0082053067676694
0,00837979650269802
0,00420028356936725
0,0151365230151009
0,0377425223563017
-0,00343598459557961
0,0319049694419264
0,00517351861228295
0,0270688109413776
0,010315486529966
0,0144623194867608
0,00921627337774041
0,0167349505606769
0,0139234744332007
0,00130993917456208
0,0206603922755625
0,0093714825986749
0,0181360478019657
0,0288537095932094
0,0148675018602245
0,0180475987836558
-0,0351127884968708
0,16666779065896
0,00540842961861212
0,0489553909203796
-0,00251987035215339
0,0219266849198064
0,0377963201966833
0,032930329740235
0,0230902163197675
0,0292065242222064
0,0178301363248893
0,0306869691380005
0,0229825771221279
0,032231985532561
0,0256425739640252
0,0398393595098409
0,00662420007774166
0,0346692094976263
0,0245344143324427
0,0800646184324455
0,0461454011124297
0,045038269494281
0,0450662397278805
0,0502320019058894
0,0273483996656713
0,0523581040838804
0,0222998682966291
0,0296031496239447
0,0597299959117186
0,0489819593284587
0,0523055689316807
0,0295228593450601
0,0726280850389969
0,0143635137066036
0,0949964685301463
0,0418632703747806
0,0689284378781293
0,0442695524172421
0,0602815774257384
0,0576062063214603
0,0421459717110967
0,0747985418153763
0,0576537777244597
0,0686770899598769
0,0574868855934211
0,0650885416689616
0,0567816206003566
0,0639646829014976
0,0611256060252564
0,046480603182166
0,0642985000434509
0,0189298426856429
0,199150970914698
0,0740446415455295
0,0893900820561646
0,0645860931795946
0,0591133437890734
0,0818734189432535
0,0469480700487298
0,099264844989264
0,0766126255057428
0,0699688411735971
0,0673139708011388
0,0666175319482364
0,0686149249217386
0,0640820566866284
0,070572749382304
0,0447966449768727
0,0879061407965095
0,0286705189606129
0,0638384100301561
0,0829725112366332
0,0716775839717061
0,0699283962885978
0,0645736330462636
0,0611539560054519
0,0624308340151182
0,0479665191189683
0,0567122066962634
0,064961734560368
0,0516992721955118
0,0643074392863724
0,0414620452348388
0,0767084639847973
0,0672677572237607
0,0597943595378923
0,0624686641723478
0,0468587784579738
0,061115794311806
0,0260405846098495
0,0325675991109412
0,0722842854458539
0,0485893438844219
0,0634950291429909
0,0424916895482796
0,0589876625063138
0,0424163432657675
0,0498318116176445
0,0437803418622625
0,051502647051956
0,0350192951320029
0,0545906665189663
0,0433365019878963
0,0543391760955124
0,0396609692644832
0,0553615271590505
0,0433390761577451
0,0499893840597342
0,0421768780374617
0,0433223075322013
0,0411075480528334
0,0370991672964283
0,0428721302305495
0,0430245764500651
0,0436208837081418
0,0506222181365271
0,0424889462054991
0,0515657439254854
0,0398478206073587
0,0481453058241596
0,0341695443968048
0,047850583227237
0,0359921689569107
0,0501888541813682
0,036529701356843
0,0505439884640665
0,0399955964010193
0,0510028483916202
0,0419718794510488
0,0408534952180441
0,0357418724737615
0,0382694890909387
0,0436705533933654
0,011750499020606
0,0842784825636291
0,0450060284693822
0,0575892295357388
0,0349282506464612
0,0461501843210769
0,0433458895041246
0,0220096374847023
0,0582894914979222
0,0376852984004249
0,0459994777526324
0,039712453929521
0,0385277208273081
0,0461807749699968
0,0524233769916615
0,0316367510774634
0,05661103355199
-0,000306364213754377
0,0800206889447671
-0,0185680437848381
0,0795562857587599
0,049370547694433
0,0671000350646615
0,0259131902483262
0,0557810917425636
0,0577254938726749
0,035468762679969
0,0501595063054874
0,016661659853451
0,0537503599324093
0,0351372211113692
0,0458708524173407
0,0393327568277112
0,0336275128477722
0,0392371380891759
0,06054032036803
0,0323249383993489
0,0461801494132455
0,0435633076468084
0,0211182510714354
0,0454266024853522
0,054365638012104
0,0551641001931715
0,0266247871210927
0,0470462922103545
0,0244214062444239
0,0405595797491403
0,0488732023906965
0,033060928832141
0,0464052178137735
0,030102725632643
0,0340265182499346
0,0234607929228185
0,0481650747576842
0,0260286516074948
0,0282074967711244
0,0585574910881279
0,0216133822966404
0,0469615879668673
0,00856845402196091
0,0440268312819445
0,0405876037818421
0,0459071258412244
0,0101548163828525
0,0424407033667131
0,0399300644352544
0,0361256009707389
0,0454205988366836
0,0247964079815706
0,0227906199121165
0,0457111175450577
0,00877444595104867
0,0396939668232685
0,0173080393376831
0,040977403185063
0,013954017694572
0,046520584295133
0,0531643258348867
0,0389904718707814
0,0269031895551673
0,0259810787263203
0,0183196691997614
0,0326373228562606
-0,00116834436939954
0,0585742799153379
0,0190235879930233
0,0230076027845628
0,050328968658203
0,0237613388332536
0,03128435661201
0,0272813672444313
0,0209799734794317
0,0252966986717147
0,0220833614585105
0,0598685054390842
0,0178714003583744
0,0460521045572832
0,0308109048344723
0,0417514775522423
0,0269556529682641
0,035123560152495
0,0243738502062314
0,0297169359377992
0,0289617430670654
0,0352496113165523
0,0243886915314022
0,045851981728768
0,0180644734478559
0,0557289929854356
0,0510690744950002
0,0267783221213643
0,0635657120204548
0,0170628334093371
0,0785623934804445
0,0370224524368109
0,0492356904862719
0,038334579395888
0,0470675517910648
0,0496289172832549
0,0317991489483218
0,0484250303268893
0,0575311598832466
0,0441112848694552
0,0496682090890357
0,0420317447041532
0,0497733432316036
0,0368801829405937
0,0691125160129238
0,0338516830864985
0,0952990971832982
0,0635940041309259
0,0665295679745365
0,0583446945481538
0,048354757124639
0,0586473337877529
0,0485431698727272
0,0603425691416906
0,0499916680946641
0,0510625134788139
0,0702956609490907
0,0511300519722997
0,0624530047764651
0,0456674030870172
0,0582180296383004
0,0553016223354582
0,0547039657914963
0,0556995848934929
0,0544811689640199
0,0636922597150749
0,0532305534357442
0,0537201217717004
0,0991592150903258
0,0556914576436104
0,0633065758381753
0,0531561295406829
0,066437214700428
0,0571616919148262
0,0554417375336279
0,0736285133732392
0,0650361873144672
0,0684535605090615
0,0637822518228759
0,063987246064474
0,0601084831956743
0,056614910960352
0,0804145146001899
0,0488844286966136
0,0858578661300678
0,0313995401429835
0,101870446604339
0,0616211211549418
0,0808354969687946
0,0726644429678803
0,0724982014803235
0,0678040348235385
0,0654402242171337
0,0668901999084254
0,065353674324212
0,0711888084302476
0,0604527330816232
0,075291888627968
0,0602033462202726
0,0715914483978482
0,0595161464616201
0,0653578526748249
0,0679747050157003
0,063449929654762
0,0633840426472906
0,064217331577314
0,0683859566081312
0,0515959994809296
0,0791682923364288
0,0655450385035813
0,0788644790851821
0,0614239907918165
0,0698768705299003
0,0717517056036856
0,0730037842677116
0,0618134113986425
0,0694657130308804
0,0580582752191965
0,0780914037478124
0,0566404755618617
0,064073609638769
0,07203642177086
0,0698385826395881
0,0677395350165862
0,0627459738118667
0,0666137456457243
0,0626122177944991
0,0708681116790207
0,0678427955720252
0,0753353446740042
0,0698321320620239
0,0751492031223985
0,0670490255421274
0,0688304833966599
0,065154914420757
0,0703874830271607
0,0754266113138873
0,0600650795034423
0,0728987275559502
0,062246598481528
0,0740252331903545
0,0650534070776422
0,0680940999915607
0,0588700325685388
0,0667297077795495
0,0548739499025626
0,0596748217685217
0,0782332052871457
0,0542396149181767
0,077734944833336
0,0547140535507625
0,0710115866158921
0,0579067152873827
0,0678313756899515
0,05338879371889
0,0607599482221054
0,0569633526082899
0,0606035335657752
0,0574621637341804
0,0566516920814324
0,0563027822932428
0,0583812769179386
0,0573529436540031
0,0522604824487285
0,0577129417354377
0,0547099962454801
0,0556152203546698
0,0526508188446439
0,0535229733799082
0,0553488093514402
0,0524017384368162
0,0640404021776266
0,0548073713812701
0,0675322545333539
0,0503809240886511
0,0654254680333463
0,051292420318978
0,057237069009236
0,0525383318597087
0,058568168436251
0,0525394772253
0,0546107004846762
0,0547455542197292
0,0567502736184057
0,0544649724886201
0,0518984102938687
0,0533118290532668
0,05164320935082
0,0564796206625991
0,0503047874744618
0,0580018855386457
0,0497605753586085
0,0611165178361821
0,0523658882607591
0,0624016223813044
0,0531986860574222
0,0553098813674351
0,0513031406590304
0,0527428488406807
0,0564120581657352
0,0516765952179611
0,0578581686451862
0,0490953059258739
0,0569697851769112
0,0503331469307282
0,0559365214836331
0,0493808054728946
0,0515223865894044
0,0465379493373368
0,0526222554581162
0,0510407745895811
0,0493180246010721
0,0523808417696367
0,0504949844598281
0,0519698855619831
0,0484938442874983
0,054769127642079
0,0433349056504334
0,048661661195597
0,0456981147012017
0,0522249805130774
0,0444669746033118
0,0483477198298896
0,0478863715020191
0,0481913739614227
0,0459719801161122
0,0429180467608821
0,0441024535965255
0,0403027464175225
0,0474334961882409
0,039656377966256
0,0491219474317435
0,0434964227616059
0,0525547302237904
0,0443487508494629
0,0483590909868985
0,0443609469724572
0,0472186026918813
0,045254044879889
0,0441002764456573
0,0462247568885471
0,0456131617044858
0,0494890198648708
0,0449369034484324
0,0501993657594005
0,0430055416724411
0,0492609841653823
0,041755567797055
0,0497873240349766
0,0434707121435004
0,0478224260279102
0,0453281503915055
0,0459677402396529
0,0488707984123326
0,0472394506699411
0,0528847004840683
0,044924378258044
0,0520687250991407
0,0436614822098948
0,0534296811318689
0,0396098817118299
0,050534347685414
0,0431955470671299
0,0484145641267807
0,0447622705707247
0,0488128946174302
0,0499498834996981
0,0463552219281752
0,0467151445480738
0,043475395688693
0,0488739649530176
0,0423594024225029
0,0493251478439676
0,0435430707739172
0,0536241104695865
0,0426072468107287
0,0506631437436033
0,0444814002151354
0,0479185355985005
0,0436934819322484
0,0445014567841569
0,0424054649745692
0,0425553481115752
0,0471841845327506
0,0407255413561808
0,0473983470337559
0,0404061605084172
0,0486409122263584
0,0396987350170586
0,0474714763538701
0,0397485249739425
0,0448192253171373
0,041465289052062
0,0437035590687816
0,0425725226973901
0,0423483137480958
0,0473924022831441
0,0412384533811047
0,0455205702404604
0,0376792010972468
0,0463980625417881
0,0382382570980686
0,0446928075065862
0,0369129770289848
0,0441466086695095
0,0369156328682485
0,0428292995908415
0,0410349127224349
0,0398712541177698
0,0396392601983386
0,0350961479967865
0,0405031483533882
0,033839362923923
0,0410326334260664
0,0334421552114763
0,0423055085745997
0,0339798495628317
0,0430159145281174
0,0345349078402259
0,0415382972924522
0,0380594064724937
0,0387344133950703
0,0373427293013639
0,0344465505576513
0,0395462200718453
0,0341425597235104
0,0398458052063548
0,0315209926538453
0,0384130066422072
0,0320748474521212
0,0416221126011548
0,0316260507234215
0,0375350364532727
0,0300489164282417
0,0355308422313319
0,0337242320939869
0,0349729391654349
0,0401062341421137
0,0339649128407339
0,040510118152064
0,0327210012319007
0,041690144993514
0,0343468752099979
0,0423359906343202
0,0346775187722857
0,0448118091988492
0,0385998938932095
0,0507600559517225
0,04802699808723
0,052417990936867
0,0550832413611066
0,0539874860830327
0,0618862892991231
0,0582075366645033
0,0678890927588544
0,0620528184477395
0,0740844436627809
0,0682998112903341
0,0798638026777288
0,0770866337402026
0,0854093250642142
0,0783786010264373
0,0860703435918116
0,0855190300729213
0,0874403090522998
0,0925482884141436
0,0899089971481873
0,0986887201373541
0,0919238154976963
0,104931939649917
0,0952056250144114
0,106096327780913
0,0972458695440895
0,105423604008627
0,0968502386653566
0,105345843527303
0,100620269721893
0,0998474022824742
0,102268318519694
0,099954485191753
0,105020779254161
0,0982423196031139
0,105017667040806
0,0959248697500849
0,103923665684111
0,0964407141290339
0,10405468180149
0,0952166293746979
0,104368500669301
0,0983836741929946
0,102934842110562
0,102324741356344
0,100376426111438
0,107060659412222
0,0997306194737723
0,107164332696943
0,101600962935627
0,113098176723458
0,107542670307818
0,115862111608825
0,108963256612863
0,11825505860812
0,116853732973305
0,122118889781386
0,12066848045274
0,122334690251825
0,123945866501118
0,121278263065056
0,127965683445259
0,122176058605278
0,132976708199166
0,125217115286729
0,13165786454617
0,122876523187278
0,132352785629753
0,126877039958281
0,128869871211895
0,125632119580111
0,128157844027306
0,12976687937369
0,125681793740888
0,129535332988836
0,123002733723212
0,132486431709783
0,125970443492443
0,133779914767288
0,127846064036911
0,139927824205947
0,13362045812208
0,141554149473456
0,141321818650521
0,14509141289708
0,147497769558967
0,148512836995145
0,154854828260432
0,154171557960343
0,162821224072731
0,154225529091765
0,165043174160216
0,160991122125141
0,17162163167314
0,167061980732292
0,175428468945002
0,174398552223578
0,182758553543744
0,183022315329668
0,186276828779763
0,190312261083417
0,193447429873866
0,19884449663517
0,194144258369726
0,206692946912255
0,199947773438812
0,211301110178724
0,202258377010345
0,212793296118096
0,206569257009644
0,208302420062214
0,210812830792663
0,209823517399581
0,211623110793142
0,208376996277874
0,211532683800933
0,205277850234783
0,211916265505874
0,199383209080987
0,207509126125967
0,197498543983142
0,202516081449388
0,1938465489505
0,197486006301028
0,192218556115248
0,192917130406852
0,194439002407304
0,192775525045397
0,200560393333094
0,1907046129613
0,200436977703652
0,194450236674079
0,20566663340206
0,196439654198205
0,20523471001074
0,201537159643837
0,209843964796533
0,206503578672734
0,209709382616301
0,211889728352663
0,210017975260254
0,215481948555463
0,205330045080873
0,216330624863631
0,205819145253383
0,217669004017321
0,208916738328695
0,218274459107745
0,211376606270861
0,215375001339575
0,210830792552074
0,214278381228071
0,213396485285003
0,208528944074203
0,213267430313976
0,207611132867772
0,213065779392408
0,205343198349053
0,215308023907622
0,202316460917469
0,212214313182372
0,199315498636136
0,207123655266542
0,196596041110278
0,197934316503931
0,196137191167941
0,190324319690845
0,192317731636827
0,188106023433383
0,191681227090667
0,172083407517995
0,182957416039898
0,165430978074583
0,172707597680521
0,154993452882935
0,158931646490776
0,145041055954956
0,145588503763612
0,138272598540689
0,132581117770501
0,127793372421055
0,117081022933874
0,118581248089713
0,105006592720357
0,114850171648803
0,0978511387455351
0,10998635389796
0,0969877799409206
0,104781610824981
0,0928523273304961
0,099447076533328
0,0969260337776704
0,095951892198611
0,0981859134033518
0,0901004573715635
0,0983647659748841
0,0866399736906324
0,0963776792818884
0,0814918543448649
0,0954061865782365
0,0781559787342036
0,0888017693873306
0,0763390794926341
0,0852650770641939
0,0701707882090638
0,0711713474982955
0,067912279985406
0,0635611731158678
0,0705970121078954
0,0540863177065779
0,0651178224277221
0,0499174003929264
0,0620694985345565
0,0418058601032037
0,0590483743905269
0,0432133500408181
0,0500290151926291
0,0372292551577071
0,0421534709139286
0,0401093544967288
0,0378477076279513
0,0412877218347968
0,0238361450654122
0,0396671383238733
0,0204640798622619
0,0404540610830106
0,0139897790436817
0,0349278979108858
0,0187830217701269
0,0340894947561846
0,0186621354106974
0,0298586539080241
0,0298680239295776
0,0269597473594801
0,0297781123244518
0,0228306195324174
0,0382429039427176
0,0193321392160337
0,0409102133328912
0,0190403761253735
0,0402744080162359
0,0167203935798847
0,0381554734703965
0,0165195980114599
0,0317708493718416
0,0274968558521285
0,0283870970384189
0,0295818587122982
0,0228629896987621
0,0375660158552869
0,0153637440035398
0,0395602596688738
0,0156253321297441
0,0436133243956437
0,0132038256582764
0,0371427870664581
0,0168289727026004
0,0355545809331125
0,0244859614764434
0,03334526096777
0,0255231694173054
0,0238639227301653
0,0332210858857646
0,0182893935830814
0,043999113453438
0,0174061128637953
0,0458641954706929
0,0112404119724268
0,0346838427506841
0,0137658950481983
0,0419791317553898
0,028352738127697
0,0344402122084575
0,0226009491403116
0,0275514688214205
0,0383651960182557
0,0233514563667373
0,0410893462905174
0,0161758552273173
0,0496193309978424
0,0160537077989499
0,0519916235827908
0,0178482471013518
0,0495429234017282
0,0216774043442905
0,0409902958622629
0,0285362918363893
0,037404862044763
0,031145205856762
0,0210941052669844
0,0389542676765638
0,02320841578144
0,051166313090225
0,0162811438838101
0,0496186383951129
0,019142348710977
0,0595336256611215
0,0248146152205665
0,0505366189537707
0,0352884758084246
0,0531519842796963
0,045069969167133
0,0468972327105877
0,0555014933014944
0,0308789866146008
0,0607208272378886
0,0210173066598002
0,0610884136885567
0,0214872887524242
0,0635991185422187
0,0130055115838207
0,0533933440615754
0,0209310662493898
0,0495792467388554
0,0330791650488227
0,0363381807874132
0,0457882511596899
0,0255673115661075
0,0502089991483902
0,022852849587533
0,0609168618086799
0,0163166625447059
0,061854933897596
0,00864555617861135
0,060012941497385
0,0201236452840945
0,056545018568022
0,029649033395693
0,0379874471644034
0,0327134951067807
0,0225508855569721
0,0402200310992124
0,0147788725786632
0,0583934137451426
0,0144335366492425
0,0603646659303922
0,00627535137392549
0,0642496574725323
0,00678374178884386
0,0536510457958391
0,0183351601873306
0,0419022066317565
0,0279192621368003
0,0355662011072162
0,0401112554573111
0,0217523525318433
0,0570376823194837
0,0143593075336436
0,0659166561103646
-0,00770645678042444
0,0674280585348251
-0,00167179619690747
0,0627456082340916
0,00917112722589578
0,047947818634068
0,0193857368050539
0,0343968734964818
0,032775480519929
0,017645720699433
0,0569431835929944
0,0120668951573279
0,062013537626369
-0,000161204199814455
0,0722465823383513
-0,000761905831620009
0,0665372263639274
-0,00210943691148631
0,0559233656083722
0,0141770192802789
0,0279863907519935
0,0163752205056449
0,0141334932002194
0,0439643350597993
0,00295920283287079
0,0527733007729785
-0,00611706899991298
0,0699364517454235
-0,00559169619122758
0,0675298095699482
0,00390558557298752
0,0622727868245453
0,0112315441253932
0,0492862641469593
0,0228307284033547
0,0299895683807416
0,0358306567866414
0,020283713038007
0,0536754132353196
-0,0111063890540489
0,0668889183344799
-0,0218047752341472
0,0660705510334668
-0,0146861934608022
0,0735131859449962
-0,00936132102738756
0,0590139542676359
0,0161573827549341
0,052574114683017
0,0364774808701103
0,023394645794173
0,0536929248782225
0,00204841170304426
0,0721226658577134
0,00236961711749574
0,0802999073711343
-0,010026170932693
0,0801012941708576
0,00548073595061421
0,0903252303949188
0,0267058812166561
0,0607864414464754
0,0457109581305003
0,0400650256564334
0,0793003954596475
0,0206277211590857
0,094890432253817
-0,0036585644134689
0,0903530002342648
0,00103870175792175
0,103626940343609
0,0138261384797198
0,0973124995275013
0,0195674726166539
0,085545133597499
0,0428281134470326
0,0591643378213902
0,0853280821739943
0,0308984517430825
0,0967435461277866
-0,00683474747659524
0,10539890130605
-0,0112646768751869
0,099446402510267
-0,0330697527269961
0,0823748870901867
0,000845754813433787
0,0792299105055648
0,015635681442694
0,0477155314067871
0,0623460433115835
0,0308801194897053
0,0775868785075168
-0,00832910047320031
0,105131088889884
-0,0163851351341564
0,105447307177326
-0,0176321732291583
0,109224455642686
-0,0270101553713292
0,0952177327259058
0,00364521630845698
0,0691612300441762
0,0529764210113795
0,0294992490313217
0,0570037197863875
-0,0154145220016423
0,109796880385023
-0,0404434041391721
0,123753759480165
-0,0388216737569466
0,129387523585921
-0,0114639379323105
0,108972475535444
0,0166690688623918
0,10146620090188
0,0466447479265754
0,052398933118937
0,074207296817712
0,0123910657245462
0,124804161178544
-0,0376431907967101
0,13730571439062
-0,0716416484783214
0,143777271670905
-0,0355609532186709
0,101809330585176
-0,0185377485239297
0,0866547770830805
0,0297105055061696
0,0675490612815466
0,0780097598780653
0,020833662087579
0,133272232522745
-0,018632149770367
0,157396518218855
-0,0584774663978241
0,146881128263938
-0,0464939727194447
0,155011220037306
-0,0215247298310725
0,105706832195315
0,0112550581750222
0,0571861479288237
0,0827557253490905
0,0333134490219104
0,116446522749803
-0,124107584291984
0,153723347431595
-0,101831062889093
0,185854909797137
-0,10201281295269
0,176460269088412
-0,0519257214970634
0,181668083901903
-0,0381964507662212
0,0793568650745645
0,050311667184018
0,0514249543131743
0,113198461627766
-0,064479171185427
0,20314253370087
-0,0642589020194307
0,232451505255589
-0,253030037777687
0,214155619100259
-0,150743351776302
0,17494969704244
-0,0826688924470738
0,0832670667194155
0,0254022815927368
0,0727759829556052
0,138658076675379
-0,020817796544058
0,241031786875655
-0,0789351176284027
0,278393430096734
-0,311864509613245
0,334281060009316
-0,254917333458772
0,281465987979019
-0,105215029653357
0,215329731617426
-0,0341348830481745
0,0592993588407568
0,180122812932782
-0,159464761705843
0,192308557009503
-0,442280552006692
0,258098085274905
-1,7476444469842
0,371353167345811
-0,967603792277368
0,364793659416439
-0,431634475140297
0,317870589126692
-0,275019060638096
0,224547612092308
0,183111835346317
-0,109557379660357
0,269898813720458
-1,0732159271575
0,510442719914587
5
0,503647812189375
5
0,502760926500462
5
0,44631406709408
-0,750924326901062
0,270586908811084
-0,259297505312498
-0,0716197012282347
0,416984984255105
5
0,53628713008303
5
