3596
4000,36533379555
650,420452594757
1
2
2
0,00749331691446275
0,0180183003469566
0,0159718787724323
0,0207973197678319
0,0214544634818322
0,0174115299818811
0,014000381080701
0,0132884054047212
0,0116658224465332
0,0116706099765571
0,0110277174857912
0,0119715554783632
0,0166094643200225
0,0168764228794572
0,00752624710862587
0,0121674372002614
0,00815653233737978
0,020032761893412
0,0216017702814366
0,0196988512523271
0,0139934614435502
0,0126970397068549
0,0184539778673312
0,0167217394693224
0,00973162957385695
0,0145320576393602
0,0139909254632284
0,0124404548064571
0,00363908803089965
0,0128228305067258
0,0126286028525508
0,0196392348458702
0,00793630002459328
0,0146544180253527
0,0160918002420257
0,0163651061849232
0,0138291534178003
0,0150054975640648
0,00853844103943139
0,0181346294668402
0,00869915338796451
0,0125417312093707
0,0179393731127027
0,0140868782247374
0,0133942517042269
0,0231494626202731
0,00652991240204295
0,0257941921458682
0,0199075281466229
0,0194543288296927
0,0117050118876601
0,00739414883025983
0,00636319379318248
0,0184392514057008
0,00553495761991285
0,0147016140089781
0,0117980274993012
0,015976861856947
0,0109874767772866
0,0254748337121486
0,0179057695747703
0,0228353633635987
0,0170492952101465
0,0116783659783713
0,0101933928149194
0,0126468348224577
0,00272361103422704
0,0083561203468942
0,010393714201631
0,0122443452089745
0,0154926565841994
0,011524834340955
0,0155959233677814
0,0258870751801979
0,0211313942486646
0,020115571691389
0,0119783477143082
0,0108934886115754
0,0139346275922756
0,0157337900743972
0,0090468713649181
0,00896230706340669
0,0122860174701185
0,0195062585099721
0,00669513367154192
0,0164502034665919
0,0208756117618122
0,0130043746718525
0,0151345327298738
0,0174110568588332
0,017604268241788
0,013668331386969
0,00360499422319717
0,0163701755330487
0,00983399730044375
0,0120342986383794
0,00325924591906193
0,00394131929870344
0,0149238948836673
0,026360366050398
0,0258128250830149
0,0171594851523869
0,0197321265007083
0,0176753566408907
-0,00351794141942349
0,0301566041337365
0,00506693524549928
0,0192591268689469
0,0115796036158417
0,0144360359394243
0,00630042104529295
0,0046466061117802
0,0102376668442036
0,0173124371850633
0,0141789300780925
0,0189652485417856
0,0266397527280692
0,024392246351017
0,0147399854891964
0,0110245535815185
0,00199473228468431
-0,0102534740867131
0,0264493755626824
0,017676745302654
0,0128247856540102
0,0141448684806703
0,00999307466800658
0,00690359338179062
0,026187570795887
0,0226261830500663
0,0201178948802865
0,0231385379796937
0,0147240429137998
0,0102110201983997
0,0119552880497881
0,0227898746636886
0,00490725578316966
0,00841210078642162
0,00992688911120299
0,0339363152904902
0,0209677183618232
0,0159574621293303
0,0135167863379934
0,00937890563024114
0,018205021730857
0,0279775356039844
0,00795998515724809
0,00194481868483378
0,00959549660327086
0,00875398191066877
0,0027228483165772
0,0132560909067101
0,00754438347899703
0,00907470306199498
0,00701514790699641
-0,00739354315281212
0,0371753217611509
0,00924207851980476
0,0189565040379584
0,0241948680628108
0,0142149426968746
0,0217183389484871
0,00877193963076923
0,0130406745905791
-0,000259028766885794
0,0109479104003239
0,00137079182302479
0,0243555017251337
0,0151752540318714
0,0293501196708258
0,0258378421608456
0,024742123882719
0,0143194136014337
0,0139241664917242
0,0277054083460233
0,00166672197914955
0,0120986014587369
0,0158245912394255
0,00788963646217207
0,00722605171303372
0,00168672078185511
0,00948361052880219
0,0164592602944612
0,0192234193869152
0,0167919962515842
0,0213330315838635
0,0198215574329144
0,0180015179803679
0,00518186230579308
0,00538196740226895
0,00872045114525835
0,0116321150449295
0,00349146290221351
0,00539706554103459
5,83848068813467E-05
0,0136383029185047
0,00577697508235042
0,0350958805047724
0,013446704368559
0,0188012828347303
0,0199673860815802
0,0202104755306416
0,0155996156342922
0,0166214599332627
0,00642561250995677
0,0043427383338164
0,00262219446470553
0,0116980151071785
0,00407468402769693
0,0150954728988933
0,0033869601295062
0,0235677063834517
0,0149799457941401
0,0348664717164239
0,00962282322765324
0,0156993420869046
0,00831043869010478
0,0126882863980505
0,00970748480311744
0,010750112041864
0,00829349334188972
0,0116625299002154
0,00759643014064303
0,0155863208789176
0,0109156508587466
0,0145989926221327
0,0146625737780489
0,0165206630021423
0,0157472594218771
0,0235382110484514
0,0147438440742126
0,0150138453189888
0,00615792665482208
0,0069945816351406
0,0129886745497769
0,0149360134730216
0,0114075986705308
0,0141430924024401
0,0159004232759953
0,0189620182678859
0,0134696574552194
0,012895900350077
0,0152184463148114
0,0202219569970756
0,0121938135290382
0,018199996727713
0,0157223796452888
0,0198957505517514
-0,00266896462363425
0,0130666380080568
-9,68078875445334E-05
0,030676131070296
0,0119228038548361
0,0260956427032492
0,010051339150602
0,0208223315218464
0,0101787738403036
0,0222018251590674
0,0114100140071089
0,0137267548620902
0,000312530138939719
0,0163316457371118
0,00608866193095192
0,0161261867962666
-0,000927398897414434
0,0256129689079009
0,0204661918029949
-0,00123034044181304
0,0252658994489091
0,0289850812659579
0,0128287260851345
0,0194001211035166
-0,0153022154672376
0,0242926035696595
0,0346046938406638
0,011283015251979
-7,77962231259032E-05
0,0104142734974639
0,0121145334473314
0,0107595860705003
0,0212952727250997
0,0232680037727536
0,0223617869089501
0,0187015398568597
0,0165652484291913
0,0264750153884166
-0,0067079192645153
0,0304669861483301
0,0104714207221033
0,0192972653649331
0,00811082546853647
0,0109231582909214
0,00324359119279318
0,0236779610429279
0,00988728253145016
0,019019260401338
0,00934794007847848
0,0306341264350965
0,0288139269433307
0,0242902521510708
0,00616284194652595
0,0193511813926536
0,0131833523923005
0,0142313311402154
0,0092452799375806
0,006822107883694
0,0109119827645949
0,00915267832209962
0,0114799234296652
0,0283300183294362
0,0121893771902229
0,021603114114504
0,022582176056655
0,0188129745855338
0,0163745654482206
0,018537420484258
0,0118365859904345
0,00903809882857928
0,00841881164778035
0,0199146631425112
0,0234738953310173
0,0114568608247536
0,0225175578187579
0,0153576481394215
0,0171266953932104
0,0195498185327851
0,019214783303072
0,0157909446774968
0,00906489710133408
0,0140977312963455
0,00337727745869295
0,0222302903198748
0,0105563487304226
0,00268145956845528
0,0311831755495215
0,0141308879557089
0,0138401305974482
0,0233475471577005
0,0257620472793928
0,0167728659450137
0,0104732890727673
0,0205588563059602
0,011451962537126
0,0217448771027877
0,0180122020832917
0,00709866322888974
0,00382423272827753
0,00538932729353063
0,014471780247498
0,0317475420321904
0,0235822830776259
0,024707789792287
0,0131068885102028
0,032881803065379
0,0122877066609182
0,0313466481709276
0,0177240542220064
0,0150333265569392
0,0118800962940518
0,0175682197044753
0,0112344275145625
0,0142379946879816
0,0213776230359535
0,0175412277048892
0,027764692810206
0,0293231125704422
0,0234011539251399
0,0183400561655857
0,0326813217271849
0,0309605319623311
0,0180903008697773
0,0176875717630149
0,0210509104673998
0,00903299837908745
0,0178106329153198
0,0113294575061039
0,0305174750218815
0,00895465997580195
0,0329563362651649
0,0369302750458917
0,0245236462633493
0,0295056071760408
0,027482629454451
0,0273128024879603
0,0184398275864363
0,0301822760120619
0,029573959354577
0,0302173583163427
0,0205339105679433
0,0261987576324516
0,022829434459271
0,030407704916795
0,0218815000091658
0,0356320559484502
0,03889773644978
0,0420519369840109
0,0280910949103424
0,0444909085932915
0,0308985478756559
0,0383938892647736
0,0252705858904964
0,0449989540579509
0,0316456405851948
0,0443429020011233
0,0262636453061801
0,033043901703366
0,0356887821140705
0,0325516027856363
0,0387929310564721
0,0421404450293056
0,0461378157846763
0,0387589505940839
0,03117802251491
0,0451818139710239
0,0261183705427866
0,0509807993540931
0,039994883269975
0,0393786324842404
0,0446660148984948
0,0576216701224568
0,041397854157842
0,0527063714862247
0,0451610882315266
0,0483786198626128
0,0553651455521197
0,0599367502094939
0,0553658642684059
0,037897339298339
0,0413589278439135
0,0488457357415664
0,0459288552420159
0,0538929317668204
0,0496792978763225
0,0551762431216998
0,05775437631382
0,0572813374905308
0,0625051518754721
0,0584465987699976
0,0546617310364838
0,0574929432228163
0,0374301773100476
0,064177203000123
0,0575470647977603
0,0646591328957279
0,0515970888037282
0,052870808344141
0,0584209475242322
0,0635867574887112
0,0712804151642604
0,074044350884945
0,0655101498536144
0,0711342416565626
0,0684065168037382
0,0720158129184202
0,0710591782593279
0,0733774132466218
0,0728359747769108
0,0772864036176654
0,0775790678983689
0,0727578574971322
0,0717933590211175
0,0742272112929638
0,0699181919559354
0,103095463284006
0,0942530894917386
0,0975221806872926
0,0865714508957877
0,083629624837764
0,0875479697334844
0,086274803937321
0,0759993963735971
0,0778094677327336
0,0873279002629159
0,0903013628534633
0,0811931097627064
0,0929104267411428
0,0978823079585806
0,0998550323047959
0,107861812528553
0,110826378746167
0,102056000146519
0,106633556224584
0,108694299012273
0,0978283161367192
0,0860864626639996
0,100122620740823
0,1020942111613
0,0924625644019677
0,107969044572954
0,119674220536336
0,103891878951756
0,122777814447677
0,1061926764077
0,118530402215821
0,123800141004433
0,11568391591432
0,111155212339857
0,119160984602866
0,110805174365277
0,111533034810285
0,109622764085377
0,119714298942261
0,129564687471779
0,124720633951588
0,120261831548965
0,128018006058359
0,120962886825138
0,13495392260776
0,127793375513704
0,130529233304751
0,135479527834347
0,140596147660074
0,140267687234406
0,134002630732301
0,13287917078454
0,146345599647719
0,14304195694289
0,141054202648954
0,143534120828181
0,145753379178272
0,145762546587604
0,137974038035072
0,153555139903276
0,163192241139549
0,147632076650646
0,156000663220136
0,149580375020603
0,150994609566463
0,164661314882567
0,162419111116762
0,161500107995413
0,165851772551185
0,164385681718178
0,157326787026186
0,164876694156176
0,16607620001028
0,159870086253287
0,164055266776974
0,158097238989021
0,162283214019741
0,170797563297898
0,178261326483935
0,175572506472073
0,166227024536506
0,173785480219496
0,187693706693794
0,183241408689495
0,178206621777238
0,185855789263584
0,195840420867184
0,184606215798945
0,186462773623084
0,176759177508422
0,175547187121411
0,17750059449074
0,184495401105344
0,185723092251462
0,1917886840057
0,185091532638955
0,203297439596752
0,198220535417204
0,202949741008688
0,216556941214722
0,201715237257825
0,200195827254405
0,204715820193157
0,197516200670384
0,190777281089394
0,189937702207002
0,196105654439629
0,210329609625361
0,210749268060851
0,212696677893203
0,210254779251632
0,217133665255536
0,220664067678824
0,222329940221025
0,219272231094317
0,216917902486071
0,231626583402184
0,230191358189527
0,221846298204408
0,202064237722721
0,216723571456911
0,213185868286361
0,220570854918685
0,222067262036165
0,234002119434861
0,220193890064063
0,229852862398402
0,227606216158486
0,222582925391206
0,232821069789054
0,240412256929529
0,235759709530915
0,229865068231667
0,223680146770842
0,229125014092936
0,246733287162777
0,239768184352921
0,23592797583869
0,237541896887046
0,24403964113406
0,243223198341706
0,237974003254024
0,242805346750174
0,249532623486805
0,246861165466656
0,246323921987225
0,260737677601893
0,246077592352417
0,247761706683895
0,244103655299625
0,245084321783975
0,247987009876641
0,25448364190882
0,25538988021848
0,250364466296895
0,259289046665173
0,263516280408028
0,246885347872828
0,257934785011665
0,255606528424333
0,255123566167626
0,255917427327446
0,265766334499373
0,26930388787757
0,262377123561968
0,269036363591632
0,265112262090135
0,264959689871416
0,276361787096255
0,283585649207233
0,268475804589669
0,258533560599825
0,252351236232962
0,260115897279154
0,267444866128982
0,263022029859407
0,271383633178289
0,276435691772926
0,271412509843776
0,268120894705053
0,275201798094029
0,281898994757736
0,287743772011694
0,285328235670054
0,278941635973033
0,271853824805795
0,283272122976156
0,273223775763049
0,261403419350283
0,269723453738714
0,271134899149957
0,281827993663039
0,287477365748398
0,277294943361716
0,28871248755352
0,291665424983455
0,275953885169799
0,29008151421677
0,286115637534217
0,291707815513551
0,287383373233562
0,271791319633163
0,286552352775239
0,273937415939553
0,27472730883231
0,282868140392308
0,282005646699968
0,287204635525358
0,285304591267015
0,283311301010601
0,275680654782546
0,284714279790853
0,287077366562272
0,287348201197543
0,291565953309689
0,284439447210656
0,287503763602037
0,28620869134862
0,277204037151298
0,292785850396022
0,285840391265938
0,280636782011858
0,28277049836005
0,289084542485477
0,30225160947559
0,296999041723485
0,293015653358758
0,289185169383159
0,289559817097099
0,286716010623459
0,288602252337077
0,279986068370345
0,2863323749414
0,288839698623283
0,285896020560951
0,291038870802073
0,282517965850728
0,288410398886717
0,289642960690965
0,289171005939033
0,271503501534852
0,287001528857586
0,284210749847573
0,287014732787968
0,28221678384996
0,282456426077086
0,278802230929032
0,287865218199667
0,287815199838439
0,279422036473834
0,287956100107142
0,29330137859486
0,288452039244129
0,282203954575313
0,274564666262844
0,278322635003475
0,280833924173363
0,277722893548305
0,271010181907281
0,283926081680461
0,284927262936971
0,279148347502126
0,280545527219997
0,284857132248444
0,281387112559729
0,288820853044308
0,276995029229017
0,277360385919193
0,282597286706553
0,27925621214224
0,276125958723803
0,278992757691426
0,267259971397393
0,265353220388053
0,272395196044105
0,27069923916548
0,275160866304922
0,278152621808117
0,269112309088383
0,278471397434269
0,276783312005004
0,276653914807429
0,271609246128716
0,277331749976972
0,270178313450979
0,275126328021994
0,269283042945392
0,265654078155823
0,260562242741971
0,274904761622229
0,264579749813123
0,264352171946751
0,271492045129016
0,272835466673874
0,277572909987361
0,271005702171939
0,274733154754625
0,267759668589457
0,267368727865952
0,269597202620885
0,268769527087374
0,252852196082981
0,256925622047574
0,257744320591582
0,260722032036731
0,267949846872367
0,262496294923354
0,262265528776943
0,263676842660122
0,26550840948319
0,259338417388254
0,263616048587032
0,267435813120771
0,255023862605175
0,262073883536249
0,253909703850793
0,246531018870171
0,249116020231774
0,24615659342019
0,253072048369639
0,255342082011431
0,264092985409727
0,253059877226073
0,253897935990558
0,253374869762823
0,24028465262629
0,241862335978003
0,258817512749579
0,253081568520888
0,255850135604253
0,244240652316523
0,240974234285522
0,247352800992666
0,24322962517065
0,239938425780285
0,245701260211429
0,246148875699762
0,249677905906494
0,246352474170538
0,240756295179944
0,239318875015496
0,229964079834281
0,230949827767419
0,23085647782386
0,234446186397507
0,23036938579494
0,233613910105506
0,226301665001602
0,232864775584055
0,240651206787126
0,236589872830172
0,229867868750484
0,224265595346807
0,223463936395408
0,230101307276696
0,227008293205169
0,223195312560057
0,21004633931755
0,212430580570137
0,215849275937275
0,221910891178681
0,226614243886582
0,223173736678255
0,224181143424002
0,22335627639131
0,223929537529527
0,217143069793949
0,223251072680675
0,219511500268516
0,20716702304803
0,202619839545501
0,208131868176053
0,209823387528199
0,206797717906909
0,20919779018994
0,218395199170393
0,217054539755991
0,209099431149944
0,211631532536154
0,215457382775404
0,211503866825156
0,202688216829132
0,2025100810664
0,187898460533386
0,191668442460874
0,195992137936469
0,193112626537991
0,192213711640596
0,1978562811699
0,200850645361909
0,196409876500976
0,193132509230606
0,193441460874762
0,2024183760741
0,193060963148294
0,203749245371745
0,190293662451805
0,186672461146783
0,187718842670358
0,183227799464352
0,179285449769365
0,182689404589938
0,18424076472035
0,187793672427757
0,184637269119692
0,186510876935521
0,187246549187006
0,183778853083764
0,175343925369696
0,175454045000874
0,173360292730405
0,170692264195534
0,174811957425115
0,173354429405893
0,165303783712053
0,170420267939283
0,171447798272996
0,165501985238915
0,17280892237368
0,175578708726765
0,168330163402522
0,16329177133675
0,16627699040365
0,161519053589791
0,16968182298905
0,159157816561116
0,154055188474703
0,164774988575619
0,161830191216721
0,158160453788166
0,15138298471523
0,155631080939764
0,162195742823598
0,158615438358079
0,158457793080305
0,157369271688788
0,153958632768005
0,150143008402736
0,148795490681629
0,151556804850344
0,149564163024967
0,14751271064696
0,142566523116451
0,1435043999364
0,147693319456637
0,14392041909278
0,148279364488214
0,141817417069311
0,147332337074954
0,139715706014225
0,136659246561651
0,143924672445012
0,140646119535726
0,13842090992835
0,133529459746182
0,134950749775874
0,133162629698118
0,13920276357914
0,135251114408402
0,132489837899122
0,140287043366172
0,133647012208386
0,133734950338334
0,137120168777491
0,125221476789195
0,131279422989232
0,123661478778963
0,12587088260945
0,13134988674546
0,120897125404728
0,121672668586709
0,123611413804676
0,124716529618117
0,123790864187749
0,119244434965691
0,122794028197805
0,126777731407955
0,11651894704649
0,122085476510114
0,116782982173395
0,116496190241223
0,119166124514548
0,110677028499854
0,116163728170708
0,11420148187601
0,11684573690215
0,11965153168118
0,113001182988933
0,120791486965221
0,116438874810271
0,111491307550802
0,113417518362111
0,111975421342713
0,111186298425243
0,107677740866992
0,101063042236145
0,103666252471638
0,105741893422209
0,10644296796432
0,107941558269295
0,102840690462362
0,103849471210029
0,107169687826058
0,103325507661707
0,103860311981066
0,106855035601732
0,105667837018798
0,0991196146900454
0,0949875484697581
0,104455879318437
0,0978517576742071
0,0922836354415048
0,0969510899254201
0,0966353074526489
0,0966208034517983
0,098856616103384
0,100849509833829
0,100363778162604
0,097291219760915
0,0950532755214977
0,0985380464760229
0,091949399060265
0,0912350223954968
0,0899701844064738
0,0863427077079195
0,0920144875656185
0,0908503444315232
0,0861796513818523
0,091174180875196
0,0905908013561095
0,0907100098527577
0,0896694128888955
0,0914444625310933
0,0884498382968196
0,0857711896691352
0,0851267798710313
0,084672689234506
0,0811462748342876
0,0822812322724723
0,0812315550446045
0,0812618585609267
0,0835283481024558
0,0848934408048991
0,0808555758642614
0,084425303385162
0,0900695798978844
0,0879667760358195
0,0822825287772697
0,0849272737744486
0,079394590924921
0,0749108392239312
0,0829289641409291
0,0774838619887133
0,078599754670265
0,0775458576036134
0,0784148919780547
0,0759635677816263
0,0781546537256802
0,081229797065898
0,0760293563404928
0,0759592858721884
0,0764647177520097
0,0771916701208491
0,0732898969813093
0,069200724632784
0,0675495406538173
0,0721035866098447
0,0670636875873512
0,0660092297176609
0,0717607160787642
0,0751899857687121
0,0740542599507587
0,0757034458235041
0,074089403055861
0,0687345266742937
0,0748368671581495
0,0730030382486701
0,0664905580465669
0,0658676611200978
0,0700072811085221
0,0675972885240807
0,058942853756864
0,0652966601104113
0,0623578939898163
0,070828978322928
0,0685718236005281
0,0649659157613473
0,0647441705157297
0,0658763690557414
0,0657158561923126
0,0695886834139135
0,061620596442778
0,0578904191884433
0,0576498731062175
0,0584620881930252
0,0588843251949522
0,0670074055949295
0,0653539643289175
0,0634508198719298
0,0602160958369265
0,0600073953180632
0,0680238335331682
0,0680892100818608
0,0627255789673492
0,0615795279323603
0,0595894925524247
0,0612935267156784
0,0557138445651652
0,0595404290209185
0,0569540477968465
0,0600601088016501
0,0588127236729228
0,0576847737917811
0,0622436504848681
0,0633193318768314
0,0629968364330761
0,0614753148869511
0,0609284902464378
0,0563786826453475
0,057240863760213
0,0565492367828324
0,0559398873814495
0,0567752997139808
0,0596641987738015
0,0638878311119316
0,0635336145673278
0,0634001412877249
0,0624293932712532
0,0640143584627609
0,066938822355234
0,060016523827735
0,0608619728134888
0,0682485349426917
0,0586785418483719
0,058634069516588
0,0639887783196775
0,0660859894861892
0,0587880858301383
0,0649742418307105
0,0703708194228534
0,0712787680040316
0,0677917653245768
0,0705229811866327
0,0692842557718228
0,0647767412653239
0,0645915108288751
0,0631424759332579
0,0707098434503994
0,0712402414611442
0,0685451958529217
0,0657834747855231
0,0624874291892453
0,067140898902234
0,0685348736006828
0,0723853753565975
0,0776713286732421
0,0738705853449969
0,075846530413884
0,0743105155082695
0,0712185550619051
0,0746171881871713
0,074245368096361
0,0701612011246592
0,0727847558511454
0,0761047889094319
0,0746029790802352
0,072226519803789
0,0736584156690133
0,0756358286637816
0,0811507074101202
0,0840617510401744
0,0852791203243882
0,0821461426764807
0,0771684508878281
0,0806425042678799
0,0816005268921495
0,0806099096071589
0,0773994178960682
0,0824857558362084
0,08609940197828
0,0809549402659474
0,0860764501608965
0,0817987595978672
0,0884118826809257
0,0893084846705009
0,0874935216551621
0,0874687362779479
0,0855579048407183
0,08686967853015
0,08529215532684
0,0832852366768359
0,0800687581576458
0,089446795385905
0,0820882922572835
0,0816907918341103
0,0821645720192898
0,0871143929671385
0,0820990987612092
0,0841304683855613
0,0894129987700863
0,0845100000282409
0,0852489888740042
0,0810155213535486
0,0776293881476717
0,0804864749318058
0,081800038267319
0,0761641910719539
0,0820023962398144
0,0835975297358541
0,0857832821149311
0,0862600325487547
0,0796959623189282
0,0818101730010607
0,0853371374047647
0,0817460637703615
0,0806807179292042
0,0817865383999768
0,0757311461284804
0,0852064086403505
0,07837968875257
0,0774856713542465
0,0808172228717885
0,0800876853316597
0,0806044574192272
0,0812467821635525
0,083959064753494
0,0817322398330237
0,0807164798993249
0,0833977186145886
0,0783514444328769
0,0744547850504524
0,0783250281707855
0,077069099834774
0,0717566703147967
0,0757258187830118
0,0841615572869342
0,0790627289975413
0,0814857283677381
0,078555472805158
0,0800031790762187
0,0844457951464903
0,0818528876417279
0,0809101135761493
0,0779270113644495
0,0766124983166611
0,0751483631053921
0,0681044167080177
0,0771626811359286
0,0738527974346288
0,0775458169367007
0,0712839774101822
0,0740190643174164
0,078458608517776
0,074896855179448
0,0764661664828845
0,0726583262102422
0,0721371441634777
0,0672732551056379
0,0694382074770094
0,0700913630574745
0,0675359269692427
0,0721560256851631
0,0661408442646869
0,0597993846614932
0,0659680980226679
0,0654973901628002
0,0641871624438211
0,0658576840890886
0,0684320606556617
0,0680764398797178
0,0675382312433985
0,0645391861868542
0,0583942231528191
0,0554480976857088
0,0564364194882599
0,0591382813402973
0,0607519763397357
0,058926224906034
0,0588221933527966
0,0572342432355151
0,061124872915941
0,0602607724466666
0,0587136419732713
0,0582605248251263
0,0571556828029464
0,0555797366682932
0,0542795257596968
0,0557621931580566
0,0554313818915393
0,0531965673283138
0,0544659448420387
0,0556811273955631
0,0535017088448543
0,0526623208314134
0,0511617966060811
0,0515252810807009
0,0555537731639586
0,0549913177934446
0,0486870558278072
0,0512229787800855
0,0514870384588352
0,0510400113359153
0,0470544362311717
0,0466281905876885
0,0509437119299769
0,0465987991306183
0,0528275430621589
0,0485450867071681
0,0520867126800888
0,055083814226389
0,049028695631936
0,0481033978850983
0,0517160430347461
0,0495761355485592
0,046083804148025
0,0473872556760009
0,0436501264314836
0,0421254284641545
0,0427014072259991
0,0415495135739462
0,0453005287767961
0,0501609298538663
0,0498730646648071
0,0469084732574756
0,0462562999090808
0,0466955162719636
0,0432065797359899
0,0476660942517977
0,0470915090816363
0,0444172718024189
0,041949713376321
0,0408176472964594
0,0411089043500314
0,039551726211398
0,0472859466251738
0,0498693226547154
0,048093811934952
0,0471402897380227
0,0445197122645385
0,0472591077421557
0,0470060218303907
0,0384518284030074
0,0421250184830714
0,0396259665836203
0,0385100873020678
0,0402948273712174
0,0408899313696165
0,0424993951969234
0,0426709677415755
0,0422076951645804
0,0389633242661577
0,0415209157338796
0,0459914123358469
0,0427206219984957
0,0385370295066099
0,0420212318030317
0,0456709953769954
0,035656874219319
0,0389798714256635
0,0388059476672636
0,0367394918694889
0,0409946402227658
0,0390260561283528
0,042618100511388
0,0400578299979033
0,0467807795360575
0,0437149394240116
0,0388323597017976
0,0404970467698382
0,0412217504573821
0,0374041164479911
0,0387721170967386
0,0380520775788276
0,0411040637936058
0,0378695994276986
0,040340931588858
0,0365694674513697
0,0414861154698909
0,0419214433089781
0,0388268122223443
0,0412387292617087
0,0407502548318944
0,0431269599331155
0,0367436186799258
0,0365447155835768
0,0367075427747535
0,0363594168990302
0,0382865961544432
0,0381004888494131
0,0360155199053905
0,0410434090923019
0,0416106759645616
0,0455268027983702
0,0420115739940734
0,0435043361617827
0,0402104350049463
0,0353000399452279
0,040813345750248
0,0320926370652411
0,0399446328227919
0,0389509015293772
0,0316722676161974
0,0361698667581385
0,0368390127509024
0,0413654257175907
0,0386007847782252
0,038383427470062
0,0382975740670997
0,0400207016094459
0,0355779749393826
0,038060481239277
0,0354176911994076
0,0369445320228267
0,0340598136520434
0,0312480751673542
0,0328185936798775
0,0340142378728524
0,0342526676698753
0,0353960062458504
0,0373655605900484
0,0421010853524769
0,0414252377346507
0,0363579160800077
0,0346265370388052
0,0390290162408826
0,0340329542330797
0,0343859771720633
0,0328123582973632
0,0330167218892635
0,0352181643120867
0,031953991054809
0,0323597038268645
0,0408761350035818
0,0387717195901589
0,0328594491919847
0,0358094564393926
0,0376469511829291
0,0329156971941898
0,0363533817930632
0,0349964597637014
0,0315060812010952
0,0316081248849442
0,0306659143920469
0,0301840763442022
0,0367986640843256
0,0340738342014325
0,033668506223894
0,0341826706708978
0,0353946678004644
0,0376369852650166
0,0376562711364743
0,0354191754752274
0,0349729268612301
0,0306013535214214
0,0276898342156313
0,0307491172584449
0,0322703802084905
0,032544597396586
0,0301116339014397
0,0325176843140647
0,0397303788977838
0,0364052507224111
0,0335289371950932
0,0298126082990474
0,0361722455368233
0,0299790404568839
0,031005463033869
0,0337379562577632
0,0314371491385236
0,0274046576379982
0,0287109318661496
0,0284710906860384
0,0321618071484717
0,0265260588658667
0,0331609152911169
0,0327425894719701
0,0309012867441367
0,0343928329431858
0,033353841453131
0,0320313873965971
0,0288229788562524
0,0332668404417664
0,029285877128908
0,0240647319515016
0,0263792567270992
0,0328324660960495
0,0276812041195956
0,0301836305866043
0,0319018259325028
0,0319698556090567
0,0300433941769466
0,0288400643699775
0,0304878668124082
0,0272492455550121
0,0287449802812877
0,0304933872453894
0,0258880734995897
0,0243370789053494
0,0250012872776421
0,022066474430898
0,0286041484595678
0,0290351839855135
0,0267196676473145
0,0322277791726484
0,0315996110528154
0,0268724763552063
0,0259359032899165
0,0285159612212899
0,0310600744848786
0,0264358160854799
0,023855183167715
0,0264669160791132
0,0264187512836395
0,0249116264525958
0,0244717933091687
0,0239622172627959
0,0273598816762381
0,0318910797942505
0,026857108299828
0,0293922511778576
0,0267833028831695
0,0248939413542336
0,0228278152150523
0,0234389650629878
0,0269995871076578
0,0262245784742279
0,0221861183932173
0,0199672375320439
0,0238310110610209
0,0265436703100633
0,0245226859794198
0,0258039569233022
0,0288425112764477
0,02496317868676
0,0269730369843925
0,0257960355697181
0,0234335407205984
0,026711866425619
0,0265331938667328
0,0247702793982813
0,0232781008305845
0,0265267384792497
0,0225313501022646
0,0226622800360529
0,027664935348105
0,0296723497885152
0,0262691205125563
0,0292471643938937
0,0303399558393072
0,0207278171334233
0,019351826198649
0,0233740636876429
0,0231262141730285
0,0229789662521422
0,0225296066196951
0,0237295960349006
0,022870278506159
0,0201424452206196
0,0253256814921794
0,0235039453559567
0,0232336055952662
0,027102179575899
0,0235985376886502
0,0253416870926464
0,0241619300315529
0,0230303064123063
0,0211598828415078
0,0221606950472553
0,0235236373852704
0,0256425982422488
0,0200839718475383
0,0220202776150621
0,0269967361354163
0,0263954946629398
0,0275135570326983
0,0230019019260601
0,0253396042739813
0,0245141250126768
0,0233376145642381
0,0208627089191326
0,0217025559467368
0,0225509122743214
0,0197472137263352
0,020944725503254
0,0232982426021038
0,0249028811348861
0,0210983931163608
0,02222677245169
0,0223330323174302
0,0263633313099012
0,022841477487958
0,0251735384920472
0,0242258030342067
0,0174007983394028
0,0195764616443772
0,0183867488319908
0,0151616132532511
0,0208363213518882
0,0222735512644736
0,0243539173028438
0,0231292835230613
0,0257229393056747
0,0232545153005442
0,0219014607260272
0,0243063144331413
0,0238737107886499
0,0234948321544207
0,0252403930666331
0,022843216092853
0,0174221404191425
0,0170328132804159
0,0217332153204532
0,0251628445561761
0,0189868900434701
0,0214518395054304
0,025036940538633
0,0247289536184229
0,0205009228652442
0,0223545063556543
0,0245623317117161
0,021846507325066
0,0196116801312589
0,0152162260618687
0,019354397115847
0,0226947953512285
0,0232009138836201
0,0195208470262302
0,0212820382323099
0,0227937340115687
0,0241582988640407
0,0217015814853313
0,0242593151016158
0,0207218367762416
0,0234229806684809
0,0185496156296538
0,0202729060260812
0,0218177871346718
0,0200866248156299
0,018041119522531
0,0199760578458016
0,0226492620677676
0,0213572754973205
0,0207921026339751
0,0192155578269453
0,0221727313657338
0,0211358649672867
0,0227630515000357
0,0195450764399861
0,0215195115442806
0,0159584624419837
0,0189431186988226
0,0188384407753814
0,0215725856792781
0,0189171368797023
0,0200227986314636
0,0215492725883771
0,0202796446583188
0,0225527442067444
0,0256268845603735
0,0230592977366498
0,0225424009971662
0,0196798305320716
0,0169893839398552
0,0135898304453688
0,0159059843837552
0,0178734568777291
0,0180950898569695
0,0218782607447566
0,0224502577599147
0,0183713082714828
0,0178785440819524
0,021915175604759
0,0201321622112411
0,0207539899572138
0,019966275246502
0,0240528990984185
0,0201992376791738
0,0171200923269091
0,0177419667067455
0,0136330442924818
0,0160240554720787
0,0193030412589348
0,0199682900987463
0,0198877481096673
0,0227268507553925
0,0230327549283917
0,0199193359152027
0,0193651582779455
0,020921554520657
0,0202419977167301
0,017329797966846
0,0185582017320131
0,0150293036454651
0,0162349660008974
0,0141385782513508
0,0148986410924809
0,018868690699144
0,0211043510409307
0,020564750397345
0,0183051374266856
0,0168389711647581
0,0205480197095931
0,0173936242014319
0,0192386927116308
0,0193225068477149
0,0145560215241177
0,0146010958217436
0,0177843463557309
0,0179427958066431
0,0172887718402853
0,0188731083090564
0,0211317079850022
0,0192325019493038
0,0161206109701769
0,0183100955262245
0,0215934958850665
0,0187838156168744
0,0185156081299109
0,0183754615540766
0,0192006741188451
0,0141185595356121
0,0182298816448415
0,0170012563345609
0,0146796204381516
0,0170012233097666
0,0192954252057795
0,0170982991875067
0,02100576415965
0,0211249761541247
0,0188263638305384
0,015601231182494
0,0162057045513317
0,0136918781461776
0,0153992833821583
0,0131730936867786
0,014731136399508
0,0152164671730156
0,0156198834212392
0,0172991450185016
0,0183989359772155
0,0177449993843046
0,0196096203116307
0,0210121773653157
0,0169351884467244
0,0154804432591125
0,018205807228183
0,0166779643983978
0,0143399103059036
0,0153986108404079
0,0159393718695291
0,0143785731713353
0,017181759552062
0,0160504608554406
0,0165913960938283
0,0196315598858089
0,0173144090542976
0,0182585561775619
0,0180744914924911
0,0143986001526418
0,0155505033443098
0,0125623770122915
0,0128173190073583
0,0115249254385048
0,0123160444074663
0,0159531912433131
0,0147061827869832
0,0138897430235868
0,0177625823621136
0,0192637922019773
0,0201429973604425
0,0191960540368217
0,0199177666306078
0,0183185934920127
0,0125900795180855
0,0157112941059087
0,0156704141607533
0,0144200319490513
0,0170335455482225
0,00994619894183407
0,0120163505060273
0,0130444030921104
0,0205264009635731
0,0179254778950867
0,0195812116975206
0,0210423830383407
0,0139625103943144
0,00962475324311043
0,0137215336529222
0,0162608457398528
0,0153165345500015
0,00992572501542146
0,00844499190475248
0,00429287609161606
0,0182393033855774
0,0125751194122822
0,015555060119928
0,0138321305791306
0,0191144596978565
0,0177023356886425
0,0195089933759963
0,0160003610067163
0,0167651071406884
0,00941793782539198
0,0118900769935323
0,0140230709404006
0,0157647390985979
0,0158624821682487
0,0160970568408327
0,0105169683089077
0,0166942382683112
0,0195605066271056
0,0204629672286722
0,0130672018775196
0,0197981272281235
0,00727933470711812
0,0177038195327223
0,0095156282508427
0,0142658349392729
0,00608269930143414
0,0151590066371172
0,0153550945860004
0,021517439258497
0,0115209066442767
0,0252529264237571
0,0080684822334837
0,0176638961034945
0,0106727047955652
0,0240879323576831
0,0140261585813437
0,0215790966841675
0,000170411585357177
0,0208969969532669
0,00896169058006063
0,0235163933431137
0,00693377537964084
0,0188515631402735
0,00793876966404948
0,0238274086959558
0,0131859018693955
0,0200555809778239
0,0171599696328938
0,0192776974223918
0,0117686565323188
0,00751246230953949
0,0222714317549905
0,00851781322955334
0,0152955753339582
0,00318688197348137
0,021742367874163
0,0098374452827066
0,022461468605087
0,0123395062768147
0,0193418923654308
0,0126194472059157
0,0180662117376373
0,0152589657989459
0,0183599460869475
0,0146082978250302
0,0135132273789042
0,00890340532687807
0,0160705620222506
0,0104684573000919
0,0149094355878433
0,0118444596621297
0,0173140585232659
0,014537865770159
0,0185717119583445
0,0179684904557961
0,0201613279002535
0,0168654932815769
0,0155464182090847
0,012088492908504
0,0131173280083718
0,0113653170231783
0,015981405025632
0,0127520253531329
0,0138138089799366
0,0099074006998491
0,0151184575652475
0,0151921188906495
0,015882909832176
0,0167264513915821
0,0152836460168864
0,0154443019308449
0,0193973638927951
0,0140295717646744
0,0131984980033422
0,013586587784781
0,0163392518201455
0,0114003783470027
0,00971126156745376
0,0124439117570912
0,0139666515445305
0,0150053729097537
0,0179382804345126
0,0178354687232336
0,0179431936416634
0,0164873216276142
0,0156449758789199
0,0128799683694515
0,0173184524737526
0,0127806729308693
0,0132519554484849
0,0111728432558031
0,0158756856049487
0,012564035926915
0,0130441297561065
0,0162527881300509
0,0160130920655547
0,0129429351336223
0,0172685343253828
0,0155156889445601
0,0170434896135967
0,0131459281130045
0,0166455064769103
0,0124135590046363
0,0148972601718182
0,0128450645142101
0,0150563201917794
0,013722266564119
0,0184047576390905
0,0155418167155654
0,0181593023218207
0,0145011110956497
0,0141281440345264
0,0131942512631543
0,0141842365200729
0,0135242242504401
0,0136446177852876
0,0147575863559338
0,0111410997810942
0,0105031559180453
0,0162430408698776
0,0149493232267102
0,015002903656528
0,017987898290481
0,0194617969301529
0,0153832096058599
0,0145235849503874
0,013035650267492
0,0155687424258138
0,0133199573157244
0,0122170918061289
0,0131297512332799
0,0167849009113249
0,013833167366851
0,0133584241572905
0,0141149730870997
0,0167474507700997
0,0158285513609087
0,0185253862481894
0,0187923327176996
0,0181220236612092
0,0141647615466632
0,014472903155344
0,0130198813512676
0,0136996084358258
0,0105099947194286
0,0124760428135552
0,0119964877151191
0,0127828987693759
0,0184142148642131
0,0141531834966572
0,0123182373985715
0,0171877324890247
0,0174785070036196
0,0180567674425112
0,0177816508622352
0,0175459365652936
0,0106897987430019
0,0133591917022676
0,0143180708698018
0,0119894499288157
0,013814210671724
0,0153330570121984
0,0130712766393041
0,0157114971393956
0,0149514142868066
0,0144376225568783
0,0166154507736452
0,0203827578952145
0,0155894189748509
0,0151859465849519
0,0138875987078051
0,0163797194426433
0,013325392700437
0,0139340846085542
0,0135820274164665
0,0186814906803201
0,0178966548893451
0,0170096535051786
0,0144520756147799
0,0155908791364045
0,0134225091926213
0,0134460777318591
0,016535476021518
0,0160809914887041
0,015655296622212
0,0146008416032123
0,0112693139481936
0,0142287905777069
0,018142016497134
0,0129281259510893
0,0157342593929577
0,0211341548491174
0,0167876237606307
0,0151082638972137
0,0147947871339503
0,0182225750089724
0,013307683147775
0,0160828616667095
0,0129726739981647
0,0146084380713642
0,0142341169038627
0,0139018965106711
0,0112850899767219
0,0149971713317006
0,0164451782646142
0,0185369001066765
0,0193335789833989
0,0191283240776295
0,0141714233276149
0,0117600573950365
0,0154322130665694
0,0173619491276625
0,0118108878780876
0,0140791778794203
0,0142781622308566
0,0141399729910755
0,0134610986585642
0,0165477316004068
0,016316478443502
0,0192021697216941
0,0166875782384795
0,0177524421375267
0,0152387088176161
0,0152923464812618
0,012533809365493
0,014254310096654
0,0131091755687124
0,0141305443304871
0,0146667093852271
0,0143823599293435
0,0130555332119786
0,0134955436593286
0,0157469807606443
0,0146989223220606
0,0163962351057221
0,0196969471928277
0,0171267780862686
0,0175787495610433
0,0118491439657202
0,0138102353856187
0,0124540716002702
0,00969303013287203
0,0119690392479346
0,0153853611571746
0,0154312167293654
0,0149737174225407
0,0138136033711262
0,0158807491416782
0,0177975960046169
0,0142732192007414
0,0174650906405731
0,0203788505281681
0,0165613530414889
0,0134518495184269
0,0144943729434561
0,0121304407977355
0,0130517462018484
0,014276887087638
0,0149693862844774
0,014524147749944
0,0162615985285965
0,0182863681906105
0,0148613498853613
0,0187774640759435
0,0149468094418901
0,0151755755187931
0,0157732052791357
0,0185451158036261
0,0137183563447317
0,0107974573321195
0,0133204052284382
0,0160105534008663
0,0127286122396151
0,0125680475283954
0,0166580757730782
0,0158058348793192
0,0122216410218195
0,0146191489954805
0,0170649598141474
0,0162834438444527
0,0136406306967072
0,0147286967398643
0,014936149108014
0,0152855397081057
0,0102187982999326
0,0114081825404982
0,0169035953939083
0,019540559991039
0,0177919803476243
0,0174226207165538
0,018242317163323
0,014941747763227
0,0123304148015484
0,0135494748560931
0,013402727055892
0,0132722398583617
0,0138871827711273
0,0125706635062536
0,0105127035684465
0,0119098162374343
0,0128956330445543
0,0161957031094144
0,0145843154646769
0,0180561563560108
0,0183581064463446
0,0186403670323712
0,0121318151449522
0,0141628507594315
0,0135274201248977
0,00887188805286863
0,0114898678240346
0,0153929779475664
0,0160307952803783
0,0120885416151531
0,0122038034330339
0,0127089628559012
0,0150698676879553
0,0209135534233202
0,0186061448280543
0,0164439432027664
0,0153549302340082
0,0148265516251665
0,0105972916984758
0,0126322128065066
0,0115011001139628
0,0109903981692449
0,0146412255357096
0,0138243425741456
0,0124600380402939
0,0134584010817921
0,0122403677724635
0,0180784839317446
0,0164733514343106
0,0193353388238067
0,0167838659092335
0,0156191463292651
0,010692471588704
0,00861901020615912
0,0122671630866305
0,0135796721475318
0,0131774104677666
0,0144931329012017
0,0106863263939986
0,0141267681981683
0,0123416916920987
0,014529108778073
0,0167417691109074
0,0188769119920067
0,0168760744773394
0,0137850319703337
0,0128716183677409
0,0150710401867517
0,0106679213645514
0,00866173008387812
0,0107911175694275
0,0148874397976349
0,016320122395895
0,015128537638291
0,0129058568154144
0,0131147937995775
0,0114063830471287
0,0164225730988824
0,0158595088384378
0,0161695128856216
0,0155158442633876
0,0130161027466727
0,0111075922403451
0,0107714026056362
0,0140699770105022
0,0123547077074629
0,0128029534202978
0,0148832859773283
0,014544260567138
0,0129012145482523
0,0156732010996535
0,014384573235186
0,0105432141490611
0,0159589502478105
0,0122993622480984
0,0113587732934936
0,0122091550541497
0,0129069909783318
0,0114475329019868
0,0127923829378759
0,0141852137930975
0,0170893129708541
0,0123913196208167
0,013979161212548
0,0135984052081691
0,0110229614599963
0,0128559897836137
0,0131675701845987
0,0142456819824486
0,00953229871071459
0,012719807707502
0,0105442851658053
0,0117375023857344
0,0120357340753669
0,0156301873480742
0,0178324132846689
0,0171954243421202
0,0123875400181072
0,0108192374733452
0,014376393967856
0,0124803918006249
0,01259491852644
0,0106546120786154
0,0110275374228847
0,0120573609916802
0,00952304813117671
0,0111745185109004
0,0145821687866878
0,0126399508442093
0,0130079512145155
0,0132208914356145
0,0142809530235062
0,0171980136304656
0,0146852308377117
0,0131409643635957
0,0141714928627328
0,012401381815568
0,0122138382676771
0,00840804212818639
0,0104298507357117
0,0112243448852715
0,0114478318424664
0,0124649800964274
0,0160446000224373
0,0132586866872532
0,0135087358155064
0,0135096345050451
0,0163349447888613
0,0142284613385796
0,0153733583050316
0,0140810924984152
0,0143555862755388
0,00671532465435843
0,0135189605654304
0,0113749382258231
0,0111318230513586
0,0115153827148939
0,012475268061639
0,0110303742168012
0,0145325781449635
0,015426044718929
0,0160633568762342
0,0125793376094776
0,0154581795144161
0,0122438824038889
0,0125776425538305
0,0126029922423033
0,010300936688898
0,0122537044260239
0,011784964137135
0,0109427559562817
0,0152440186702626
0,0109499083705644
0,0142130399923875
0,0135917731669412
0,0173811064685836
0,0115399252020933
0,0140616557112082
0,0117697860510838
0,0132552246742557
0,0126380862125715
0,00948149391602837
0,011084879085112
0,0121628354354578
0,0170579116654574
0,010483137741265
0,0119876009583342
0,0158877876030982
0,0156399424822201
0,0141061494048652
0,0104856723059078
0,0126576442008448
0,0115512962245491
0,0110370519525541
0,0102569039270109
0,0147022958452743
0,0108870870054839
0,0115963636396537
0,0103289417037035
0,0135051601571234
0,0147637932943497
0,0163324104007672
0,0160088080435774
0,016020569542512
0,0126815959577196
0,00903310678555489
0,0145020188228234
0,0122955228575332
0,00958875212242627
0,00748597631416224
0,0132564167636497
0,012950802579844
0,0133972485480583
0,0136914095629093
0,0110047944021687
0,0136053931688535
0,0149402052193309
0,0127962339225449
0,0122970576995655
0,0148582015045615
0,0103317037270912
0,0090667463176572
0,00683999149618205
0,0122026558736962
0,0108040564355933
0,0118640027456836
0,0146820111755148
0,0194578333797742
0,0176866455145614
0,0150501377010581
0,0134565709549037
0,0158237157530119
0,0145266263945671
0,0121098818520411
0,0104028797053239
0,0122504889040887
0,0100812710772303
0,00664831910216399
0,00958032978394656
0,0109862504021491
0,0155260183516517
0,0124121951697214
0,0120715152926305
0,0114462021325393
0,017164933790752
0,015781514150366
0,016991770438156
0,0142305018720438
0,0137366811331543
0,0109430540765109
0,012704871451516
0,00606836306732991
0,0104769016082545
0,00849633375548854
0,0173266269601797
0,0182733262402839
0,0127946099184414
0,0136785765865282
0,0126651231908735
0,0161643270745121
0,0133276206762855
0,0140599147344642
0,0138160442806769
0,0163447817443272
0,0112095841008701
0,0098897673981541
0,0113521625976333
0,0120562537024637
0,0109335265486366
0,0149114144375149
0,0179976997256838
0,0164098799562504
0,0126985851593969
0,0166936765953418
0,0100839330654655
0,0149362377335329
0,0103607611096608
0,0135045460735964
0,00760122824151653
0,0152763942476955
0,0132004470509735
0,0116322256190522
0,0111024767887921
0,0160448774618906
0,0138941046054941
0,0154286616728355
0,0135953968174706
0,0140891171071178
0,0144237953205282
0,011321181511774
0,00918403870481898
0,0156541084293363
0,0104404163612285
0,0127147004884255
0,0133167163394849
0,015603038090847
0,013585165308027
0,0156220709809582
0,0159726515012224
0,0144197608341833
0,0158911171063439
0,0177394015570131
0,0162625574706128
0,0124841916400524
0,012023658804412
0,0111402628798127
0,00858737920271522
0,0115809149666887
0,00745742336861471
0,0115512118453226
0,0189075442726744
0,0169676050327013
0,019736810939687
0,0151038297741809
0,0186655306387191
0,0132891236946563
0,0197060325879099
0,0135360670286694
0,0174516320562644
0,0101088316942317
0,0101971285833124
0,00468429475962096
0,0107301360601547
0,0168160980772417
0,0177793309624347
0,0156190925463815
0,0135614872375494
0,0170368172446963
0,0122170772318905
0,0152165766620759
0,0177444238502412
0,0185325978905586
0,017570714432096
0,0124480217045783
0,00982492321386595
0,00745602833679111
0,016421842517973
0,0114391464100393
0,0137017422255066
0,0181059511863782
0,0222047772854959
0,0194201986510245
0,0190460599965444
0,0218811242638619
0,013371271846775
0,0137721637974374
0,0159889047841798
0,0167685274683382
0,0217019494477353
0,00861732963423933
0,00909603276705566
0,0103217460624097
0,0165937820570206
0,0156840343220692
0,0228814721521875
0,0213380264182658
0,0185895407875348
0,0210328181476001
0,0163694437516898
0,0180153380211566
0,0137706041668899
0,0180509447472035
0,0156007504660111
0,019681715618951
0,0135136278106536
0,0129883712975083
0,0134573455627257
0,0231203971208719
0,0160411701306206
0,0196650081601312
0,0180314391551384
0,0215529760602768
0,0202970468466478
0,019907810184094
0,0179079948166222
0,0186792897668703
0,021543575887458
0,0203907271324294
0,0168789096354815
0,0205189390195188
0,0170555385078817
0,0174595759201645
0,0213342591908506
0,0244282406651403
0,0231153178229757
0,0204131692247614
0,0185032629095469
0,0157250906240457
0,00942035084977984
0,0142355198063477
0,0120596972364961
0,0247111358071806
0,0216202135547465
0,0322373687820276
0,0220371361294903
0,0219463072336534
0,0240513615211525
0,0279873252339618
0,0258307945001627
0,0236627861585542
0,0216796257090548
0,0216410824757201
0,0172417201269059
0,0186809612022879
0,0222558415307627
0,028756462799422
0,0148004135578794
0,0231937370884937
0,0169666415669858
0,0442096679300335
0,0284162816210169
0,0355379459271759
0,0290741696221035
0,0367781600850488
0,0392552956973165
0,0317367588779746
0,0301602200824032
0,0312018713721853
0,0297729578944317
0,0310391677906563
0,0377472787614218
0,0422629503492992
0,0377007790658793
0,0450580606971751
0,0431725587365475
0,0489615683524353
0,0543004746012945
0,0539542879034092
0,046819253249719
0,0422538180659166
0,053561481566014
0,0543422625426402
0,050507010816452
0,0484712106769295
0,0425577920540183
0,0498613486876647
0,0648692884241899
0,0557771612281126
0,0666674168277658
0,0628750856707959
0,0694610267003994
0,0474704595562233
0,0698352263300556
0,0701277044348139
0,0694213008741123
0,0706308308939763
0,0688282674760479
0,0671542849237364
0,0678848980350143
0,0771240681569198
0,0731926906808107
0,0748578217682653
0,0805794197703426
0,0777554085243127
0,0782142170952425
0,0792896096582427
0,0750112403688189
0,0708138427144091
0,0709125911473926
0,0630320474285446
0,088354108836613
0,0816291642580433
0,0783497665655425
0,0832458195635303
0,0803336012436898
0,0798003244931636
0,074370128662539
0,0873575910607353
0,088176312319447
0,0819948640472226
0,0855046991855972
0,0782295533578953
0,0716129549702989
0,0637798464994068
0,0808904352840814
0,0722740617542222
0,0795592211815822
0,0858102983969559
0,086940692291205
0,0795433448351381
0,0738868914658383
0,0795050661401433
0,0728702385580494
0,0806834349699638
0,0759718120313085
0,0669423140122801
0,0667618839587912
0,0720806344904301
0,0653525430033309
0,0683743351536489
0,0711767463963686
0,0897007250004726
0,0742709123324884
0,066969529194531
0,0668838719454411
0,0636470358786584
0,0720134012279174
0,0673712709593274
0,055282914503668
0,0670102342921742
0,055127572001774
0,0517216117886466
0,0508391591617774
0,0553531875212107
0,0650573023254842
0,0585444127154037
0,0624679659349979
0,0648510366783057
0,0623828990945969
0,0630059745391773
0,0528049498587425
0,0590204065024552
0,0579780070357923
0,0572302122105705
0,0557635923697451
0,0572961928108004
0,0505961646149557
0,0493398616189278
0,0479611427964626
0,053560918740166
0,0620328632553688
0,0635566968818435
0,0616933436288699
0,0579802960064298
0,058038961863529
0,055874811769275
0,0556879606583583
0,0582393559081411
0,0552806932333038
0,0466107272980975
0,0509738070535691
0,0547030362720654
0,0496028530777276
0,048135353881664
0,0534141327732989
0,0569396340209609
0,0575662761634999
0,0530762139840624
0,0549008955768593
0,0481827013317365
0,0580173317945519
0,0462237828024399
0,0589796440360081
0,0577720680341747
0,0534915095869142
0,0521462395711279
0,0456847190557999
0,0572709605040522
0,0484038248576538
0,06018778767118
0,0570357182862597
0,0536864635807286
0,0491079026797157
0,0529504605909922
0,0485511318821114
0,0546224673901157
0,0478524001457595
0,0471964192042561
0,0281825954230085
0,0632313872022461
0,0715443446024739
0,0597990404945909
0,0544451694807407
0,0492169910520687
0,0583134677558467
0,0507973634365676
0,0582148060446428
0,0462627936315283
0,0488530223270297
0,0348309117220119
0,0412033672779974
0,0487824415192252
0,0467290322364153
0,0497351878200645
0,0482666623999876
0,0548341222522698
0,052158385389404
0,0596008292872214
0,0544212568607184
0,0583080546403933
0,0585234700615031
0,0646971948350972
0,0514215684779706
0,0475857979791067
0,0442091994799746
0,0344588444816208
0,0338760309346837
0,0450989099553221
0,0478292887711107
0,043609374529218
0,0496167175304509
0,0478219860695799
0,0436654074321533
0,052305706144762
0,0432896632162835
0,0453082814222124
0,035401553587081
0,0417557787530771
0,0275562170020201
0,0415181516751589
0,0503782650641827
0,0453641083098151
0,0394622831655762
0,0384217936379601
0,0452870018480199
0,0416776118109498
0,0468675370076028
0,0432041893406776
0,0420192471901912
0,0380569894947837
0,0345069025356915
0,0402646398754675
0,0307318933408433
0,030883349352669
0,0333686916673982
0,0268899382941085
0,0462358834920382
0,042746977711962
0,0441796781012693
0,0433627600329091
0,0378899882991222
0,038330907135185
0,0333488287903417
0,0379983840154769
0,0274223239631867
0,0326727461534965
0,0307259751553071
0,0261053571510615
0,0379038006073294
0,0321019052966685
0,0299287341740736
0,0380879839719526
0,037135426632759
0,0463850188172757
0,0510599037040117
0,045505783376202
0,0417575044106218
0,0383015545259657
0,0455680910486844
0,0369600829093618
0,0418974840513334
0,038114392651212
0,0390543182824633
0,0389550249782839
0,0462754628486899
0,0433429486876726
0,0412831136183985
0,0481652028169745
0,0526078588757687
0,043171575669326
0,0512674556472633
0,0391718228993967
0,0544509931160614
0,047949376661037
0,0542730832915089
0,0519486189609318
0,0513948512521342
0,053407424440403
0,0514252000842675
0,0548681633634894
0,0692107993595712
0,060538214179567
0,0620749808947679
0,0602863285640277
0,0642410996871148
0,0491396461479389
0,059224175379659
0,0586546768577448
0,068638200086313
0,0448140693938197
0,0612166489614724
0,0616276202365243
0,0624279445702582
0,0683363220908966
0,0695147853807635
0,0711068567280487
0,0677079025300825
0,060179752225232
0,0666084968851662
0,0668607050241775
0,0627891780563335
0,0608644629585985
0,0600216309442931
0,0589655889930547
0,0590871783838672
0,0622894434724366
0,0688301382173633
0,069606795757065
0,0726307879421005
0,0682400702949848
0,0749470982541997
0,075278769938764
0,073206546461793
0,0675511803323767
0,0698143045621255
0,0711937550619112
0,0676478925807279
0,0653599073298771
0,0614519529002707
0,0660376277251428
0,071710489186878
0,0725892946651663
0,0743080575366831
0,0823548996991108
0,0818588999912971
0,0698947620799781
0,077800832921563
0,0749714771117653
0,0705529951364988
0,0586605601211493
0,0725531356574055
0,0736006315060486
0,0775853135608696
0,080216763442162
0,0769873234635
0,0740564511172996
0,0767785924333359
0,077158928043006
0,0762844331478081
0,0786876722475004
0,0823688309148357
0,0762831264906695
0,0713815130129138
0,0742357184665594
0,0752387727160186
0,0744655748290051
0,0758634320168762
0,0730353067448581
0,0800865859084735
0,0733574440470185
0,0786539983682192
0,0803878771661925
0,0830485521045119
0,0764261859514894
0,0702745254738221
0,0763487732801656
0,0732326656590568
0,071684424378469
0,0728507478579793
0,0731678575036313
0,0745289278937524
0,0741551737727147
0,0740048944550392
0,0734484762439533
0,0689106616070733
0,0799467403536153
0,0789063318611853
0,0829900415332723
0,0797927869118593
0,0727639230310871
0,0742657569430124
0,0792346577791464
0,0740196674522953
0,076657623034381
0,0765605310578946
0,0770893843502805
0,074823088452323
0,0827734766622519
0,0825447248074787
0,0841775722621696
0,0818556735130504
0,0730631604454498
0,0707005075915912
0,075655177852199
0,076922465223262
0,0704926386244585
0,0685451624431609
0,0738673805276755
0,0675170630911608
0,0756030702892925
0,0706638312935934
0,076446334160614
0,0720279222239031
0,076147867005465
0,0728468062861767
0,0714756421795085
0,0624106264254011
0,0659100231436335
0,0621523845229021
0,0627560562956794
0,0669628982568316
0,0636996893160828
0,0667629396349753
0,066235952333939
0,0655606082444093
0,0699889934289381
0,0713212413978549
0,0716143217061734
0,0682525950960488
0,0671384918009519
0,0672186330635969
0,0629699336558414
0,0611301618536324
0,0630345094117281
0,0573144041674714
0,0658397439587369
0,0635483304163289
0,0608679731169978
0,0650817126082056
0,0653701533205645
0,0692542071251731
0,0670487063736296
0,0669274354121153
0,0692128178789478
0,0662715904339998
0,0631885205017224
0,061955030937244
0,062158365524151
0,0664612521607391
0,0617118677265261
0,0609369468868441
0,0644110213845251
0,0636169621465279
0,0614224054083355
0,0606306618972298
0,0628478592695653
0,0675089622565725
0,0638308807672317
0,0636638338200104
0,0635172009550624
0,062853647707246
0,0600167054319585
0,0574390107390841
0,0643751260275624
0,0711214009755395
0,0618451923056432
0,0613839637784735
0,0662821532670665
0,0585025307557858
0,0631085670999989
0,0635309444485627
0,0635094881241762
0,0634330729036825
0,0627104462086698
0,0589257775425473
0,0588600559088915
0,0603876038256099
0,0574334771717895
0,058118743857427
0,061170920351012
0,0637761973619479
0,0593853398470555
0,0613327479326568
0,0605550029905793
0,0585016264136121
0,0586996831819263
0,0552492874599619
0,055741887813437
0,0515510812237543
0,0491781306377015
0,0505326526948667
0,0527195103171389
0,0565831402963185
0,0579548479563747
0,0556693250687842
0,0581560345566722
0,0544884040725872
0,0548290705612904
0,0567257599082237
0,053931983096623
0,0600332998036384
0,0585919949926361
0,0523162739234962
0,0526424427684334
0,0520803872441014
0,0533321339576234
0,0541322259797258
0,0554169295972844
0,0610314386548502
0,0604126524726702
0,0594943002498195
0,0598100066007355
0,0567441420493913
0,0566733657134065
0,056277139431738
0,0568354737444253
0,0603455625714879
0,0565015997815704
0,054083289269296
0,0560071282471314
0,0585944248532434
0,0598378846826823
0,0537726543924159
0,0627908815815053
0,0656654635242772
0,0592527639526188
0,0586081468983318
0,0605860802600877
0,0547745705963895
0,0559340341468996
0,0566475601265045
0,0546858143953987
0,0560038932451825
0,0556435303364675
0,0554382380622283
0,0592425388192016
0,0601559738060224
0,0590713199620841
0,0576684830470205
0,0605928994585533
0,0590282307948386
0,0527950879186554
0,0552990690178461
0,0590415481107927
0,055138376645185
0,0513787890935057
0,0504016242224775
0,0534844364141486
0,0537192900883519
0,0510624360806638
0,0549241242686083
0,0571341973884991
0,0540621357991775
0,0527816351827397
0,0530363383374924
0,0563723751015542
0,0546144418913521
0,0515555612169184
0,0492351472478116
0,0512043465529317
0,0528647275989822
0,0501662301047994
0,0514470926672443
0,0532685194562024
0,0517698094316262
0,0529126910052522
0,0490384036007564
0,0523271966457467
0,052226829459967
0,0481714145783637
0,0487346612902474
0,0491486054275948
0,0483393538745702
0,0499626918018421
0,0477401050781878
0,0454954827632734
0,052133931993082
0,0503407089383685
0,0489583740027122
0,0485878271706019
0,049394600983675
0,0468193296242507
0,046948671396782
0,0500085924217588
0,0475656388796201
0,0455770884259995
0,0440174241807439
0,0445930602968891
0,0441845260075688
0,0484250033122398
0,0464401945902637
0,0476886254275731
0,0476536665465139
0,0486623519786069
0,0478173853116699
0,0448008368081105
0,0465595616388041
0,0439813338738078
0,0414031884143425
0,0412344826169465
0,0435198471106375
0,0402434530884275
0,0415084868283598
0,045161669083224
0,0469137764534249
0,0487737320789591
0,0467101001284194
0,0543103384082528
0,0543180988535057
0,0552704744702098
0,0557901589005064
0,0597094436322358
0,0648307937283086
0,0632024097457639
0,0653389262806574
0,0686544792943455
0,0686871004790034
0,072121506584114
0,0736351760775176
0,078943425866065
0,0844249025367142
0,0845943339645721
0,0866886763418574
0,0922444884264177
0,0912815780900825
0,091604335916588
0,0938735552803967
0,0971911522211932
0,10073423763573
0,103114558043567
0,103547913431992
0,103072497591246
0,104672481005725
0,108969845897716
0,108033352720943
0,111139011074011
0,113471656133638
0,112153730213217
0,112729128026352
0,112687825172848
0,111376467095334
0,10817865726156
0,10468779872583
0,110327447425951
0,107722397699859
0,107649672805569
0,110476518828653
0,110475258120752
0,109223513968097
0,1123034193333
0,112527910069864
0,111317551029637
0,111862472064866
0,111271469149755
0,112970989918492
0,112276389488587
0,116955092345372
0,115372654415989
0,112727469377788
0,116245436864699
0,119260587973491
0,121994278431048
0,120993522860122
0,123875313024725
0,126576873496072
0,129395787799703
0,129010933896226
0,133027721779532
0,135299162091716
0,129879369430727
0,130134492656616
0,137119978862586
0,141134948719137
0,138888924551102
0,136034772821854
0,139570495881215
0,139923020297347
0,141585958028493
0,135506037243709
0,137985249836434
0,142280003127144
0,137149712851182
0,13297380182705
0,139425566732549
0,139572757514984
0,134990898938567
0,133274591088516
0,139977532770746
0,142780961542406
0,144115523830097
0,150015275340489
0,150942137890049
0,15291274446008
0,156641634683064
0,15371199395998
0,15640156328396
0,164342743210832
0,160218511757764
0,164562628972923
0,166258468329112
0,173024681809887
0,170483977372685
0,172154003601336
0,181202604675024
0,18227682162203
0,186217562883555
0,193884669176305
0,197512963407569
0,196895412005651
0,194238526741818
0,199198606670248
0,203245966119034
0,204995926353943
0,206878139230101
0,211416084299208
0,211277345552114
0,218689670995308
0,217145508134059
0,218231718359918
0,228288994275218
0,224847639701577
0,225945501867358
0,224515409233762
0,224693204904154
0,221891140171861
0,219157189411089
0,215437387872354
0,21584826703033
0,214661262000549
0,212527143228959
0,208838801242648
0,207697491446911
0,211433251584022
0,207401507081933
0,211125068028931
0,207207880139612
0,206473047277269
0,206570875652735
0,199779592370161
0,199941364681066
0,209583227897585
0,208817970403417
0,208179288168488
0,211508643589751
0,216456550955618
0,216467389705321
0,214908919281852
0,217587447239751
0,220060948023843
0,22289920963433
0,226900694504381
0,222362976449586
0,220836528704956
0,219715697109428
0,214801774376757
0,219623837860231
0,224762637332424
0,224996817876477
0,224173388194097
0,225054070639104
0,229987540921422
0,220751310166042
0,216793874772
0,226801759242291
0,222794051045883
0,216261944066539
0,218599168227056
0,217963835819155
0,21643105013344
0,210200549238655
0,208769158556492
0,211127744443586
0,213696928859349
0,208974002743226
0,207487647899681
0,206674732973474
0,208669115778137
0,200708896535153
0,196267176645127
0,192805468142437
0,187951416232778
0,182758160186579
0,175922277412614
0,169705328449511
0,167272729955546
0,158823346647553
0,152279029485323
0,152914524193938
0,147486881859208
0,141092153826274
0,13344459846254
0,125798933743245
0,120094371573263
0,113449741353732
0,116674873783311
0,114417688379082
0,107712291717187
0,110799727097076
0,103056852658444
0,101648100228229
0,106449972596831
0,109510687594102
0,109430568656841
0,104532670937358
0,102658799054984
0,100733937205907
0,0972487421800392
0,0959628080961735
0,0881838101465025
0,0866289832516934
0,0918250107359143
0,0873300031999262
0,0906080363645347
0,0897062372654282
0,0761835504597409
0,0799836285367809
0,0836884998174913
0,0798598756667738
0,0733630392189925
0,0761626476624836
0,0743567169650444
0,0598263468248645
0,0553048193279543
0,056990960603799
0,0553821902089876
0,0521115208793996
0,0472109295522562
0,0478225575391799
0,0558541483674145
0,0509321104684147
0,0428609584083005
0,0455847493549551
0,0492424106213841
0,0455700141368856
0,0415502984960028
0,0443518165845882
0,0484157302726915
0,0322651890205774
0,0237471444865033
0,0314331266363499
0,0378353537520133
0,0399856286188692
0,0333262187018282
0,0359098819489404
0,0359664778120876
0,0331543640545141
0,0305198092702405
0,0408169558651569
0,0389338407673254
0,0331511842019876
0,0311210308129755
0,0337136744023525
0,0296324530039099
0,0314026248334265
0,0383754583052867
0,0426612516843089
0,0412495180334573
0,0443913093707532
0,0404815808152382
0,0326887963309384
0,0372830567240701
0,031453572063462
0,0363747992051879
0,042557375664812
0,0394351872611039
0,0278192980468058
0,0313214241680872
0,0263819688982024
0,0249661278857701
0,0359930842491947
0,0420857562073734
0,0364634761155033
0,0439740399053294
0,0440836145283879
0,0381521723422258
0,0376199428437281
0,038904945654382
0,0271263128700058
0,0305541680953464
0,0406763233559559
0,0436521383373241
0,0353138816092598
0,0283932905546662
0,032941961836339
0,0367852093246624
0,0434582378587448
0,0429452922734474
0,0415299665745551
0,051187764752348
0,0378881445049051
0,0335096851831549
0,0421859241062824
0,0426508952740791
0,0414330518921405
0,0343933206368269
0,0292202396498668
0,0415167105159704
0,0368331439081979
0,0347183964212688
0,0411294812012357
0,0479792169317961
0,0451354955556251
0,0396182690344874
0,0398011635986229
0,0510883840663871
0,0424529303723345
0,0349226646081602
0,0454100946595098
0,0525781494864423
0,0479236668449181
0,05122870320169
0,0534356496754622
0,0521457173572829
0,0556868806254985
0,0666450373907131
0,0597150518509427
0,0580300104365254
0,0564377668619425
0,0392939727623029
0,0474243317338995
0,0551060949711567
0,0327094549327184
0,0336841463174056
0,0457009269105724
0,0508800140498141
0,0461868164708969
0,0488712276041264
0,0538146289429015
0,0490058565840269
0,0497907302415179
0,0530447272280311
0,0491659821591059
0,0562946513408827
0,0465029631141395
0,0356200035151457
0,0383242045697005
0,03609871595086
0,0268312004217506
0,0309154345367537
0,0472552482976474
0,0588123944662293
0,047616231196868
0,0528147329000624
0,0533114307264366
0,0388914150991229
0,0440805987650922
0,0383226914513094
0,0452364725786352
0,0543401052697275
0,04528210377858
0,0363916536362484
0,032713780396803
0,0379857356821708
0,0455441928378229
0,038386538075152
0,0347302936759608
0,0526313136912431
0,0474445880959931
0,04162427600786
0,0324861933013772
0,0365566629742738
0,0400883113600394
0,0217121334134235
0,0456576595464195
0,0436602962911081
0,046522193728716
0,0348979379179619
0,0431080821196808
0,0421149013530858
0,0431283004275506
0,04611889591948
0,0434100568809333
0,0528575394918386
0,0384256788717843
0,0361700701129213
0,0237242380921109
0,036812755657257
0,0343331822374934
0,0230421408325401
0,037648832944212
0,0390132817087533
0,0346292551062848
0,0251131522567737
0,0533406021649616
0,0601123783992259
0,0535959049068566
0,0539477638322774
0,0595668318217214
0,0465102191740629
0,0220144924760321
0,0101440848999612
0,0217443556213249
0,0508371162155419
0,0435192973775311
0,0203641149207449
0,0297779330245496
0,0446269119655453
0,0388578420717126
0,0343797331235595
0,0560898612428173
0,0549498410954079
0,0492228614465052
0,0521468763220356
0,0524672265645198
0,0425995739381293
0,0268667215308214
0,0150770739980724
0,0329942045828749
0,0633822132214839
0,0506897075358274
0,0621779380076815
0,0570377143936477
0,0556101972870362
0,0440907961442945
0,0411297840300257
0,0557403485698104
0,0610845794022854
0,0453677744604051
0,0341448458046139
0,029285852234593
0,043708466593361
0,0606488646961027
0,0427095879793503
0,0703230691076416
0,0735967709034882
0,0682923293525605
0,0867401320643494
0,0976136115254471
0,0762804600352849
0,0478379509432463
0,0525569425565112
0,057267944382283
0,0601111739569653
0,0587810957995245
0,0364293502979151
0,0423086931525876
0,0572847744691291
0,0744362752402994
0,0607673795684729
0,102312027768616
0,102305105992366
0,0779532991330088
0,0560257507272023
0,0637926409799545
0,0657549783835384
0,0570709223919925
0,0428313011232506
0,0371743987430461
0,0574417087028677
0,0401709264744089
0,0320266272669077
0,0274199611377009
0,0763792693173497
0,104057129802714
0,07842693127049
0,0987190600767348
0,111744273616323
0,0606808497866207
0,0281646446746197
0,0354603952397473
0,0634175168442786
0,0561855085782645
0,0619660820943255
0,048308331105303
0,0664204218298645
0,0480806415133063
0,00267835069927508
0,0604008110086145
0,0899312497757372
0,0662301833056673
0,0921359221504383
0,0884853553733753
0,0453421223168692
-0,00291007192529513
-0,00770892857514525
0,0333519037250091
0,0781350691250346
0,0922545801594095
0,0763557473548951
0,0893585519465476
0,0886836870069109
0,0405049085259401
0,0304635404147054
0,107992173617989
0,107401135332426
0,0317001498208833
0,06031618597917
0,0164089055234514
-0,00535575856633119
-0,0581996980639314
0,00780157725592888
0,0817479790622421
0,103346966096446
0,125187649357881
0,0962338435938657
0,119334152135282
0,110935215735746
0,128601254822262
0,0515242917095601
0,104248509365361
0,0928406398880327
0,00996596884525664
-0,0223211972145379
0,00269999688983189
-0,0311001363694299
0,0627276952100407
0,0614383360384654
0,0693112407611366
0,10539235522152
0,14448984135382
0,0703730362637702
0,0356175060500123
0,108361634141295
0,124309602338439
0,089399759786235
0,0770979900590055
0,12768256442787
0,0635722141937257
-0,0119030103910732
0,00665607264508726
0,0914829899933546
0,151868887995962
0,145592910846453
0,150613185337607
0,173039185815485
0,101218409812693
0,0285752726168867
-0,0115538985546859
0,00315060943285111
-0,0295178435490017
0,0453918940012421
0,0707056011554618
0,111976389460316
0,049562808658495
-0,0154482404065198
0,0425004203822524
0,156941083707873
0,209691891117087
0,154622131771441
0,203994325000697
0,200505303946863
-0,0954732044818431
-0,186359231432851
0,0805586258461051
0,0493992295241338
-0,174944755310594
-0,0318191762556831
0,0986481083862948
0,158173000800121
0,148549833125889
0,136641054590103
0,211480475101064
0,222660005998278
0,202793069263101
0,136582933670552
0,177373808650848
0,484260462342174
-0,406932558719247
-0,237555516864369
0,148379470721832
0,111666193478875
0,0421805795651544
0,078258407177083
-0,0965655668322814
0,000162193742426347
0,0392407464490857
0,348267778767269
0,270582337127568
0,328197839096425
0,324891349622858
-0,00460562578942994
-0,650948885988787
-0,861957030469909
-0,652889145722629
-0,182543017119764
0,398605202017762
