3596
4000,36533379555
650,420452594757
1
2
2
0,00891310867304666
0,0247916491445229
0,0191406970797248
0,035570088405217
0,0278825186725997
0,0350537684550363
0,0190021035194398
0,0350870600873868
0,0108694258591319
0,0257490978712529
0,0155740838490373
0,0262639793902193
0,0176418038790828
0,0312354697284876
0,00357551200561971
0,0341973005466981
0,0153839470328174
0,0347947735971286
0,0268103990801876
0,0321046366056489
0,0200224029530933
0,0317159791335773
0,0214122271394508
0,0326570865263633
0,0166925180923899
0,0305790658593151
0,0183087580725568
0,026123166905525
0,0101261193495871
0,030421337368058
0,0155170479712642
0,0339180685224131
0,0133333671614564
0,0285747094280245
0,0253167541911124
0,0316009786163125
0,0157955569638449
0,0325832026348159
0,0162957212285665
0,0316839042304995
0,0136029348677514
0,0341066707876243
0,0232953951243732
0,0297876724261118
0,0207942734797007
0,0358746935583904
0,0149649659183991
0,0425038277532571
0,0303340465601772
0,038766947342151
0,00930918027849522
0,025042396709521
0,0114925683886255
0,0322495601378503
0,0115597273220822
0,0364317848911073
0,0170619583034452
0,0309477221183621
0,0214960068727806
0,0401903182987524
0,0284130591813759
0,0484642949137692
0,0213323434228835
0,037963760309271
0,0147853928794408
0,0317135384042846
0,00657209244814763
0,0297871328703058
0,00602148867943647
0,0309122976734551
0,0176108958140809
0,0410367698999336
0,0293020146870232
0,0389616948447166
0,0169425994177212
0,0361018958336801
0,0191451264318307
0,0335692774932418
0,0102095270768047
0,0343136241932364
0,0169435983712024
0,0263168334495969
0,0164126107798854
0,0311335411380798
0,0195126855355873
0,0448055473841132
0,0113201731361408
0,0328009792079239
0,0295569789038153
0,035627201720067
0,0199841125215391
0,0372113742514117
0,0134118722963168
0,0333019062776996
0,00600913042000935
0,0276473749372541
0,00325282627077678
0,0215521802977989
0,0185428790431279
0,031727107268414
0,0384239031698263
0,0279016718709507
0,0488450697326899
0,0177608873993318
0,0231143826938429
0,0563857932455684
0,00181733257109755
0,0572879694663381
0,0118021611656679
0,037680367024089
0,00673049448558076
0,0275387414326958
0,00798229141868709
0,0363663607551807
0,00567791470842974
0,035237936469099
0,03044987783267
0,0403559488328597
0,0171315191766156
0,0284236763142681
0,0103885996081178
0,0240458649682057
0,0490004105051796
0,0321648009152433
0,0299626989141639
0,0253101924012339
0,00463656934080026
0,0413050085869318
0,0390736513735939
0,0334909353997043
0,025846751852155
0,0326813601705382
0,0257122785165038
0,0246774661028717
0,034959735430449
0,030553866006645
0,0153143274266762
0,0214461233220243
0,0164981940484309
0,0518889710461379
0,0197739145534733
0,0326062308500821
0,0174630538227861
0,0289877892536942
0,0261577259350018
0,0402392059702656
0,0069576346065742
0,0244316186558046
0,0209509446648346
0,0292107456981418
0,0145966456953307
0,0276557270730064
0,0169618253407262
0,0306651123521716
0,00446945979550259
0,0233534873465682
0,0656164658127944
0,00342985473709413
0,0511614995488836
0,0234762416618139
0,033799915972962
0,0292779434206862
0,0209929161315966
0,0214486672270354
0,00716227982702451
0,0259624612489287
0,015100547614911
0,0486200451479882
0,0222972048932141
0,0460902146753726
0,0296345940298622
0,0504755219238247
-0,000527885431247837
0,0557590753131943
0,0324252743667234
0,0130923849598736
0,0215858228501987
0,0302647512999862
0,0160456410242083
0,0194547433922718
0,0162703344138388
0,0176622893007958
0,024724114399039
0,027411542363799
0,0268735676747817
0,0398712282620499
0,0236143898200162
0,0317662971649878
0,0205550276599851
0,0128703437108805
0,0311839812827056
0,0341529067041644
0,0280171590654308
0,010742747635251
0,0158518077568631
0,0120022387974027
0,026075004571297
0,0585569398102845
0,017505757137042
0,0326573758090807
0,0249121368607204
0,0326310127238209
0,0199788154810432
0,0235199059360345
0,0210583708401529
0,00430408180188644
0,0235536628138365
0,0202480862000697
0,010517022300638
0,0222847839852736
0,0148757116626384
0,0298380862474144
0,0301275407418487
0,0605439049857425
0,0176622326644317
0,0364214943882121
0,0122932712107178
0,0355822838062151
0,0147991161797213
0,0246660196870418
0,017982894041355
0,0299090837953855
0,00740956116086426
0,0258638111989314
0,0175254593861914
0,0297003027435467
0,019956110967569
0,0320335200761223
0,0236549776476316
0,0338111148444725
0,026362097103871
0,0298428676210712
0,0124394215054418
0,0233729959185608
0,0157050600751728
0,0294143942456575
0,022574914994847
0,0223363923851421
0,0261722575431194
0,027855892859351
0,0232719548864121
0,0271726932753856
0,0282506394553631
0,0228850376200621
0,0195892987180938
0,0172097825014645
0,0419597975621012
0,0273583948503007
0,0134948576571187
0,0208513102053196
0,0141175890409621
0,0407291370808051
0,0160006454950763
0,037309255658382
0,0112983788812571
0,0398398411730562
0,00358445339019601
0,0526067276075923
0,0191695598918026
0,0225384638564202
0,0117781050479943
0,0368932003059089
-6,4986750856199E-06
0,0379907755715614
-0,00799112298437161
0,0730885240899319
0,0231325562687576
0,00969162218644579
0,0494304665742467
0,042286571281289
0,0120775792036739
0,0382871248166199
-0,0264984936279243
0,0873039998144519
0,0438087659375107
0,0287083643392849
-0,000207129933088606
0,0367973507510853
0,0150412476668647
0,0248426169012367
0,031694131590262
0,039254397367933
0,0453017190902548
0,0203067442705834
0,0373734404598527
0,0274868305237504
0,00979705270223122
0,0483622557385609
0,0184325268702513
0,0343954625950748
0,013383044884782
0,0242704677687657
0,0109932428909196
0,0388121379853451
0,0130106690757534
0,0443985046020006
0,0126043563937382
0,0501324528910111
0,0267305724796442
0,0374569170167018
0,00735567631273212
0,0384072355608357
0,0134581285311639
0,0343068549277561
0,0102268953104216
0,0303567304160981
0,018074650155346
0,0148671406789656
0,0349246068549811
0,0475449496829635
0,00741950497739341
0,0515612367964811
0,0235155613487892
0,0324758974961463
0,0168038574330436
0,0324665977380454
0,0177005905588548
0,0269384088566691
0,00529226218975206
0,0501753998159247
0,0237534952882807
0,0247969088700738
0,026000828605248
0,0291854294915032
0,0237238157827104
0,0353561987378902
0,0227166476861537
0,0247605086502916
0,015027597523526
0,0261297982010684
0,00254542504174987
0,053755826670466
0,00024021578843106
0,0288133895692164
0,043958752651859
0,0247086730070561
0,0249774518244394
0,035135995547081
0,0373029486862126
0,0274642418714506
0,015693223120672
0,0336225839384418
0,0170140131869377
0,0351131948724596
0,0263330220495221
0,0187895842827831
0,0101332667149987
0,0239692284068157
0,0404083918202586
0,0453475324446847
0,0383919869154463
0,027344332649338
0,0251849363217519
0,0579612301415948
0,0133289586781237
0,0628194600545143
0,0169055200010799
0,0412285445525233
0,0148313668912317
0,037735310930062
0,0128768004278666
0,0347405038456682
0,0243553962669076
0,0342297515448108
0,0321889831806209
0,0463286278631119
0,0242925265523076
0,0271495588533408
0,0460607273363474
0,0492955342496129
0,0178536906219538
0,0421764857827733
0,0139204308599078
0,0350298480264335
0,0287704675418153
0,0367703415956207
0,0522368294446399
0,0172532845731966
0,0641684957400139
0,0511412883492048
0,0440551903635529
0,040855877405851
0,0358744394721336
0,0371399120157417
0,026749968548919
0,040035048243278
0,0370658759524737
0,038423926949783
0,0344380109618608
0,0359731025554131
0,0338532326618501
0,0402676404185276
0,0452080024161921
0,0500042905127368
0,0515295898116877
0,0550582175218487
0,0346339414967038
0,0667966775462642
0,0488946260181498
0,0526327846334089
0,036724935420478
0,0630144184515172
0,0361045468943128
0,0655142418580715
0,0305200237290919
0,0630745867059346
0,0292715957420072
0,0668201262504887
0,049308910691195
0,0570735406702164
0,0709786154482918
0,0559628341163517
0,0465724031006031
0,05829623386043
0,0357777531621745
0,0754161309425353
0,0479812538448695
0,0583565034715848
0,0587107111182257
0,0863148192934862
0,0381658258793009
0,0854748005587495
0,0468486420852164
0,0781283642091931
0,060750526663838
0,0743149596472859
0,0584797233767404
0,0655839797761302
0,0537230638707097
0,071640660588119
0,055635503660799
0,0782414563917557
0,0572891507735049
0,0832429135971312
0,0734679912528393
0,0683114517521148
0,087383993262751
0,0839469815118733
0,0724114391318237
0,0729018876068636
0,0578245015718529
0,1041750942776
0,0603865702231672
0,102008936461146
0,0589572313607059
0,0853918537105823
0,0709472101197117
0,0927978767495072
0,078016505325758
0,0933583877174236
0,078701651704953
0,106607362493994
0,080119993683759
0,0995063263604795
0,0877899954341954
0,101341859461594
0,0836199175037598
0,109642286633016
0,0895447410834088
0,0962476203993622
0,0875205655897896
0,101865069873605
0,102566251253025
0,144694659734838
0,102622067942758
0,140713787155094
0,0910330567758489
0,123252070907688
0,100417358619667
0,122991241174681
0,0912369600627501
0,119179690829117
0,110676041460269
0,119247754105876
0,10726524066846
0,123082851274687
0,113749331743716
0,138931664867319
0,126684558517666
0,142371887121509
0,126673524863563
0,138411573936101
0,123697315357928
0,136250552317669
0,112331359827028
0,145992059805533
0,124127534321042
0,137026559428721
0,135468050348841
0,148991256169045
0,129407393549158
0,165686796977894
0,132201757772714
0,149389290897357
0,14525413436209
0,156220536489292
0,132568414372265
0,156805547394933
0,136667378112081
0,152049159452655
0,142050774413764
0,159389474954745
0,145078659823463
0,174180596479418
0,151206559621164
0,17201527144623
0,158597981870907
0,184905004447464
0,143433521991572
0,175319500153947
0,167479816435742
0,187785980936808
0,171010145585918
0,177205950421306
0,153273040106459
0,189465870520087
0,174317418375769
0,199548254218192
0,176550067127511
0,189225650091285
0,186217619496234
0,191689712761882
0,177174621142092
0,204364334651339
0,188922737650485
0,195215778252215
0,178041368305913
0,207098942952688
0,19188178171263
0,211958381153926
0,190022306678731
0,213904083876819
0,200518643768256
0,223148322243794
0,2119668610028
0,222032467189113
0,202526686044841
0,218783425560779
0,204121079720679
0,222679416334406
0,21427971926373
0,229079701247902
0,218567420002018
0,230594693321229
0,204963988737307
0,240770596743647
0,22434723801998
0,25596036172378
0,244879412400638
0,257201736450524
0,220544356830287
0,249693495240653
0,213668439878681
0,235434933940903
0,227698281427001
0,247201078797158
0,225767754033629
0,255166785663332
0,232182178299175
0,26577647739249
0,235830167864816
0,266010368885736
0,260291785600411
0,275355576872563
0,253436830796961
0,276830297344847
0,251076674167932
0,257608656093449
0,238602145610067
0,265404658985801
0,256611230322944
0,274004357257538
0,26108106431227
0,280830052332294
0,261823220810148
0,295966379236194
0,268623180840923
0,283398977727404
0,26141392607872
0,287500445639645
0,290133201067469
0,285509053890954
0,262291926981356
0,286805669870286
0,271726713766974
0,302080483345896
0,277112495845227
0,312008978911491
0,284541289650749
0,301409908351495
0,27339409624515
0,297679352060416
0,278410194193915
0,317096813955448
0,307366982238659
0,307733100853771
0,277683335871242
0,310165276471327
0,289964005214062
0,317053468022783
0,305282505465948
0,321395293872319
0,309882150890758
0,330849008261333
0,296394148953778
0,312441447784632
0,308691868734694
0,325220127606823
0,297154010658753
0,327843565027003
0,303455804010067
0,340975260641672
0,309553882023194
0,329990349049312
0,319422304420539
0,332899883307326
0,32572346942496
0,331939840534446
0,324291479878076
0,346372969491316
0,325472065714999
0,349188871042823
0,313949543345008
0,341471769745863
0,325941782111679
0,351708788647402
0,34436054448218
0,351059320668227
0,330699271477954
0,354361898024754
0,332118414763265
0,359078695402956
0,34675916329873
0,353807738871147
0,329216533941931
0,342307935628488
0,331665185293148
0,352856236980968
0,327607266120971
0,355527641832647
0,344910117298153
0,348963322434092
0,341095290341611
0,373348498330512
0,366682085361405
0,365928965570474
0,348875675104004
0,376214962738103
0,348007081691829
0,367509394754923
0,352782879826117
0,355143828066199
0,343921832647331
0,367050131388741
0,347964424271219
0,374433768054042
0,366724692795725
0,383038849554031
0,361993377999725
0,373796916827948
0,366894068573025
0,387369941814868
0,375896208471671
0,376004223020004
0,345100073330243
0,379808891539958
0,355007368195548
0,362355561893136
0,360282343157438
0,375026878574608
0,35864270313992
0,376625692692078
0,356673942465876
0,378579925995237
0,355849275906018
0,39061721500275
0,366971934048822
0,38128069754341
0,366196353950273
0,372647905939066
0,35644626943148
0,381074668579879
0,373227448764626
0,388507732081238
0,367122743715335
0,368500505397673
0,37765179285782
0,391299209210517
0,358351989248226
0,390431241945466
0,371869347345718
0,383011476626082
0,37418618983267
0,390686320041906
0,368252160892185
0,382542214978637
0,364565555465398
0,383065517755118
0,370537060735809
0,388983405183237
0,366809260413629
0,38694412575081
0,366662087045994
0,374902931781293
0,365393459971465
0,373843969860973
0,360956587162024
0,377151361957292
0,358175154563885
0,378426056003949
0,370593784813289
0,382372308345255
0,363686042841611
0,38647109589247
0,371705796680083
0,388478492834123
0,360287147141293
0,373320395056055
0,365350081374618
0,376949901607231
0,360179164765593
0,374161647423015
0,368078015496471
0,376023451929598
0,359513564378363
0,369444255366625
0,358802088824809
0,37954606093408
0,366306300705635
0,372927802551122
0,36422155787785
0,376457225975838
0,363182957966915
0,376780827283006
0,357155321802058
0,359526354144394
0,33873795880035
0,363397166633797
0,360044625253233
0,370311672131415
0,359775212011938
0,369259039450974
0,339547358838235
0,361412873448348
0,359430004802992
0,363141082025143
0,363348681008109
0,364454664503234
0,352858693547631
0,369467974898883
0,343134631259775
0,359230030849862
0,350437336297507
0,354917245554525
0,348011954529894
0,359222972929806
0,350456590762288
0,366024187064035
0,350696176682527
0,363884305288516
0,35127248712771
0,365333976656956
0,356001536036428
0,34819369825352
0,331945114499221
0,350535524103489
0,34555766138086
0,358586504197558
0,333873923887986
0,348368850980248
0,336170448372094
0,355980996345646
0,341750342743
0,349771844573454
0,340304187048716
0,345034225886447
0,333286497956467
0,343421746210545
0,328644774198371
0,329021909380041
0,324845413516078
0,342994115869636
0,32439838035462
0,33995024334311
0,330361762022949
0,342568858686629
0,332939393145273
0,34607432059955
0,334883484302648
0,328388139833082
0,320211579052535
0,33236676403238
0,323446088479312
0,324512111773199
0,315222564119117
0,326486913183443
0,315631227036142
0,322467727767757
0,320601352247148
0,328202529357424
0,319668142325544
0,328163569712589
0,307111892067319
0,319235274078138
0,305546087456744
0,313726174591
0,294493597445408
0,3169222903412
0,300870040675989
0,31523535907251
0,31064018300597
0,316727606047028
0,305944516640913
0,318652695662682
0,299255200225268
0,304047791901854
0,28862129918091
0,31164074591237
0,291850309750719
0,299411473398287
0,284532343578375
0,297787343862535
0,283600710268178
0,296375905852904
0,301623099083529
0,303822045667926
0,290811343552651
0,29734316383432
0,287832513492594
0,288966956088635
0,282560188120659
0,292621186560712
0,27162440390671
0,27437345635172
0,268691834094177
0,287978088382333
0,276425516507749
0,286324702967873
0,273916632151868
0,28905561669273
0,274533970966973
0,283940676198049
0,274576198790313
0,28585285528292
0,259721723112319
0,275580489228077
0,261525980522265
0,266903472309131
0,260004385272313
0,266546887194295
0,258408476633766
0,26646413105446
0,267006241239328
0,270938380313578
0,250678530721806
0,266668045274952
0,260683090007883
0,260314903038805
0,251765359966809
0,250347386576717
0,246461473113014
0,248861464651818
0,23396211374215
0,246054728122861
0,240394534824881
0,251878049108286
0,24259914243922
0,247508481432626
0,239928716887672
0,258689323245331
0,23919321098294
0,233586533939142
0,233001818430127
0,24146023618693
0,22836044442654
0,236077329763053
0,229645930455716
0,227757197159076
0,218561481468277
0,230545215611478
0,223888060194878
0,234922219511447
0,228229794387077
0,229364103709045
0,218866635511569
0,223645280491405
0,21244938860565
0,228988433784273
0,213681948785806
0,21513716350161
0,212809516637512
0,219802625985071
0,210325508174428
0,215603440733397
0,212495974871876
0,213571688273722
0,207980127773658
0,214695736491701
0,203090845036342
0,209372438489066
0,195894575392333
0,203162323331731
0,199153381179517
0,20481117704246
0,196134382841569
0,202525027118523
0,189368942605553
0,201329978270146
0,18955328663835
0,196888452824819
0,188815231486863
0,199195388027513
0,189881020395179
0,190425936122844
0,187424326964037
0,188547153315355
0,182679312843798
0,186906408493105
0,175090991386551
0,183309284828914
0,180612750239874
0,182201319109528
0,175063517019053
0,187513838366892
0,178286148808017
0,181406835485626
0,173976853952827
0,175590232392336
0,172852249277672
0,171026522298135
0,165734208626711
0,172775240184854
0,160445480943329
0,169083121206733
0,160582877972153
0,169120941962555
0,160162151589767
0,169002573063361
0,160326173284425
0,169494712875069
0,159249734361035
0,166612324241446
0,154016496280921
0,155687865069333
0,156529002882274
0,156686996602069
0,149742911191504
0,154229024051075
0,153766792824507
0,160466005817891
0,153685614239793
0,158201434048884
0,156871836505756
0,152700409091907
0,147502990665764
0,151382030605378
0,143022771695667
0,150730352823045
0,13998935238687
0,143940485729098
0,135909463278847
0,149585784158157
0,146158299050529
0,140959968604368
0,14200218957659
0,147200520316288
0,136410205568898
0,141145690661391
0,140061306420013
0,144482235924391
0,130898051456062
0,131043277827375
0,130468246050739
0,132705491970084
0,128541788823102
0,136232663975851
0,128360818731254
0,140487391369518
0,130040916081284
0,137630548398303
0,134505901395777
0,131535464395878
0,121841492558522
0,132015441158679
0,122273063860853
0,127528808882517
0,120818941045982
0,124072311262806
0,118887564503378
0,123385179723511
0,120887609305442
0,130071851386946
0,121387327540915
0,128824760264483
0,117704609538171
0,124793229141601
0,115617455517873
0,120269114935679
0,111520260356024
0,117010152195711
0,113676939414207
0,117664908345481
0,108208734395665
0,115140848635383
0,113838422579817
0,118502409240604
0,106699280454271
0,118018729017816
0,115128147507171
0,116428898904762
0,107783379406117
0,114494567311785
0,103310582006975
0,107102924838201
0,106542902046684
0,106425729750058
0,101878912460593
0,106062992561664
0,102268950996107
0,105391908216824
0,10336972390282
0,11380921029077
0,102411071453788
0,105212059746946
0,100192315322507
0,10403687595026
0,0971728147650699
0,0989962327829311
0,0905973840014905
0,0991702875029493
0,0920190928874387
0,0944582004110547
0,0958261130289701
0,101918029450452
0,0971845742753096
0,100051730655567
0,0921402560854506
0,0993767323663981
0,0975007670047523
0,0978639795005869
0,0870293456892554
0,095102814989685
0,0925424860427382
0,0949318212585464
0,0845917434134046
0,0920946882635146
0,0825840723302064
0,0922803781625248
0,0836253814853711
0,0931802599611057
0,0907512494075269
0,090574398289457
0,0825430039763555
0,0907792548902516
0,0809464799581505
0,0831563669606331
0,0800464553132822
0,0875480843284742
0,0833547969349069
0,093831131120085
0,0847157088451524
0,086097506997736
0,0787641368404072
0,0852118289669816
0,0849420451282824
0,0954073195605275
0,0833435451023397
0,0879718080776173
0,0835675432348855
0,0878961374236263
0,075678105125372
0,0850461308263944
0,080873063993079
0,0837082248815081
0,078173327018143
0,0856810168037861
0,0838231526702677
0,0878702123933472
0,0831155891673569
0,0850904227496826
0,0816397793755994
0,0810773765908146
0,0766993675421289
0,0809099063234686
0,0765109562593794
0,0811710945549951
0,0782160205617917
0,0850232741569939
0,083717356450549
0,0873012747981399
0,0845368660716584
0,0927462757408398
0,0861748392784823
0,0873646184726507
0,0828661876765063
0,0901754981933767
0,0812528826227353
0,0852233819269619
0,0825924146982935
0,0902708779340484
0,0830459516123907
0,0902630428924804
0,0909015743163951
0,098913428281846
0,0926208843045334
0,0965897578408712
0,0938511309587019
0,0971823888639919
0,0886966183321175
0,093109437068723
0,0908985654825723
0,0929569100505019
0,0930714964102205
0,0974830418003376
0,0853286986886773
0,0982592361923858
0,0961066111765475
0,10476045528151
0,101193601814365
0,104759295506516
0,101777969263721
0,104919658706668
0,0986696579255382
0,10451426285231
0,101456422432093
0,101830650888309
0,0994352410311804
0,108692383435798
0,10179932916997
0,103194717841787
0,101239145932848
0,111855302801676
0,11012430351225
0,117842436098135
0,114149122768946
0,113773139154922
0,107259029718505
0,116564153547617
0,113267053659083
0,112571487077741
0,10434203777128
0,115839011245815
0,117050552226652
0,12070350478882
0,119370919735526
0,122012346807243
0,118001047978437
0,121449251542366
0,120383379157917
0,124473905746242
0,117051676685916
0,124862898626922
0,115653552853626
0,11853413313138
0,110603179381189
0,125128035046844
0,117798039964573
0,121078512982109
0,115010699278309
0,121936730856279
0,113928479951034
0,117931697549956
0,118980156631296
0,121690472297726
0,1170946038185
0,123023782615595
0,112524421502816
0,112473203120606
0,107678421466805
0,109622111050493
0,110548928637196
0,116134530871532
0,117499003727198
0,120359307321079
0,110709643602182
0,119195006116513
0,113366905010026
0,116426608816127
0,113077504417256
0,118584648639465
0,111527879873532
0,11654991022139
0,104779998665027
0,113811617878199
0,107890417784925
0,112948771668181
0,111097827979995
0,115818513840052
0,114643000598958
0,117622040482777
0,112404778152649
0,116074687787787
0,107153022943593
0,113917563015472
0,108507436452478
0,112618788024954
0,106258597203124
0,115444215935272
0,109320795887972
0,107657633657025
0,11204391487275
0,112844323395597
0,106830090502314
0,117302344605269
0,108602971206222
0,110384543863985
0,106777666553211
0,110749142043217
0,103046157386302
0,105114240494276
0,106669591796897
0,105740218209161
0,102268030410757
0,100198731504922
0,101176811221073
0,106779912118152
0,100873096648299
0,105580021600095
0,0977131704078684
0,103127826843095
0,0938749688177667
0,0978682041309274
0,0910579702040919
0,0960506183042023
0,0960082228341459
0,0965354379171401
0,0846389984960448
0,0929226797828706
0,0893127694821805
0,0935141818704276
0,0929442412250193
0,095320449064057
0,0893286703913226
0,0934347917423802
0,0861522999209987
0,0889685238138888
0,0767154190043566
0,0814177221516
0,0821400804203818
0,0841849242577644
0,0842444903777982
0,0875621066394403
0,0788920619007829
0,0875207959453373
0,0804862526356795
0,0824324593897919
0,0799865372330093
0,0811045902552077
0,0748616680786726
0,0790926850551695
0,073514262442497
0,0780229159594119
0,0729002753097887
0,0746023658760614
0,0771037095832626
0,0761570411950126
0,0729309384057295
0,0783680579960878
0,0712550171317242
0,0741957170582374
0,0746079432158966
0,0738218938437718
0,0691776043836027
0,0753004108260947
0,0729076835355933
0,0679013668001702
0,0660289610796471
0,0737346760659023
0,0657250960669381
0,0735443464911996
0,0653998713669539
0,0746318651390573
0,0700303404970902
0,0721140511739078
0,0661630436876995
0,0718960828931629
0,0668857239473163
0,0665813834239109
0,0637892716180139
0,0657066274311067
0,0596749111189398
0,065433771997537
0,0581747759278537
0,065868820346674
0,0696529278124063
0,072384019865152
0,064046521741641
0,0700612165970302
0,0638833776277837
0,0645862530408667
0,0637019287267652
0,0635213528883312
0,061977973210183
0,0643888988770112
0,0546583060585839
0,0589590509848349
0,0577524774061963
0,066380296944486
0,0646849993484059
0,0670918208535721
0,0653746623291731
0,0626541546653857
0,0582287685376736
0,0653473059006613
0,0535931931796329
0,0591853437171709
0,0583784502508563
0,0571854147539096
0,0525030874900888
0,0629409146201018
0,0584732115330602
0,0617806548831461
0,0566958812476817
0,060825187692212
0,0571518284841157
0,0623306798604809
0,0590543498630788
0,0595287225884053
0,0559641386273353
0,0596241102350433
0,0506576631996783
0,0586339586974629
0,0551527253129841
0,0589274840294199
0,05638565667341
0,0592526238775172
0,0578536713053322
0,057186556785121
0,0578740408151477
0,0623690294164586
0,0562448445600968
0,0581446558816061
0,054750584170066
0,0542019893361633
0,0506533198615482
0,0551109233117876
0,0551150632677939
0,0564600254585663
0,051834940454566
0,0558970488171002
0,0559327624187907
0,0584346345486079
0,0524825387505579
0,0563561257274116
0,055166035766264
0,0565172159787772
0,0512372658095901
0,0559302919455929
0,0485451892923709
0,0544955291824453
0,0503038406369593
0,0547679189023613
0,0502520107815713
0,0560412219444829
0,0554842069033019
0,0577273435745742
0,0530442193947356
0,0591479623334373
0,0519767219091267
0,0508023699715923
0,0526168760640219
0,0505079438020153
0,05225941243143
0,0558192972125765
0,0454722639858103
0,0533054692240202
0,0506540714875563
0,0552864394993317
0,0516609077709459
0,0579136069281578
0,0529369095698155
0,055395968761112
0,0497296163325539
0,0559838265703689
0,0489039388310536
0,053373468993484
0,0471235094021839
0,0482133623751702
0,046178369851237
0,0493026229643876
0,0478243504651105
0,0527716737198277
0,0499184732562691
0,0557097374577868
0,0531116697394699
0,0531848432787275
0,0485990357011964
0,0541915480673052
0,0485850549457184
0,0513615537555152
0,04619148469362
0,0493255367509756
0,0462273074493757
0,0488289842365678
0,0473467571533179
0,0515680724290695
0,0495689433670492
0,0527641370837077
0,0478860194251899
0,0508309311723175
0,0440280441454753
0,0511840240000142
0,0492872926705948
0,0470354671725479
0,0444000605959739
0,0456135357723904
0,0455348366213627
0,0505616777224499
0,0451446916395266
0,050168861594638
0,0478969695136249
0,0499608703154606
0,0475989485690426
0,0517240917117921
0,0489004265806978
0,047613388846773
0,0407312692681375
0,0446823293671931
0,0421225578543969
0,0462885388585194
0,0441966415956078
0,0435513942040191
0,0458995639891323
0,0508908289424705
0,0444389491915976
0,048473707029624
0,0437062704060446
0,0520142621268701
0,0408557862705977
0,0442180312730706
0,0466942011672924
0,0444285842701249
0,0396972404346914
0,0448982161452898
0,040666858173212
0,0444648470987824
0,0388864565813533
0,0469168882303069
0,0423848194524026
0,0438334026996327
0,0443189079271121
0,0469478067809869
0,0436051756098027
0,0444988241150415
0,0423126750565733
0,0416643523029069
0,0378372304027752
0,0417670923865317
0,0411041114511693
0,0429048700508515
0,0420669450032422
0,0433412211620532
0,0414947961925824
0,0425207728336225
0,0405898051885134
0,0414394296220169
0,0395989519135023
0,0423140169231892
0,0401073422705268
0,0420772960042483
0,0346812900879543
0,0379868646189384
0,0342130096074586
0,0383646963597981
0,0376892101809048
0,0414667150815903
0,0405130766822585
0,0425596151353903
0,0360768868276442
0,0377223158113776
0,0372264236310538
0,0411972580069085
0,0355658470795243
0,0353907425708421
0,0354463058864024
0,036450747002906
0,0326236712592234
0,0359163085590813
0,0329893385194858
0,0402050230910784
0,042571200640555
0,0402025932768885
0,0380987994621321
0,0390973849930986
0,0355369549975041
0,0373754394428758
0,0321576720407505
0,0387037686298768
0,0357225130286689
0,0332879419351001
0,030849562242001
0,0315035361251976
0,0342502157628342
0,0368049379588408
0,0334855801482845
0,0383315350668904
0,0326224713541856
0,0370699265296155
0,0343705466584301
0,0346813632637406
0,0352816343758735
0,0382481379240816
0,0336695961271698
0,0358419710994633
0,0347987383915544
0,0350918872072925
0,0338602833123116
0,0383635413221138
0,0351141555067543
0,038142344265447
0,0388336346527062
0,0372984347670484
0,0309524614160131
0,0331789263659858
0,030035962827272
0,0349696776690796
0,0328656723175625
0,0333397048627203
0,032271529400857
0,0329492534767497
0,0266577121430133
0,0350626357384713
0,0321655515647119
0,0340574939554481
0,0357424064601395
0,0368967471226597
0,0340582973891399
0,0336677140285941
0,0279071700678283
0,0314584754842013
0,030580708562563
0,0335862381084337
0,0318094850035984
0,0312009475787402
0,0294515676812157
0,0339624025751154
0,0345708048031244
0,0358708445364012
0,0299815406821232
0,0353706900822302
0,031970244591268
0,0312124637891895
0,0289100607690973
0,0328189676481699
0,0310934840331404
0,0299158426703065
0,0314267438286186
0,0344858563517692
0,0331908565969066
0,032325885240144
0,0281254126861981
0,031889949929303
0,0322989711419664
0,0331914591315734
0,0319342740569411
0,0326715342621228
0,0282715700553453
0,0305108269918667
0,026581844496249
0,0252618637919938
0,029845594640949
0,0320365904960113
0,0326262744235126
0,0333399282820311
0,0301076302239427
0,0335990642082079
0,0304467961180017
0,0322024288282246
0,028659734488191
0,0324913797983083
0,0328046678824971
0,0316585743800185
0,023949026410463
0,0280728123441988
0,0301669280487386
0,0330861799452955
0,0286682505520197
0,0317583137190253
0,0306975183544196
0,03393414728456
0,029934565575891
0,0331090356595326
0,0304393108049611
0,0299148985198987
0,0258121831962859
0,0284482869970557
0,0282561217029255
0,0297622536461242
0,0292768772850626
0,028398068479965
0,0256245794236195
0,0302504984253339
0,0300543937486394
0,0338048561534425
0,0317796349558996
0,0299150825320037
0,0294996018860118
0,0280940914984776
0,0259400830809081
0,0294039070575723
0,029493617528544
0,0272183847311488
0,0250486415839438
0,0293382053418626
0,0263712741585906
0,0311903488951932
0,029303800460142
0,0312161514587731
0,0265747656811972
0,0329173940700165
0,0278187441307788
0,0288306992296213
0,0232108140687229
0,0268049335318559
0,0237505994040282
0,0310676068834975
0,0263966621448947
0,0279540295604219
0,0293564291799232
0,0293118144116122
0,0268076295469414
0,032243130518177
0,0322858117648606
0,0313688767413024
0,0258287140747891
0,0267204068266636
0,0212279038238119
0,0252440780367569
0,0260162227761027
0,0268169024777684
0,0278145772266968
0,0293143745499571
0,0234830479474565
0,0285035559930372
0,0267471448680045
0,0290332355111484
0,0285348930167487
0,0295735995958747
0,0290168378844739
0,0275177814261798
0,0237104259097774
0,0243082899891902
0,0205694959067449
0,0248016360417715
0,0244020409748013
0,0276757172497592
0,027438466407175
0,0313096303184518
0,0265201366458355
0,027784831378005
0,0253438761770893
0,0273521622376348
0,0250211841096428
0,0263703940920128
0,0233612772997157
0,0221203391244709
0,023253170622223
0,0233853731964522
0,0205248407428923
0,0249380663396745
0,0252405266314324
0,0281994254811456
0,0242129374202141
0,0256906242568558
0,026033803436547
0,0252749312112059
0,0251779060579945
0,0261989431380586
0,0202716469785042
0,0223245887071879
0,0217456205425039
0,0238612195110738
0,0218461300617194
0,0255858511350235
0,0245100213117411
0,0248428538089761
0,0224610860267281
0,0259890777235894
0,025480100352314
0,026119961458798
0,0229314043050567
0,0243910817549855
0,0236992001443177
0,0237507055477675
0,0242111287280883
0,0244647793005667
0,0210741228263617
0,0225878011309313
0,024167642044834
0,0245055502106964
0,024675908310846
0,0251692136467966
0,0210006634382334
0,0239928140331731
0,0208855570967228
0,0199782579312139
0,0197559554721864
0,0224934814557582
0,0204031178414049
0,0234323976809668
0,0222874363395379
0,0242503456068147
0,0222735299304364
0,0243957285470769
0,0216512915639013
0,0260033915618598
0,0228690212221023
0,0218343752715488
0,0242195485793338
0,0232510420827364
0,0186620893050599
0,0212223310441812
0,0205737712234169
0,022172069340435
0,021369610042759
0,0222158376527046
0,0238423756120449
0,0262418846824787
0,0225652379683062
0,0233516318470994
0,0224144895963075
0,0219384792502419
0,02130830121298
0,0210572207572963
0,0174632421703106
0,0181624869299478
0,0177122026081095
0,0210666437672332
0,0199877375033184
0,0233762002641667
0,0211438267724406
0,0234370347264878
0,0256348195263129
0,0236591675684765
0,0235122187519626
0,0247657401610604
0,0148139248104698
0,0222112460290747
0,0204286648428488
0,0199976404481956
0,0183632994512768
0,0188572252455441
0,0198326921205693
0,0204421178652224
0,0266724219611804
0,0253809906580441
0,0264226646484781
0,0248479355956335
0,0168366442611911
0,0147019934303477
0,0140678432662438
0,0195616603559104
0,0186766897087184
0,0199300539003711
0,0132883962972039
0,0100567976324399
0,0194661491350662
0,0227961792338348
0,0162707747071797
0,0181156472468661
0,0219251426495938
0,0209711369103126
0,0241238461398551
0,0183760298363709
0,0160266030153999
0,0154906853476841
0,0161706824449265
0,0215827467456449
0,0180251273619194
0,0229570006740474
0,020145148289057
0,0159091321790989
0,0186168970367399
0,025493073605336
0,0235366790080625
0,016719002888709
0,0233889522323934
0,0124410689204368
0,024701216438561
0,0127893574511722
0,0186191000256318
0,0140523406450071
0,0241836444356399
0,0155613562546577
0,0288577308603212
0,0123617855372042
0,0315745023487692
0,006170564484547
0,0241833509261061
0,0071065701387069
0,0397548520053098
0,0100492815464907
0,0362013507394112
-0,00918988014399385
0,0344368750517598
-0,00567458204963544
0,0455227399191925
-0,00402661431659561
0,0391288574057444
-0,0134108072843916
0,050607847338191
0,00148479192588016
0,0410908115447813
0,000202633560326461
0,0424822449120713
0,0033495808199293
0,0252387673982138
0,0176927922586881
0,0183320206155181
0,0161815779654757
0,0104955630343077
0,0283595787507812
0,0100170556198011
0,0365293316469007
0,0116774303892575
0,0288090944544108
0,010770794946521
0,0266955335991285
0,0187418596800704
0,0240978949056828
0,0172947829654423
0,0175307550462456
0,0164169071618599
0,0178354582358939
0,0145937402442246
0,0209531532319464
0,0163712169442775
0,0219778071133113
0,0177365660465641
0,0264732495121012
0,0233185849286358
0,0242741059805712
0,0201242908221652
0,0208958981354282
0,015658321968207
0,0169743536740931
0,014918013642303
0,0191369071491069
0,0168618856060893
0,0174224019196525
0,0133715470196475
0,0212819150875255
0,0204723462431052
0,0202162756495636
0,0205246764158064
0,0227206591926876
0,020862811400295
0,0224251729105875
0,0145243421461
0,0175320543272093
0,0166421741318382
0,0184613031117505
0,0168010841729898
0,0160135062984732
0,0170560328642565
0,018107976120792
0,0184167690943492
0,0236152775942609
0,0197136377251667
0,0244037922399764
0,0201947523083925
0,0207362350052784
0,0152048226054755
0,0209963231519995
0,017661925453693
0,018901658957381
0,0153047197428218
0,0210305511289994
0,0182035210799413
0,0182338040900286
0,0180595643423977
0,0202924595828885
0,0174819250356855
0,0245568903449163
0,0181416027334643
0,0214438735111429
0,0178544946484214
0,0223791127342292
0,0158080108951328
0,0191735300560585
0,0148372654192545
0,0199150239510736
0,0185402803039648
0,0220264699674905
0,0177053349597663
0,0236394714151701
0,0189880736019562
0,0180209475821648
0,0165414951779898
0,0205334493646218
0,0167660667660712
0,0207878911769279
0,0169860553683258
0,0166472690094853
0,0136696475391375
0,0197658153050533
0,0194411557646312
0,022285876410841
0,0211776696059443
0,0230793335206455
0,0196491742056562
0,0212830249618764
0,0179033146909051
0,020963602699676
0,0163458555653491
0,0174826110357612
0,0161745909949018
0,0199419294762908
0,0170265940799213
0,020619020574224
0,0175035877067243
0,020998438653213
0,0202744777990344
0,0245538365787476
0,0229428569792931
0,0228693977695224
0,0170940692449477
0,019138291106346
0,0174504654747021
0,0181766947575157
0,0163382910623816
0,0177551644136365
0,0161892582016089
0,0178620492756402
0,0198657139308536
0,0203174002148312
0,0172537389822367
0,022371957073004
0,0210067536382696
0,0244700676016894
0,0224289344414895
0,0213200144393476
0,0151864932643406
0,0188817283676221
0,0172569226963938
0,0174855986917897
0,0175563928041087
0,0214156636411069
0,0165760804487791
0,0206494719552859
0,0189442206261616
0,0216979520402006
0,0217009328146164
0,0255184103447717
0,0191731625332553
0,02131729810484
0,0176010903687474
0,0209597299751213
0,0169519492798637
0,0193436372479492
0,0166750060009518
0,020291481664455
0,0207372827605722
0,0223759769372373
0,0187533943487506
0,0200136819444923
0,016770372342364
0,0193002844027468
0,0201454531686787
0,0214746001384602
0,0180469392487751
0,0203946038655114
0,014130622078146
0,018896203158658
0,0191264592609898
0,0174439733787353
0,0200957527228569
0,0244567142859175
0,0214022711015536
0,0213764482146137
0,0198892860989016
0,0220802868445515
0,0162487331037639
0,0220166767455362
0,0189732313113393
0,0194742840591498
0,0179649832350561
0,0189537953677975
0,0160977004691532
0,0211477839539305
0,0197838095547882
0,0244643434924161
0,0221907034746623
0,0228377695471622
0,0185736997802093
0,0190107311363546
0,0183721395430135
0,0199471704299655
0,0166879123683274
0,0201332217704457
0,0174417220751204
0,0177007562262959
0,0160410726329194
0,0227861594317358
0,0203274781262791
0,0227422156161432
0,0215520646280695
0,0233307410823602
0,0193041808719368
0,0197849992965161
0,0159134302473104
0,0200660444691557
0,0157632928004816
0,0190166526951985
0,0179482116855796
0,0196140984269572
0,0180954297956161
0,0206743404768402
0,0186736495618918
0,0194958545520282
0,0205899844772397
0,0241615438900819
0,0220020564455697
0,0233231031245854
0,016140151086447
0,0195212150796755
0,0166055210643431
0,0142339025839113
0,0156897969156477
0,0181296882219699
0,0191672228573173
0,0190267558518399
0,0166349900810569
0,0218750251238718
0,0204967507318036
0,0217842553530288
0,022885355293653
0,0226397162233704
0,0200859434775503
0,0197557898008539
0,0176478140181394
0,0178073782275704
0,016227369166072
0,0200815040780387
0,0185010776420797
0,0200723561356904
0,0191118863646047
0,0217705599072231
0,0162765609711337
0,0227594559118814
0,0177083316915591
0,0199463798289391
0,0207686203557456
0,0210842836019213
0,0158189211258591
0,0180343840451124
0,0178754690859212
0,0196566896710199
0,0158267749437485
0,0192908690110833
0,0199288893348729
0,0192376142672883
0,0169663214162341
0,0199062187146854
0,0199293483504679
0,0196312913678299
0,01591510060048
0,018697800687611
0,0194850867673195
0,0204312129232948
0,0134217969522839
0,0163362159210676
0,0198590385349147
0,0231605241532416
0,0219034049399988
0,0215112682220054
0,0193376714585752
0,0188893282229311
0,0167678647864008
0,0204680580175451
0,0170282711351051
0,0177812855506994
0,0182832925144298
0,016770996302416
0,0130182984491078
0,0179445827069869
0,016924357603133
0,0221842978133665
0,0191395119075129
0,0209057151536763
0,0215507253006076
0,0237531826884076
0,016817300524622
0,0166767713423723
0,0148869109226115
0,014041300921417
0,0151529370929487
0,0197909533664438
0,018314407066407
0,0171158271361699
0,0145816930762424
0,0159617749077051
0,0193847723885974
0,0259170824165566
0,0216118546792724
0,0212379848223504
0,0187719484550834
0,0187630176550853
0,0144522945168103
0,0161741522128253
0,0148368295750551
0,0170630783832855
0,0169737057772761
0,0179392780926869
0,0147251185967041
0,0200003030297748
0,0171081691335817
0,0210796686368537
0,0178882124455893
0,0249822097946617
0,0204441507508473
0,0189877859934444
0,0140916324425306
0,0146198918808011
0,0163329481415462
0,0187331038966024
0,0147635799753419
0,0176332860978406
0,01516352145485
0,0175395034823267
0,0149639567831978
0,0200041372070659
0,0201131660156047
0,0223347071042523
0,0167105012108134
0,0182056562846983
0,0166809230033569
0,0186929941575935
0,0144148780436088
0,0165301079780457
0,0114781171329236
0,0184593228964692
0,0191784176855075
0,0183825393599046
0,0155426274573525
0,0172591496900598
0,013922551159939
0,0215927061841329
0,020325350123577
0,0225673896227105
0,0174961013075828
0,016797280980879
0,0140222912586039
0,0162690287151483
0,0149634266919578
0,0176540681539595
0,0148326238597003
0,0183310294050937
0,0162535436022697
0,016808414464385
0,0168400767591806
0,0185684975446059
0,0135972111191995
0,0224265799841583
0,0148131020260259
0,0167625208656876
0,0170116615481453
0,0169215609788687
0,0147903645904071
0,0170741734468165
0,0182086506909653
0,0208708693314154
0,018487794442983
0,0175564676283028
0,0149896934491187
0,0158229498987758
0,0170008657648141
0,0167812204377132
0,0164921233285773
0,0135053931473292
0,0156005481084279
0,0165607591455609
0,0156725896134134
0,0159822445885948
0,0154043169095044
0,0205018253655726
0,0192591763076683
0,0175540106655953
0,015106733731221
0,0207499409193905
0,016161874934397
0,0162035283915512
0,0167442324932241
0,013234987913144
0,0153566370840449
0,0132310750613533
0,0139767453700647
0,0166565301263161
0,0169888448219118
0,0189117428866116
0,0175251859436021
0,01888490207615
0,0178526128602493
0,0180016150390105
0,0160827421812473
0,0177900898853542
0,0160150479423709
0,015494968687748
0,0121034667188989
0,0131729018995512
0,0148481926899504
0,0135947373742839
0,0151709898117848
0,0164706917225648
0,0174685681635767
0,0176011921325149
0,0183533168314896
0,020924724701488
0,0177541529456063
0,0224408647130449
0,0149627433136862
0,0164744291410609
0,00912776092992089
0,0170915891716801
0,0130353717564846
0,0141220175741856
0,0123404463313794
0,0187784208650219
0,0159644107813394
0,0193041929920722
0,0154319806795282
0,0204003816981894
0,0159763431061079
0,0178296355089238
0,0128205809367691
0,015918892950073
0,0150495736362078
0,0172431266130551
0,0164730852835982
0,0182777889329144
0,0166703443897325
0,0175921922529562
0,0150160515708389
0,0228411852057026
0,00984241306362426
0,0286182561576392
0,0105907234557468
0,0202025461692231
0,013621241899115
0,0175580179671105
0,0138167852743487
0,0159870581306654
0,0143940780908716
0,0181135972341721
0,0186865135157934
0,0143661878701252
0,0160675890698698
0,0166054915430337
0,0177952136927378
0,019060788365734
0,0138721624098607
0,0177121762634264
0,0136333629622277
0,0155330478606105
0,0136214135329478
0,0190279292845367
0,0120173085298384
0,0171357191095163
0,01194922247075
0,019370990314332
0,0171987028705817
0,0204786132369458
0,018100999597357
0,0186123471145186
0,0172134905523717
0,0147547392263377
0,0199707690887819
0,012976388123718
0,0120528690376226
0,0110100415937607
0,0169349588192152
0,0147499275087742
0,018112108014426
0,0163838042019417
0,0156264133571433
0,015660420942143
0,0171261771078394
0,0160004649336303
0,0174494878371204
0,0179165924751597
0,0147663968054969
0,013765711872464
0,0110118465967725
0,0144423140935868
0,00962768036195022
0,0216508861027826
0,0168998017257667
0,0282271126965602
0,0199172005495263
0,0234707746481747
0,0173963809042216
0,0195654076616411
0,0183706668318062
0,0165320119707969
0,015206083155724
0,0137743458191551
0,0129755421105775
0,0108656378163667
0,0132633803119044
0,0111051267893623
0,0176906379360479
0,0171797232439716
0,0160662424358391
0,0125230602086976
0,0198317106375944
0,0170293858657202
0,0216406162453789
0,0136867736898478
0,0195335797487134
0,013409370515166
0,0199693766469532
0,00663222053809635
0,0212355240771072
0,00522557024190152
0,0303159595833303
0,0216629914153464
0,0167752075066119
0,0188696087312627
0,0151986647201575
0,0189944032532631
0,0150545939569686
0,0185755203198141
0,0174592988591745
0,018088550994831
0,0161531600409444
0,0173727263905877
0,0118055453708211
0,0140523649360205
0,0130668373166493
0,021297551492621
0,0270181001922134
0,0175515628731207
0,0181600541909693
0,0187214004128687
0,0151619757700495
0,0250045109517413
0,0112610990278468
0,0191006346367709
0,0102659215234435
0,019977653773661
0,0128113016759862
0,0178174100173501
0,0161897181803198
0,0183123274783357
0,0165150802790505
0,0206532640817003
0,016573389277445
0,0157324228567507
0,0171817808122378
0,0154688362538553
0,013184587415507
0,0198670684882957
0,0118707289843394
0,0195617916536133
0,0144350863749063
0,0185406489478292
0,0150754236486572
0,0208255376975193
0,0190230285263098
0,0163267024131979
0,0210731986495458
0,0220217087899185
0,0220446296913863
0,0180064652677992
0,0124815629361735
0,0213070448896607
0,00955371232535099
0,0208194315189846
0,00618820311523812
0,023137860845048
0,0275525194125979
0,0174538211616228
0,027432195394487
0,0135753197835749
0,0245543135411527
0,0130979905416618
0,0273612916999824
0,00996647144639829
0,0296479937754236
0,00668951262397284
0,0207019076763941
0,00495415290646786
0,0206172808833403
0,0191393522765434
0,0233349399177648
0,0168981053042334
0,0205589511025951
0,0149886175376165
0,020709688167308
0,0191919238160701
0,0222764214292748
0,0301493658245258
0,0159037887142917
0,0217990309957245
0,0153039483080877
0,00951122398104751
0,0271878261991758
0,00993680429017342
0,0215641032501526
0,018178739795567
0,0282638294477038
0,0203920796280359
0,0256385620716409
0,0303043077406163
0,0137105999371698
0,018512020280306
0,0238990509691741
0,0168735131675796
0,0311660782009294
0,0132823246955879
0,015916214421573
0,00854713521590373
0,0277799210604324
0,00501589154598093
0,0429552647342857
0,0179075803223587
0,0293128284384917
0,0284774426257459
0,0255290469265299
0,0222397677785016
0,0154651524061478
0,0255765209346801
0,0221677189956252
0,0223754681746489
0,0207658930579917
0,0156999608245955
0,0210774304908511
0,0302584310802266
0,0144464701319699
0,0301373074138338
0,0209925470420312
0,0254861523228089
0,0366201719268422
0,0341225694620457
0,0243539743483914
0,0265267719752853
0,0244271366735594
0,031494533547866
0,0200958369161532
0,0266040604380119
0,0209453401936437
0,0223190711228647
0,0282932104053124
0,0277097843875161
0,0297916428731075
0,0247265998405353
0,0280741725630897
0,0199032742197744
0,0200132889646151
0,0320017933194232
0,0201983227358907
0,0386285834477606
0,0211326864433579
0,0486672330366809
0,0273356211894166
0,0314109728900041
0,0284137092026994
0,0344346108445989
0,0313459463639976
0,027913269579046
0,0325008796698321
0,0255193237423146
0,0305775653530908
0,0254327959996609
0,0287553055641117
0,0399163699732106
0,0169080755389635
0,043068385838418
-0,00291111166349199
0,0826515147067659
0,0242978341310789
0,0577770401003757
0,0328324411057003
0,0654764248736746
0,0497451167943819
0,0406176753184765
0,0372105591256188
0,0428148703868671
0,0373621607253427
0,0447819848173918
0,0468077876711167
0,057241848865977
0,0450795948342374
0,0599095239392338
0,0417613147682075
0,0868415609065291
0,0761292920471087
0,0743809344913324
0,0646339899470748
0,0649465651892842
0,0698558169623025
0,0735606104602402
0,0604560042363978
0,0697076266975564
0,0541739425504932
0,0697046692288295
0,0860880889523037
0,0683522725887693
0,0925448981537464
0,0759960526607228
0,104419877571366
0,0511193312644542
0,111448924832196
0,0836242887177046
0,0948494427882486
0,0874078401129705
0,0908494347040055
0,0921338898336623
0,0886732468418043
0,106371410248361
0,0923585632242172
0,0998582793987532
0,103787202289619
0,105512311340525
0,102805341229461
0,101206959258745
0,101123295888072
0,0906307458714632
0,123596884842819
0,0667948346956285
0,129775803979688
0,107128414526769
0,107078422154842
0,107520564321057
0,0995275939499305
0,126688772663759
0,0987602585437903
0,122651195288324
0,107897071219715
0,106001536564337
0,106009294107735
0,0945133156391106
0,0973945712405798
0,0853181670801223
0,110571097213444
0,0848941160194005
0,118087274167573
0,0962026747039641
0,129893804600929
0,111371473942798
0,0990792992239747
0,101076895540723
0,0986308689051336
0,100662400494226
0,0983842054117512
0,0893099331599478
0,0901435333102615
0,0972707878012233
0,0768145893095845
0,0988389337528151
0,0895239945559267
0,11511415303611
0,0938357974471206
0,0850707186914527
0,0928962799506895
0,0808752464780773
0,0984538696032641
0,0824228816854541
0,0842564441741761
0,0950526941626413
0,0691286081214253
0,074202555314655
0,070781101339513
0,078377917627721
0,0773635032779258
0,0807491584879257
0,0811116034259355
0,0825086456393288
0,0783494744785532
0,0842647107466396
0,0642875391763851
0,0780888074996473
0,0730817143502113
0,0782590411723595
0,0719431416192136
0,077252439840659
0,0652655133709571
0,0704091869344739
0,0672650910240019
0,0677609730065769
0,0783296629273652
0,0877424791679175
0,0795516669391788
0,0807434838133592
0,0726107756800489
0,0747978073810444
0,0720993388352807
0,0751433845126475
0,067171161020193
0,06781981681741
0,0678660588638498
0,0712359550233453
0,0630982976191793
0,0689907054026075
0,0704659285145761
0,0726821414506434
0,0708881696789272
0,0704288598361172
0,0720808590391755
0,0622912838175734
0,0804239444190086
0,050153529974045
0,0882230938639855
0,0710445012784905
0,0700565055294564
0,0720962556452981
0,0602675356403114
0,076036740247323
0,0572745737953457
0,0899064612993679
0,0716361975641046
0,0715722919796384
0,0704305593965213
0,0670774022300566
0,0670158129515299
0,0741417080445852
0,0557139485543819
0,070245320347464
0,0258688933343999
0,116847848597459
0,0714188418109337
0,107762762757144
0,0762199831318074
0,0673010675482563
0,0720200019145696
0,0742305140959991
0,0822487482967412
0,0540813570414448
0,0744934662239022
0,0497473989226767
0,0656663856164075
0,0652537760230891
0,0598314976565693
0,0656780479717906
0,0616837971021868
0,0708574470412042
0,0721066864179696
0,0713237300658866
0,0800815733364674
0,0818797399637608
0,0756025685622399
0,102261674081513
0,0749392881387742
0,0670266109719916
0,0535563602600536
0,0571387459743288
0,0597782618202395
0,0588357966379198
0,0714715101577259
0,0588112356678748
0,067598924045628
0,0582481143053807
0,060097671900587
0,0688647407066853
0,061156586718472
0,0661839776720628
0,0452770030569503
0,0674891614419836
0,0337431852637387
0,0694553843368371
0,0572267900343927
0,0750465110148494
0,0515998324990135
0,0596513128879224
0,0543673275354342
0,0675260635923023
0,0675825207636904
0,0582343575665576
0,0564060881881617
0,0559655946366645
0,0494847586647258
0,0567094661690329
0,042484533457686
0,0560728989893167
0,0474149878486427
0,0462575362921321
0,0742801921615574
0,0653507699260893
0,059476733503569
0,0537822271513266
0,0459208401747036
0,0562070823808901
0,0409013676891717
0,0579765129923634
0,0235255514627526
0,0546192170932501
0,0464459372110734
0,0344131601843084
0,057454274836661
0,0492331835173163
0,0431587306916776
0,0496500642609016
0,0486338924063041
0,0668110619662687
0,0665709679144677
0,0642519111300868
0,0491841202881917
0,0533708747032089
0,0602216020079385
0,0506525411024767
0,0545586928990296
0,0525465453865483
0,0562888947690851
0,052750245837964
0,06114390283457
0,0607155922302048
0,0550407053551767
0,0662704917472205
0,0694869904520011
0,0652552163073875
0,0742680938125092
0,0438739645801086
0,0933201190132425
0,063336379944459
0,0842646229571097
0,06916244811998
0,0730257835824529
0,0759711259405416
0,0724658557628996
0,0782891083173303
0,0869778561367843
0,0842139859591013
0,0914962191279971
0,0766974103837252
0,0880650992812567
0,0681918662068775
0,0903702701539913
0,0740352737648498
0,110734043552126
0,0610012588690124
0,101547095401144
0,0882424378446186
0,0899505754581007
0,0959984893029629
0,0921942288365801
0,0998562939131939
0,0902806742151946
0,0876115696282186
0,0952108214417213
0,0892258978147593
0,0915991242947367
0,08380263230244
0,0870519528749759
0,0842373607516645
0,084668959230927
0,0900023846727627
0,0934428579403957
0,096489126559506
0,0964961755811163
0,0943041010206331
0,108218799637415
0,0949513087119967
0,112595657633498
0,0910540845443415
0,101234800909152
0,0965937003170956
0,0966897662728616
0,0936054814162618
0,0910943349093252
0,100768190669269
0,0996640822153152
0,103035101518869
0,105135734305657
0,105833875302703
0,117586194929575
0,100417778549407
0,117395649109025
0,09437001757636
0,108758660649852
0,0760841045849592
0,117987613559973
0,108629428488855
0,105416916045155
0,114666316754067
0,103532911652073
0,106678577878128
0,105479117517526
0,109514399299366
0,106075753999211
0,112166269674329
0,109696026990123
0,107767167319994
0,102008490879143
0,104299730520473
0,10583371651008
0,107363522418101
0,109941864336386
0,103294036260725
0,108382435437729
0,10125383003784
0,11318790735259
0,107813627163213
0,117403015810894
0,105135939040954
0,101106634060023
0,110281020957297
0,107399010686082
0,100950411872931
0,105087984379802
0,100362266816976
0,10488793623304
0,10201934185154
0,109384841686314
0,101115227533909
0,10029809143118
0,115307986639744
0,107319213294691
0,111211547066536
0,102954163462942
0,10522767421495
0,103043791637572
0,112818643412117
0,106208367993767
0,107899237587543
0,103652903541559
0,108848160551071
0,106373962983932
0,115719220276221
0,113254392888856
0,115451545939772
0,111512910513683
0,102982339707454
0,101165463167747
0,104780513889325
0,10852756252329
0,103632467817851
0,100827357026167
0,10177407742017
0,0936258462263854
0,106364015349567
0,100271051904018
0,114362065402045
0,0992524460942195
0,112420586605318
0,0991330550392612
0,101690911968864
0,0893177123316036
0,0950988386654621
0,0909515908933765
0,0898298408697133
0,091537923609213
0,0916932213386369
0,0929754156874877
0,0897206951468346
0,0908233087529357
0,0977607435105766
0,0975767974145939
0,0947989299507138
0,0946313716054486
0,0960934071825237
0,0914242848341657
0,09276747130688
0,0877350544476538
0,0911528990150085
0,087525689987666
0,0965980104913029
0,0879081024900634
0,0897041007529941
0,0931919140946334
0,0942997110547705
0,0927523108893507
0,0933514802552508
0,095489184485513
0,0907313131427311
0,0934649373773811
0,0910266111210883
0,0887618856397272
0,0855972958947323
0,0924301231065284
0,0884308721447894
0,0872590143473596
0,0892697018066576
0,0872568646240055
0,0849254352625187
0,0891713943813153
0,0892593054739552
0,0942670714517089
0,091217173975257
0,0903949050684047
0,0875930154119565
0,0883871407528125
0,088216015597711
0,0814086232517208
0,0888628319609848
0,0966357876502959
0,0889261191449424
0,0880525351994645
0,0900848431970433
0,0832308507116135
0,089286274919372
0,088967342698749
0,0887108350355108
0,087645549321043
0,0853184661912752
0,0817726277998959
0,0828365762893294
0,0833920973937381
0,0818333691502525
0,0830701745024409
0,0826254864381067
0,0839173040084665
0,0836345004133025
0,0850324068286547
0,0829111749645829
0,077489969123512
0,0826140898764906
0,0786354124916385
0,0759897316713061
0,072211659075983
0,0721184241842353
0,0737010046922798
0,0744780586685929
0,0770649146407413
0,0776312386994014
0,0781926540459107
0,0791179361621373
0,0719716093222993
0,0741681371930507
0,0793020815523275
0,0757575037395629
0,0772469870313692
0,0771783710840211
0,0738722075947855
0,0726672322412179
0,0723355547955003
0,0768269925969328
0,0758216721655117
0,077834450863792
0,0811775500053104
0,0841556342556053
0,0789926634025887
0,0820125450768086
0,0788002509779518
0,0783221911771413
0,0774349202093885
0,0787771961967428
0,0794898069864881
0,0777184033922408
0,0765571519136837
0,0767566171830634
0,0792442909470452
0,0829471720947813
0,0781880050754795
0,082760905708434
0,082971863637735
0,0810545266478066
0,0837320373347572
0,0820150849510714
0,0745738095116692
0,0780337106181475
0,0789530106231747
0,0761082504923101
0,0773678458181063
0,0783548382409544
0,0777847822010516
0,0803521120870068
0,0810958049904991
0,0815456509637135
0,0821533445783365
0,0812539959687099
0,0786736115536205
0,0754762217701396
0,07868994060184
0,0788906787445984
0,0750440253611674
0,0730465425706409
0,072226584645348
0,0742604717310857
0,0740561808362264
0,0724074041998534
0,0743330727167939
0,0780783907736796
0,0738046967533059
0,0741836562996828
0,073533229756128
0,0779302582992219
0,0746946697914197
0,0716786807901894
0,0707672352107761
0,0735950634018846
0,0717169933455753
0,0702065549640198
0,0718840597635001
0,0712819169987941
0,0689509705923846
0,0730111600351649
0,0676104299291923
0,069377727364938
0,0691852688888134
0,0671523895676007
0,0677200267080467
0,0676946487314523
0,064811901453574
0,0674825279926666
0,066169844806985
0,0643325878106873
0,0699423239997293
0,0705753083640789
0,0687556276130124
0,0668747389468298
0,0663266977247177
0,0655566581538273
0,0667761587180964
0,067393195281125
0,0649478534374434
0,0644464977703657
0,0616833168412609
0,0611729782940379
0,0619125942776886
0,0671791223558311
0,0631155240765567
0,0645344253927196
0,0645513010591079
0,0667623875080056
0,0648891837136892
0,0625756459654742
0,0626375369864794
0,059253919448355
0,0580420294213358
0,0578564709051799
0,0584877838637171
0,0558852207860238
0,0591187638270723
0,0599035608120763
0,0611351924228012
0,0665158737095631
0,0645463451168999
0,0716699205677357
0,0721191875794192
0,0759480442750102
0,0747457106912088
0,0802632258777358
0,0853345509783573
0,0852597493227336
0,0886271097593901
0,0934044216701394
0,0937561204103458
0,0975895883984861
0,103293128106431
0,107537276309379
0,113152423088022
0,118980590647853
0,123010402444234
0,126246679484564
0,12792028095623
0,132048108628922
0,131885000256446
0,139217002656347
0,143702837884744
0,146844999958625
0,149155225555352
0,149670952500508
0,152884297006638
0,157239827464258
0,15741077853132
0,160682532021884
0,160406191516713
0,162807323990923
0,165503672963958
0,165182011097042
0,161002056960862
0,160397413786199
0,159207039523039
0,159183719258576
0,15822577750874
0,161072831375917
0,160419063680792
0,158935211839576
0,15920255246398
0,162854408094946
0,161045492596568
0,160959454951001
0,159721231101226
0,157992545267471
0,162326899112528
0,159006973387794
0,162842592672328
0,161821460909304
0,160313004656246
0,161050830981134
0,165109724983276
0,169846344333802
0,172631083013933
0,174317038351992
0,177523123398426
0,182812101777217
0,182303004530528
0,185198504785485
0,187042621916336
0,182875891085025
0,184267730186444
0,19089103549641
0,194493475043395
0,192939540066451
0,193242368715807
0,197936944894194
0,193952996037733
0,19746393076546
0,195493045335121
0,19545553034854
0,195571915675611
0,196637851687319
0,190718885860481
0,194865998262293
0,195577345844152
0,194166963689881
0,194052522369455
0,19732392479386
0,2020884345172
0,205259376894698
0,210002617490628
0,211860323943494
0,213841646893267
0,215153382976893
0,217257698394495
0,220974108170187
0,222936502614575
0,223452450545289
0,230993151315487
0,229822735738949
0,236057759029108
0,238983013681723
0,245294564429118
0,247733494088013
0,249347245846455
0,260099718048911
0,269311239504198
0,269663749566744
0,272518456621527
0,27282016247773
0,279897724166939
0,281749654858583
0,291399067342415
0,295762544181182
0,300008929455359
0,303537221776413
0,305172309397616
0,307391200592412
0,308803966140333
0,31588433250954
0,310484829330215
0,317359850466648
0,316414544146015
0,309906750931401
0,309813270178838
0,308352661751125
0,301099998462598
0,301579190377524
0,300942117123526
0,298453146742293
0,296116733470275
0,294697355347842
0,296288900220783
0,296670200440882
0,295821577412354
0,293995269627209
0,292865734514255
0,292921982860714
0,290462266062663
0,290777642262903
0,293250311243819
0,299272135156294
0,304078686447632
0,30181678203265
0,30728522835331
0,311616747194655
0,310558376751118
0,311420709608359
0,317548390541876
0,321199055337875
0,327810571514137
0,3291926535127
0,322280588380592
0,322589210279936
0,319722073021508
0,320433547351811
0,324626416126403
0,327392219919696
0,328674364446074
0,330579571851916
0,332300949929868
0,328440749457916
0,324554244830093
0,329142787752252
0,329417242898772
0,325082724788429
0,326527932312768
0,325790245804274
0,325903968009329
0,320404802747634
0,316001701586003
0,322936875257548
0,316164413480473
0,316694456481376
0,314633164397605
0,312423902144005
0,312578641381116
0,301931552525857
0,297653971015951
0,295758633421052
0,283510709351817
0,278294941886693
0,269649317534996
0,2612509006159
0,254586449026456
0,246039728375582
0,235589832490524
0,232898041027748
0,226054092555445
0,215996769014062
0,203898974723391
0,196692373901408
0,185753499497937
0,179959751417564
0,182425594848021
0,180446499936848
0,167395931907096
0,170771710465028
0,163558988415072
0,159009846061648
0,160891817832563
0,168550728482064
0,167153960265411
0,159024064166736
0,156967144534005
0,153671285550347
0,149824553329599
0,146946146725542
0,13683841648363
0,132498454668154
0,138888294070316
0,129129506934902
0,129620291949543
0,130748169325041
0,118957473095799
0,118288615263144
0,117317287207978
0,116468264778116
0,109205260351603
0,106298552572003
0,0999824539706904
0,0885615453987293
0,0861087475787565
0,0809569498477295
0,0771627909037412
0,0761957397598714
0,0687169210701309
0,0659764931245604
0,0725238219667168
0,0673893770733099
0,0601351286065322
0,061635275080234
0,0606105636147648
0,0582057174376542
0,056309493175964
0,0561811360847347
0,0564468875522521
0,0443686621571961
0,0389441665236488
0,0433175952606322
0,0465905790176516
0,0492855318141516
0,0473046909064976
0,0458276049517228
0,0464688627868949
0,0433142211198498
0,0453484225372707
0,0511893617704304
0,0498721710978252
0,0437041450991223
0,0414491061402307
0,0450995995116598
0,0384125737213997
0,042153647710456
0,0538087147402962
0,053951829264408
0,0497816922475977
0,0546500635686497
0,0535441079797565
0,047835523050142
0,0478555183302974
0,0437805356777215
0,0536628700576885
0,0501529497883622
0,0474064914276792
0,0426809322060266
0,0450181409153569
0,0416253066817351
0,0369508010762225
0,0494578038862874
0,0569726125957664
0,051052519033045
0,0575358065958526
0,0575073152863298
0,0535983059292843
0,0548497378142341
0,047280945213663
0,0415625752601851
0,0479552838671497
0,0515973536400115
0,0528417600633218
0,0488837521545516
0,0480434001091435
0,0447870964373954
0,0479677519295117
0,0642786002125961
0,061406381617776
0,0576375036374521
0,0628566204962385
0,0561009745032733
0,0511777177877867
0,0548315792403747
0,055876899923422
0,0535133347950737
0,0518169184798428
0,0419935088806406
0,0542776747803453
0,0473595552686391
0,0527471330785229
0,0558854318404485
0,0577102136348198
0,0580661462485928
0,055847567651053
0,053110828284305
0,0604482535586945
0,0551159213129417
0,0538997864985749
0,0650985519320627
0,0655346216702033
0,0635656875690376
0,067789083017517
0,0680090261208868
0,0636449929569879
0,0709440428758613
0,0826131214707504
0,0762262155697663
0,0679165394789584
0,0724025718258178
0,0617630508829132
0,0632043315487449
0,0642072319159242
0,0510083800017018
0,0553259064934267
0,061132868565058
0,0594164581624464
0,0600400667408923
0,0671478692304286
0,06615892535535
0,0628555562907248
0,0652602073757905
0,0683451620398115
0,0647407997146913
0,0689897231820446
0,0622087641267659
0,049647254261102
0,0573655368294333
0,0468812049997927
0,0422879137252586
0,0477784976890773
0,0590472587934545
0,0632215304337909
0,0619634349672539
0,0709567069053162
0,0658047668059525
0,0468688507705376
0,0616830851801108
0,0600502663539519
0,0604607894456196
0,0694113823364809
0,0593003556406489
0,0501783818592843
0,0455537998438816
0,0507898386468155
0,0582174878915876
0,0556441388878459
0,0536466145045192
0,0579160188757447
0,0668197235798717
0,067911319158174
0,0439839146809937
0,0467805638704562
0,0544067827826348
0,0423530442314592
0,0537789744058159
0,0472599667303222
0,0567692196265968
0,0549142303740681
0,0525274749369493
0,0496945302845773
0,0608814048518258
0,0656776930985607
0,0585303348382587
0,0545268490202276
0,0489004675686976
0,0560223732834406
0,0372277025721958
0,0453717274677746
0,0503607278231662
0,0406332722446276
0,0508701969694517
0,0450944197168244
0,0504628323719871
0,0446478070158272
0,0582340987295649
0,0620676418868086
0,0685663856902738
0,0734579779545484
0,0672730647348182
0,0496181342045168
0,0269659882440923
0,0187573892270107
0,0363932597133443
0,0600625091725949
0,0539967594245408
0,0367045908810091
0,0454533445488621
0,0558252069819088
0,0479624723594671
0,0554172935579261
0,0669339386587013
0,0585341365334164
0,05638369267758
0,0750316806639502
0,0596266407146181
0,0436829848192624
0,0483452147031857
0,0260739312630728
0,040035119666066
0,0664941240860442
0,0684419225298413
0,0828400702639991
0,0669525237004075
0,0652461940874641
0,0534069668381563
0,0689952768944264
0,0780149168880356
0,0658598348463782
0,0600669938653013
0,0644746959752476
0,0457105224448739
0,0457364769589241
0,0856397959297269
0,0749667382838478
0,085285422319187
0,0819219935819943
0,089247227389019
0,118048621188818
0,107177700363296
0,0951460731625875
0,0756437029435685
0,0747986629527245
0,0777993920568481
0,0717459620956328
0,0644891222941651
0,07364196071071
0,0705961085343005
0,0662467670234936
0,0935778487875325
0,102062467161805
0,119313054007794
0,113556029482081
0,107262870073584
0,0975755652147628
0,0726103836413334
0,0840848456174185
0,0883483676113958
0,0733783649386569
0,0649561922259535
0,0744520873222807
0,0615770776614901
0,0588677732552048
0,0400519446578178
0,082024288928868
0,104852898160609
0,0994305490721023
0,127567245657827
0,114249106876871
0,0882709399733303
0,0594265515568264
0,0449366478420642
0,0638837968147775
0,093723905291537
0,101783523748694
0,0575769257266629
0,0709805087833798
0,0863364154090481
0,0226017196185397
0,0591424218210436
0,101689939599986
0,0960525081677403
0,114723672680037
0,102783990968326
0,0555473594722579
0,0157387281842884
0,0308042151269679
0,0570165039668797
0,074396700516022
0,111158729074702
0,104052999499817
0,108211748890338
0,0935915384679721
0,0615683931716432
0,068744669731027
0,12747724559981
0,122504854120909
0,0764886070593341
0,0885632270308483
0,0414670463454001
0,00776447144397748
-0,031109101542416
0,0657743970427236
0,105610249817053
0,104022371058795
0,128320020483468
0,13016892863257
0,124968515674008
0,102790018296023
0,150093912305795
0,108902019034055
0,128322853892703
0,0737446447994115
0,0724514434964084
0,0373623666095764
0,015899858670259
-0,0204316677318806
0,107685806661073
0,1159694549895
0,0809043539456768
0,134653610758479
0,176096330173251
0,0830142200377193
0,0745634882745733
0,113616758350658
0,176010406741934
0,126896927552467
0,136096550204724
0,0886123661076204
0,0817688213276024
0,0269930212767939
0,0179420188605826
0,0525772168076998
0,192723227085454
0,201941323136363
0,149532171161809
0,162429024399285
0,140869223208479
0,0677629759221213
0,0214563368233512
0,0557090220368558
0,031635552244476
0,125334766364687
0,145241682553555
0,130415665434384
0,0320021801166544
0,0611861549618936
0,0847397940917665
0,1258892627788
0,234263256621941
0,248301661355229
0,195885608145401
0,123543896266703
-0,0555924248882726
-0,0786289027681474
0,0857672278860686
0,0161308770856531
-0,0814944528532138
-0,0158607469059414
0,0968630233208001
0,139422444342895
0,132040154002877
0,208250115947312
0,224027211866319
0,168909294958702
0,185957661488605
0,247257464174918
0,249920793991624
0,270128063257056
-0,335449023731982
-0,136648992215994
0,0104650652308281
0,0673961878526964
0,16285834480015
0,07073102312263
-0,0999320221907834
0,0280441515063799
0,203834282996309
0,304606433355423
0,194546565607351
0,318416438516046
0,356413621462771
0,0368615725416888
-0,503470020453008
-0,78041600092451
-0,57659014999069
0,0503554592044761
0,565102196663724
