3596
4000,36533379555
650,420452594757
1
2
2
0,0266126687920367
0,0398698221075064
0,020322912168689
0,0377897024976571
0,0267125078545247
0,038433107450645
0,0215139319683231
0,0402009565618454
0,0196096825904737
0,0428262660226411
0,0223363493978259
0,0472360528282219
0,0259417091058019
0,0400681942954429
0,0283526796708699
0,0397075118852071
0,0179149245489238
0,0337574390988066
0,0273074345787189
0,0401303364876423
0,0208154771824748
0,0339737706147576
0,0274434515585331
0,0390280312829164
0,0290629563103037
0,0411531927502109
0,030110366709562
0,0389982866590211
0,0296903892773308
0,0393455146303473
0,0259691141656311
0,0447119043853451
0,0301923116458572
0,0366838942424573
0,0268215396529772
0,0409611674220589
0,0295598675117323
0,0380810619574683
0,0235273327875538
0,0394363625189762
0,028412335863468
0,0414134935915448
0,0276323421422802
0,0406846520799004
0,0260491893877821
0,0348893887967676
0,0347161723775263
0,0380972160551886
0,0281261777618286
0,0404747122231896
0,0302201331838269
0,0350982900251209
0,0358689430236496
0,0443976601972607
0,019409622890486
0,0494826949773546
0,0325939567801003
0,0405861367191014
0,0255136220691022
0,0389494757874589
0,0322928074226205
0,0469320620406647
0,0271980207463864
0,0410255560938175
0,0234748372049254
0,0347261517801852
0,0284093693437197
0,0439813441747869
0,025692903019746
0,0351811225829794
0,0234003704595718
0,0528574624089427
0,0362406462865661
0,0391608944969052
0,0315479757520033
0,0499595878358828
0,0285043703206598
0,0366387138021144
0,017340490407022
0,0406985971495443
0,0309991575638741
0,0455957471808806
0,0257382640201355
0,029657573807805
0,0196755982852072
0,05015088233236
0,0162295425531587
0,0409561117623151
0,0339731406317128
0,0515754473408268
0,0192835509628036
0,0431173024375436
0,0243163100991979
0,0445945343735438
0,0231704040010109
0,038390607234448
0,0268837816239944
0,042055963578985
0,0125900362608546
0,0401116219316441
0,0189286713777199
0,0554057535005483
0,0401503305736837
0,035521135605599
0,05636136599279
0,0419355258297504
0,0234299946542394
0,0646973653011358
0,040376876938678
0,0463174631862092
0,025014733663711
0,037544412910386
0,0263891662509592
0,049125999445296
0,00723945500369404
0,0453912232752869
0,0493501126342926
0,0540278004627642
0,0276688468606723
0,0324812046471164
-0,00299133502933424
0,0496966900277783
0,048626928867831
0,0490595322156622
0,0347223695726759
0,0390373344219413
0,00764577285522015
0,0691914438372521
0,0455773935356145
0,0491933631984314
0,0192037111830787
0,0451344227736361
0,00955749525481156
0,032255055022317
0,0592512605014038
0,0448368130870771
0,025286856590663
0,013852380489826
0,024662377666388
0,0826244698335103
0,0406384560794566
0,0483469078118261
0,00824583247134724
0,0388414426205332
0,0484945000124443
0,0515312370908984
0,0151795088412125
0,0555760830015598
0,0293066849547296
0,0402636611438673
0,0184029508621635
0,0325373288523875
0,0335975353467935
0,0431012620382972
-0,0185628887452895
0,100697927106186
0,0545314728584678
0,0832304655076093
0,0639228194428739
0,0516867713117791
0,028560027839191
0,039159447344192
0,0264976700392383
0,0350033841421253
0,0289986186035683
0,0255221193105492
0,0310221888638879
0,0546689509342273
0,0225319768664808
0,0336159219562679
0,0486496420467202
0,0369984317702285
0,0123426928554426
0,0947215705795615
0,0331223687144096
0,0388885885433101
0,0389079415143353
0,0557603541337169
0,0140967278516329
0,0411776487461493
0,0457071143097068
0,0478938879293496
0,0258161099453495
0,0330443410814719
0,0197138110278717
0,0493055191962457
0,0244455105603887
0,0391178668269844
0,0204268276337589
0,0225058652577663
0,0109624793829017
0,0764670388981669
0,0439140192925444
0,0482269603185643
0,0199526137023131
0,00628851809820056
0,0388048912398748
0,0581697586953912
0,0286513614348238
0,0384791350273002
0,0205985851779621
0,0413025073858409
0,0158479141506461
0,0451671545496614
0,0101183773263322
0,0186037405427263
0,0476856728867931
0,0517370235089559
0,0321319947971756
0,0390166453682615
0,0166111888812434
0,0176679363460527
0,060254592682073
0,0579125426606255
0,0340592572481553
0,0311859364505851
0,0147349051300928
0,0474290478134222
0,0364370778190337
0,0447802757126396
0,0270730011373088
0,0407242870320984
0,0237566824442106
0,0326909991002986
0,024157983547068
0,0377542628466597
0,0230529483419188
0,0368064611297835
0,0221717475486719
0,0379569258228773
0,0347236280898834
0,0400193379744779
0,0212346474078329
0,0426423896006066
0,0092735355476237
0,0415531927211143
0,0385826716753014
0,046955851813548
0,0256084452417489
0,0379460304880397
0,0228467982857339
0,0435356881945451
0,0213436248339667
0,0364233956679817
0,0134663750988498
0,0279803897529834
0,0466879691252584
0,0471098795952665
0,0276893421212797
0,0171135761197272
0,0361875537751143
0,0450666966565816
0,0371404777910769
0,030861493727628
0,0342884241005773
0,0237785267495221
0,0120397913189018
0,0617726853163485
0,0349095965475056
0,0236307323115357
0,0429259463298604
0,043164745333224
0,0320854066478434
0,0247191162083887
0,00536482137862164
0,0931954400009306
0,0344822998940204
0,024679797166557
0,0649161468281506
0,0555065391484612
0,037868397232776
0,0212646491366029
-0,0179965407213885
0,114001609277299
0,0782461369914417
0,0405751631777927
0,0283751036371283
0,0453392859899472
0,0276550963197964
0,0408482511073754
0,0231116146315223
0,0526443383491583
0,0242653739910397
0,0710777094308813
0,0702965953979316
0,0259733187461077
0,0404049063206261
0,0619478377645198
0,0378588908501338
0,0321963072281854
0,0276285605114852
0,0240260992783657
0,0371106709283415
0,0373310100286888
0,0448527637609804
0,0363044047804842
0,0223737440284663
0,0494977593524735
0,0420355755688536
0,0265478589392882
0,0340515161660278
0,0458585417372188
0,025620081894017
0,0353425158748354
0,0252781314824098
0,0517469130753131
0,0172018244109472
0,0156057851536552
0,0727728433363204
0,0401116692877279
0,0211428987119737
0,0575715928680609
0,0348167849820079
0,0406759855896618
0,0213383639566948
0,0365933252192961
0,0243536973195877
0,02971292777516
0,0144546065838521
0,0561818805653159
0,031903209257441
0,0370025339303947
0,0291623950388813
0,0399997009720793
0,0220578251384486
0,035665231432029
0,022229779268322
0,0418316047487551
0,0266081327143285
0,0205676895132314
0,0326711996250989
0,0583285458745904
0,000365976644092631
0,0626908845433706
0,055534316770805
0,0447120427885299
0,0237310040912922
0,0378337404203302
0,0293153154054991
0,0343570818716404
0,0297279855651661
0,0301813794433218
0,0195382315790817
0,050874766897417
0,0328582177237418
0,0342255355801886
0,0049165231481789
0,0689600488883604
0,0751550624951466
0,0585819226568864
0,0329305432910861
0,0181572868194319
0,044759929932113
0,0478983850855695
0,0528327483775453
0,0617313318924164
0,0271483503938098
0,0406934164828075
0,0267687140569376
0,0405048839864967
0,0272572536335402
0,0435417201778229
0,0270653195513641
0,042035749930484
0,0300866144428301
0,0480368886294207
0,0155171751264418
0,0363809370850803
0,0536447571919952
0,0576048962962783
0,0352370498273048
0,045156743300075
0,0115749054949036
0,0584660185630077
0,0313632049388062
0,0895805846276189
0,0434313934897707
0,0791692869721418
0,0723327282286085
0,0648919972590272
0,0385495614266006
0,0458177351044935
0,0387448163927095
0,0478723872518434
0,0356563463326318
0,051475461597568
0,0397563158659418
0,0514635118262368
0,0374913755168168
0,0524895562321191
0,0390438636703547
0,0448062492172435
0,0555041036697146
0,0572857844814398
0,0394193351785583
0,0406484048491148
0,0362779588827849
0,0839600698225238
0,0793825186984811
0,0675210119808995
0,0558077125505656
0,0562787392819176
0,0468433549885411
0,0558831330120394
0,0437289525764306
0,0533972181220418
0,0383726199872798
0,0822897218250443
0,0578664499028721
0,0867660697843817
0,0605173606478041
0,0654020589080816
0,0673833235964676
0,0707148480134974
0,0635067232381709
0,0931413213067813
0,0652199198033518
0,0541754030018716
0,0744713381376571
0,07559103906522
0,059183488572943
0,0914061111561972
0,0707308184220633
0,0673561603468348
0,0577990114986471
0,0769900179740164
0,0607389917109286
0,090460944459605
0,0682167624707603
0,0823612163409239
0,0668569306865638
0,0832694423435566
0,0655345648178656
0,0983166617331886
0,0708173621055693
0,0837484698885003
0,076988342828332
0,0899504977346736
0,073320506392045
0,0700239846790241
0,0810224406963865
0,0929947452912787
0,0902416236416138
0,119345413084669
0,0756424419194492
0,0934364797092912
0,0787216431140761
0,0938057761884215
0,0826644810008964
0,0999241478033588
0,0853472888885459
0,104309425463242
0,0821737376468683
0,105153002064741
0,0984073955913405
0,119471943058581
0,0977727867046115
0,110385045091148
0,0915200463571909
0,106557932882505
0,0944849063347887
0,103497997272972
0,107667220200265
0,128239103880007
0,108451600287001
0,145613089147356
0,108272708579706
0,127343181458901
0,105677920142004
0,116515589284194
0,102427728457062
0,137442344249707
0,11086300116953
0,127661739212629
0,108549785054433
0,129367972048902
0,0992061862441618
0,145721547207615
0,117600391450715
0,138876133383025
0,12378540963425
0,135723532025559
0,12286015792011
0,147749748634847
0,121157396645271
0,157933759143279
0,129615090766909
0,153851088853482
0,136949004211602
0,156220748221009
0,141436175552877
0,161119367728242
0,134445955423569
0,16483085945328
0,142827175471656
0,152647101182194
0,143144261033471
0,173254157680622
0,146902588195604
0,157607848561102
0,146898121999852
0,163763902633747
0,160417071411984
0,1688545051712
0,162238869333079
0,186276480206185
0,167968622602272
0,18855990163288
0,158412617953941
0,198384740263849
0,176928453822039
0,188541653795896
0,174519876408119
0,21171961359919
0,170130638800676
0,194195249994695
0,171782739911747
0,202880688432384
0,187092053579836
0,210220198132866
0,18188874192997
0,204302969082152
0,1891978103499
0,20953916945537
0,186556381779908
0,219995597036638
0,188838417839115
0,225825054860412
0,196484057595972
0,201103749223355
0,201928789302575
0,221765058247723
0,205173336244979
0,235001784716511
0,218832109569143
0,237183473659703
0,207653670930065
0,225882021934963
0,21244133698832
0,252625080656894
0,223379526721933
0,241146855633939
0,229131173728073
0,248153905496492
0,230632487641937
0,257518828081501
0,244164432947532
0,252365059316882
0,23326510454882
0,279097191394238
0,227366525618656
0,264659992073321
0,241808447963558
0,249986031473122
0,235027568031413
0,270991835191376
0,24077787300619
0,28114650124964
0,249803337772151
0,271956063523284
0,249747468573908
0,277341835435178
0,261317517899791
0,285133995935695
0,263167534385473
0,289442886378194
0,255896307264484
0,288264922202432
0,270942365031181
0,294420167117311
0,268135804675569
0,29607383264505
0,276619311676662
0,29373235866218
0,272883565748876
0,317985103208955
0,284298687906121
0,314790946704242
0,275939149692509
0,311358851413343
0,295846830129013
0,316058884731096
0,280108494259352
0,322043155066368
0,29579522229025
0,330566823269817
0,291914460058798
0,32737365802039
0,302635837147884
0,329920421426515
0,302673014166227
0,33489131984352
0,310955557638304
0,345719014175101
0,308607208058437
0,342120074417052
0,3171417171066
0,334617098216973
0,323351449903981
0,341983467983065
0,317663063391243
0,339413405543351
0,317621202245137
0,348758227132316
0,325021309367479
0,3555334910341
0,325462955175056
0,360365105911047
0,334709874698032
0,35895218828451
0,322431892860904
0,358727114389236
0,342643531524418
0,362583531476636
0,344685909369007
0,369751531411433
0,338619377791974
0,369081156119611
0,339541450845042
0,380869902871844
0,349363137164669
0,361509009112185
0,355855462933995
0,382280732187511
0,35056531988922
0,375798496175682
0,341943991043003
0,366822965961003
0,361321866601258
0,379364990986482
0,352542431197715
0,388424143160158
0,360968231153923
0,388624497644319
0,363261596498211
0,389243755730856
0,36348142492348
0,384588213374375
0,364151730917595
0,383003875368792
0,354679919301206
0,383496056261791
0,360441566288312
0,39061211496668
0,36416716679457
0,400508519774508
0,39298085825503
0,403882812633952
0,379720687769874
0,407756207569831
0,375670469759977
0,402464797917108
0,369718233511465
0,413932125141677
0,372057544255601
0,408474840989936
0,383057578399809
0,408472467751758
0,390045717219001
0,425389164240016
0,390122444407881
0,425213002847347
0,376106957766924
0,404160959510102
0,379848655622617
0,413139526342239
0,385801406198668
0,407964428392525
0,388857915826656
0,404521204822774
0,383042813369611
0,414611244429791
0,390030301148008
0,411391900016356
0,384820258104526
0,420220695582127
0,396628358539128
0,420826685512135
0,382425524756231
0,414479562949118
0,394711594789133
0,421429230418147
0,387351532049125
0,422868445049219
0,382245620888136
0,423396036138147
0,394872802669395
0,431712267819094
0,401717924509679
0,417365477984948
0,390773628196761
0,416490356305204
0,401285250805933
0,408559016734659
0,398629444112489
0,41473405942091
0,391941661539795
0,42173417091655
0,390810596604754
0,416618472740009
0,392457237828001
0,422309899766201
0,394991304740862
0,412504098235615
0,39931493927638
0,4200598858019
0,397461624404031
0,412409679374255
0,397378487135728
0,418570354933157
0,38784639881143
0,421025729352826
0,399158434037814
0,419814390581247
0,385993160278133
0,408920472014614
0,388565518013558
0,417187721254808
0,385440557261194
0,419913564006682
0,39667645194053
0,417413413965656
0,387920111348931
0,40690661734229
0,390090947180839
0,414587716655716
0,374760694783967
0,409050519942508
0,392271613847709
0,412606177407615
0,390054149101055
0,397898897739207
0,385405154850472
0,395219556590412
0,391224494878989
0,413157368496633
0,378729001657884
0,403371170725708
0,382823578289355
0,40581487226751
0,38347922334477
0,391047255021447
0,384620478821909
0,398020607041364
0,380425196767232
0,40636208038775
0,379844397535299
0,399260468474727
0,387712600106455
0,388893055904642
0,380846826016043
0,394535179027158
0,376431548992397
0,396247831791002
0,370114931292147
0,397019507594185
0,373177283404655
0,400687116077343
0,371121755586311
0,391958540692518
0,368108459946703
0,39090003613329
0,380231838351092
0,384648289775227
0,367267260103479
0,388530996611057
0,371210141670899
0,393530362215116
0,370591339308512
0,383434516674731
0,363733978608566
0,369831943318701
0,367673769466877
0,38087428530984
0,36170597934755
0,386235008955428
0,359308539161204
0,369918203110666
0,364234751906345
0,372623677183299
0,345172119187663
0,369957579376796
0,352488267611506
0,371013256443428
0,35770976907506
0,375897867601685
0,348184149467534
0,367724135289241
0,348026735213034
0,368737986502699
0,345060200505161
0,359894249750717
0,342969814671601
0,353960186162012
0,340738437302814
0,360311520084198
0,334984087228595
0,361701701967677
0,330757014629661
0,351254632625026
0,34797667153502
0,349413028877782
0,332243590961167
0,347083944263346
0,333552394784059
0,340234374226537
0,32759392134278
0,345058341779855
0,328874787628587
0,341420256148728
0,334264490279065
0,342833428603852
0,320275101000855
0,328280497754616
0,32588417167703
0,340334574888166
0,322485767360136
0,321410341119428
0,312294067437217
0,322070234411639
0,313180926450526
0,32245765629075
0,310670363811764
0,318402479111672
0,307370059913405
0,31882433837991
0,303351622222055
0,303385536820638
0,301954944679402
0,322046320364211
0,30109547266498
0,31011107341577
0,299073145100256
0,313584831794684
0,290028785323156
0,315352293433948
0,298209288461757
0,303209649350259
0,296770641517119
0,301244002676418
0,284340207056947
0,293001994788488
0,278823774790719
0,297774317677415
0,283649893517914
0,30099608145321
0,279493781362644
0,293191702570132
0,276189388835954
0,286772647325492
0,267900384735196
0,292253404828767
0,270634715443966
0,281429368501594
0,270332965002455
0,278953831404458
0,268371158746263
0,281236396066223
0,263305858211514
0,273479457036973
0,258323372450826
0,277725153181181
0,259585564029176
0,276781642132319
0,251905098190201
0,269143686833295
0,255326908332177
0,261548885336517
0,24915286064153
0,262424133134018
0,25465679093048
0,261952781303016
0,247291005583957
0,261523043623124
0,242744371337954
0,251091870392986
0,241522128689698
0,247898035831899
0,237781460453717
0,257122740062933
0,23022635427601
0,244939928081045
0,234681336162078
0,245936712427813
0,227576105138723
0,238137372405703
0,222170745683321
0,235574659746454
0,229414976987944
0,23338540434765
0,224596383468469
0,235956774242258
0,218365700172934
0,231499307889237
0,218858117048737
0,220816017444578
0,213869673276826
0,218040986281698
0,210273464618668
0,220815511301807
0,206599901909949
0,217529259214035
0,205281513637698
0,216587268326587
0,211172581511613
0,219996755493142
0,20011898458275
0,211822427605484
0,201474585937449
0,212613088415403
0,198210058711364
0,205303938790642
0,194542948573735
0,200367878476771
0,190030303496952
0,202927463111853
0,191420741831096
0,202803380940278
0,189612911471506
0,196786393040218
0,185323741873877
0,195394988967717
0,182019629009917
0,191202904412049
0,180337270832557
0,195414369997451
0,176235672297534
0,188825049660953
0,175210498722013
0,186318121154176
0,179715253926954
0,180704149803836
0,177008042144844
0,187064004307919
0,172703935166149
0,181921949001062
0,167471060001789
0,179255902574763
0,169809199103501
0,175380022540871
0,16691344001602
0,170353013013466
0,162303351102977
0,168734410431434
0,157060445085394
0,178768010562451
0,156484135446739
0,168685108446173
0,159936815878751
0,168150229797898
0,156790616206008
0,162594264637183
0,156751309420834
0,162290676022092
0,153504348161055
0,162033638170739
0,15572331640628
0,157843285485393
0,148744338827176
0,158873420452166
0,147725452766482
0,151726311014219
0,144648202638944
0,156236891653991
0,149472254519026
0,153768905437944
0,141148382959028
0,147508143142239
0,133534950160929
0,14243615143564
0,143316865187653
0,145091448094583
0,136516541417882
0,146415171574797
0,136762858000382
0,143894173393841
0,135624542774739
0,145194549264712
0,131837123009602
0,139654914723575
0,132622042497184
0,138101641831469
0,12987903036202
0,138845525998701
0,124546664145434
0,135087904066441
0,131498523032054
0,136594158470642
0,125129963485609
0,132253706074533
0,122747904387907
0,12947821909663
0,118788339175244
0,126609577217122
0,126062345005981
0,132277767251734
0,122201504997693
0,129168212959282
0,113817103604534
0,12653908029417
0,114253770156072
0,126025695139167
0,113047257979206
0,128199095509928
0,11280636377487
0,120794302861715
0,116671851793046
0,118068782950367
0,115211355747234
0,117435331461434
0,107582552532186
0,120434755333855
0,109227271557985
0,115909363882325
0,112503875130026
0,110800783255747
0,107697427058966
0,113397769789823
0,106722309333099
0,116274558746239
0,104984603746166
0,113852281964371
0,1060569121159
0,111172146193606
0,10421580155415
0,106473032838832
0,0991686488202281
0,107394321995465
0,102207283818667
0,104592318250876
0,0981974009921421
0,110073287978467
0,0975347244238789
0,103563622401521
0,0987719403400641
0,105771723686517
0,0938369444582538
0,106748506702752
0,0976369225092442
0,0965033341648968
0,0911868831417107
0,0997319686895971
0,0881369609278811
0,0980697801435021
0,0949028391952645
0,0960659722572939
0,0895342203861683
0,100119512843063
0,0876370476832297
0,0939199656601165
0,0912531968583212
0,0969887444026484
0,0874068793089456
0,0975334083177153
0,0863476972909546
0,0924744338857514
0,0842895793768991
0,0902227352621024
0,0833541223499715
0,0917837770802361
0,0865284298435837
0,0890770255078036
0,0797363621474697
0,0940502574623151
0,0811373443579972
0,0895727184708206
0,0830169475179706
0,0925475773124744
0,0862558962125189
0,092789970670164
0,0816414074371574
0,0886708157051013
0,0822326089172409
0,0896618353107897
0,082169245918919
0,0909474064087605
0,0828450513005886
0,0844530070809191
0,0806836620957948
0,0902064752630665
0,0825221453866924
0,0865808133060506
0,0827637982841308
0,092270841659545
0,0811171452936174
0,0879816711816742
0,0844229194433331
0,0923826626806043
0,0854640654052567
0,090682243213519
0,0855504688709401
0,0898445101928971
0,0853610597350185
0,0907737537355625
0,0855198557383505
0,0877404149947725
0,0873961664828296
0,0931936827684633
0,0888279025049342
0,0954059947932491
0,090941234189964
0,0907979765719045
0,0880567841543687
0,0932516761586385
0,0917388633813171
0,0993163988740636
0,0883437095317912
0,0986772749636273
0,093230217051393
0,0994477838134363
0,093630184250149
0,100298817877694
0,09066187367429
0,100237747128813
0,101652222313181
0,100911545596182
0,0952018890208381
0,103631261880146
0,0956321899645025
0,104016523256574
0,101419623703226
0,108132468466774
0,100199385266933
0,108167115802488
0,104676414930092
0,110858510695896
0,106152436500547
0,11138770052297
0,105180052734919
0,111137256424327
0,104994073025651
0,114343043579848
0,115288150506417
0,113481127861002
0,109894005831369
0,118361149886399
0,11139859165313
0,120446701377486
0,113030524519261
0,123968821705621
0,115246835193973
0,124060584844589
0,114944630766545
0,121135392826275
0,117574468896359
0,120775985754009
0,118374446845742
0,126112254581833
0,113859250592012
0,124533618117759
0,118104750227239
0,122309499067657
0,117038392006159
0,117951628186678
0,111304057394694
0,118461340592837
0,112660674766982
0,11839965356648
0,115148118422619
0,121364867421774
0,111067837308855
0,118096152641846
0,111875109739651
0,122188738919168
0,113947454257393
0,122262988166905
0,115506366530209
0,117259216847208
0,1144665312691
0,123537127649969
0,109926848957804
0,124339240231923
0,113845505046601
0,120595432918119
0,114995035394991
0,121221575128846
0,11860969413811
0,126464317365175
0,113119150370135
0,120650415550019
0,114699520475313
0,121219189936089
0,111857335057735
0,121632086617494
0,111350116581449
0,123044282506572
0,117480169661276
0,121532300182651
0,114971568549311
0,121777716697351
0,116908265651982
0,119276981434822
0,115903344300963
0,125256403756916
0,115800053140083
0,122505516485671
0,112681186376676
0,116278265458208
0,111724628723095
0,117171748228849
0,114654024908917
0,11925333819902
0,114830362191642
0,120757165068479
0,112266974326371
0,116769861750462
0,110511317963643
0,116632294983276
0,111410960355327
0,11224490267989
0,107242746552276
0,111698313873843
0,105460242200836
0,113084497616229
0,10045626229861
0,109843966363467
0,0998606802601795
0,114819711330342
0,10088411344108
0,101672660946194
0,0957857418310168
0,104528819265664
0,0951761428793031
0,100879395083885
0,0981352357841596
0,098943747369963
0,0901150904566682
0,0984713177201505
0,0918140079511969
0,0964638181823153
0,0848516838837758
0,0912416735660617
0,0872284226555079
0,0875457456145324
0,083767200470005
0,0900754746117366
0,0807933080033181
0,0886484521660889
0,0843841959351439
0,0881459289090229
0,0806574888441604
0,0890098596596219
0,0810083169265825
0,0868032309849178
0,0746577603103167
0,0876889230565297
0,0749815618078755
0,0873839054555623
0,0793001096302704
0,0797179674202388
0,0775623727122395
0,086587035802328
0,07634803225142
0,0800219110212176
0,0751972427660647
0,0809784742477024
0,0728016342870963
0,0766913125863446
0,0768802141024544
0,0818991825557465
0,0725427779883
0,0791924384870373
0,068722541783975
0,0754461739208845
0,0752998273119909
0,0767889632520127
0,0715359110367454
0,0725644028287687
0,0706678848775239
0,0774522496928992
0,0692080075585532
0,0697050612863147
0,0708759145704383
0,0719035351480078
0,0685475361866595
0,0771382726179593
0,0703903891540388
0,0708884079294846
0,0646817902242038
0,0699406717797896
0,0642311110128169
0,0713882319374787
0,0638678188003311
0,0696487291144542
0,0649188473726501
0,0681073646250337
0,0681591827839693
0,0665844996300426
0,0619129050607004
0,0716502398896166
0,0639749587936506
0,0695061494367897
0,0569789658253517
0,0659636081039745
0,0606259005856298
0,067566888300519
0,0642831933105641
0,0695325779928935
0,0628885166886328
0,0641791991410905
0,0586874855137496
0,0669488003389242
0,0603215020415387
0,0635345457116452
0,0580041814553709
0,0636264891849181
0,0569787073560787
0,0651172763789573
0,0603790359607387
0,0639949863763653
0,0634392001197566
0,0684198454398466
0,060358813390014
0,0641698641638124
0,0581219906655054
0,0644705628798026
0,0600156190720753
0,0619950130040081
0,0583082762564563
0,065002284299863
0,0558759840533482
0,0619220192511325
0,0580693025097319
0,0606933110562403
0,0566101872016755
0,0609835052614438
0,0577723464535874
0,0645607511607034
0,0553568922336846
0,0614076215785875
0,0574617321217053
0,0595736979089259
0,0541167411351265
0,0609999154912003
0,0563148863057466
0,0621098163947295
0,0557454782054597
0,0594480452324098
0,0554470446527389
0,0582148228160874
0,0522842392729244
0,0579384842935226
0,0523637471121217
0,0575565066888473
0,053503985653261
0,0562293462047937
0,0535040688383894
0,0587805052609131
0,0516260231963437
0,0557033011260036
0,0539922040222318
0,0560578931334271
0,0524934190558675
0,0581129579154211
0,052041053241697
0,0566581128785944
0,0485090172493623
0,0583956136212585
0,0502424994821507
0,0570142608782654
0,0530165957240336
0,0558403420767079
0,0546035402277188
0,0574725545236837
0,0498563499529456
0,0564239541660022
0,0548706356051017
0,056436542996319
0,0521034155255293
0,0562304488527166
0,0517042744233206
0,0567894438564535
0,0491546164600406
0,0575133912170835
0,0506535983873837
0,0557386335317327
0,0507223775695485
0,0571856202552513
0,0522514226324391
0,0563411727197288
0,0518515948893645
0,053470915468452
0,0513219140001615
0,0552547598816839
0,0488034839371046
0,0552138718493789
0,0534949052180406
0,0544807238529713
0,0501715590462493
0,0558855814158065
0,0491998111983415
0,0533499391991774
0,0455310550499753
0,0538321157930804
0,0476221698627956
0,0512815209541341
0,0480839918951126
0,0509313812538337
0,0499947756434123
0,0524090436557514
0,0448578307640464
0,0488348622411131
0,0477813621807108
0,0521765300731918
0,0478668206863377
0,0511815737537552
0,0457031433716505
0,0509955271728972
0,0475830132850274
0,0509474722529731
0,0441457135365015
0,0495075005530586
0,04385992846519
0,0510250713108704
0,0444758885346796
0,0476704270086134
0,045226049385719
0,0503560899875248
0,0443956258544588
0,0462416392045297
0,0459641952520099
0,0472448194900371
0,0465262782974167
0,0496358806043284
0,0451799701992113
0,0477430035222761
0,0429708482096256
0,0467985740289355
0,0441017268261256
0,0469829348700155
0,0437201612151318
0,0479767918858184
0,0442159208290102
0,0485234166364566
0,0424643534564077
0,0475675523813132
0,0414463388612341
0,047385736316693
0,0429606636250643
0,0463128683505213
0,0426003467852599
0,0462047247866617
0,0442656524554843
0,0447633483414871
0,0421071324380737
0,0463218940125815
0,0380208664102648
0,0441263249767994
0,0403424511735649
0,0417977636086704
0,0408088085297787
0,0425155786022026
0,0374854298898524
0,0445709656021115
0,0408024869601998
0,0443295756664682
0,038705743279489
0,0424793345889722
0,0373744869714938
0,0422731522073767
0,0378245281332525
0,0395162495947336
0,0352249505786617
0,0400300438923361
0,0357687336646107
0,0443070620344529
0,0338149640783712
0,0372615966723894
0,0373798431481373
0,0377988031467293
0,0324817513600724
0,0392607373882825
0,0338037018815004
0,0399577300163888
0,0351043874438723
0,0410387093150715
0,0341162672338824
0,0364519495448931
0,0348950712715768
0,0406467590192951
0,0372407032083647
0,0364502612498658
0,0370546795573955
0,0382116412999535
0,0346184734583272
0,0372784885056232
0,0350258906949711
0,038744772286992
0,0320599070827759
0,0370341581018931
0,0359410911940761
0,0358081687386077
0,0329490386206739
0,0383476632404181
0,0357989250281053
0,0393132975810609
0,0339605759767813
0,0354987344803162
0,0330250413840781
0,0375331070721887
0,0349221347947096
0,0389556521624075
0,0338655518184992
0,0361569493829367
0,0314851854621227
0,0398244465537502
0,0329036211219575
0,0375624781673446
0,030743474167419
0,034749964170641
0,0323377157430151
0,0384611900386622
0,0310709924731603
0,0359530927134606
0,0308355225824004
0,0333439353089241
0,0296766000031706
0,0343158317780633
0,0320131599566189
0,0338763326932024
0,0311974284004629
0,0358834630095314
0,0328611226705705
0,0334371083946447
0,0284124239801314
0,0343083247040956
0,0308017703098247
0,0336429492026838
0,0291067810852962
0,0336111080656029
0,0313746293463265
0,0338694101397367
0,0300557130407903
0,0344248338342996
0,0289581817237288
0,0335841984476549
0,0282635787821519
0,0307138527955599
0,0317310454051135
0,0342771322403822
0,0314536886930372
0,0363393027343253
0,0292112208414583
0,0316503312721303
0,0304947783427313
0,03219835630479
0,0258236048762654
0,0317246520915661
0,0286514261626313
0,0315048342756159
0,030728511887365
0,0335051049316563
0,0292049759628938
0,0339925587020965
0,0303285531524703
0,034358357366873
0,0277932148852205
0,0307664862376463
0,0277534687170622
0,0318484591870077
0,0313763949927742
0,0339403719279977
0,0277631525591425
0,0349964960066086
0,0289884781765236
0,0314191993614505
0,0307075813156928
0,03164789200702
0,0326184883255107
0,0340922801136047
0,0260576561350098
0,0316114097659531
0,0313169262716752
0,0306809422847441
0,0274156361537467
0,032771218946379
0,0268881593835916
0,0289572369207091
0,0280421852406114
0,0284958193755319
0,0254500697468398
0,0301960600107182
0,0268833993798107
0,0299483019850289
0,0281498011081619
0,0314673714806827
0,0276437449423747
0,0296835956012897
0,0264007200745536
0,0319421429753735
0,0278904822039219
0,0321044630746293
0,0275094824642047
0,0292473406550461
0,0265998430278506
0,0296734917481092
0,0270441382344828
0,0301451034718145
0,0279408653159815
0,0300130327988888
0,0240250417241003
0,0287614231470538
0,0241939752705187
0,0291497042218648
0,0266010632068374
0,028733038343669
0,0254093929274924
0,0315898579478199
0,0277959152352948
0,0285656690571326
0,0263415350840227
0,0314111901441401
0,0270961161959519
0,0285534381094305
0,0261327203373309
0,0281897315222425
0,0262606431258179
0,0305950925790413
0,0237855058023565
0,0305607263951896
0,0259261952036854
0,0290402586456839
0,0254235960316347
0,0278627368813708
0,0265972005765082
0,0270927530706289
0,0228788813808156
0,0293356668861868
0,0246499668444899
0,0288199894070893
0,0253229484567543
0,0288437645451149
0,0239151660610164
0,0283723340524353
0,025370107881502
0,0287321383539688
0,0256427168461373
0,0265356759976372
0,0249613939914005
0,0275476428424855
0,0227883460487026
0,024934470619732
0,0242020396592173
0,0257917491605999
0,022521137104515
0,0278479017087808
0,0213281271727347
0,0242751985174065
0,0238555869393465
0,0230850805056116
0,0223583111066573
0,0261300649487343
0,0225929957582822
0,0264403929368138
0,02458270061395
0,023956272615395
0,0216909734776373
0,0247784442606865
0,0185707216169418
0,0227397026617326
0,0217176516891711
0,0251506631962644
0,0207131146465614
0,0261715971863404
0,0222434928555085
0,0244364922318922
0,0200388549457761
0,0227980423001619
0,0214740802170181
0,0268601849143827
0,0227897923754482
0,0240567726193792
0,0222088469036285
0,0260805907598936
0,0211408219865919
0,023293827589121
0,0220211906299749
0,0244652894557098
0,0230802631161747
0,0243163727799015
0,0201812776858689
0,024506466076933
0,0226039716788125
0,0237962794384128
0,0204289932669662
0,0232717860549371
0,0224116857562294
0,0231327391171672
0,0209006985889919
0,0232087741102717
0,0222654324629777
0,0222280749431467
0,0194287537371712
0,0215732928287945
0,0203287268361008
0,0216636947115232
0,0188557537101786
0,0227566460102592
0,0221033111547377
0,0239446887949648
0,0184949254211208
0,0206326922745274
0,0187862161070758
0,0206268054213342
0,0175023163896428
0,0235563675252857
0,0186904858251358
0,0211029803869
0,0200955941509973
0,023121653149255
0,0193651229852576
0,0220135721950701
0,0184156041516979
0,0222382735225772
0,0211482689549672
0,0202089143306547
0,0193755933429726
0,0230688287303818
0,0196227900588086
0,0243407626214603
0,0192158400453594
0,0234439029962603
0,0214459365516375
0,021058182775466
0,017492256965044
0,0198056206949325
0,0190472890968665
0,0212071349173856
0,0194966575910109
0,0198249673756141
0,0195454751727923
0,0207136419124685
0,0183895114182579
0,019429915715178
0,0215896002744155
0,0193430704612574
0,0171028184784527
0,0222834475736687
0,0204462608275905
0,0217662981078465
0,0167949103186249
0,0220304892744244
0,0213535739897915
0,0250101317157622
0,0238574464653707
0,0255602599135843
0,022169087347405
0,0256312706033714
0,0182374146674691
0,0178683530011476
0,0101482415768278
0,0145272441374682
0,0195550825138354
0,0252809378093817
0,017968354349594
0,0186172819778351
0,0179429032156085
0,0190953463670885
0,0141414372181713
0,01868793078021
0,0175852046759454
0,0185128891460677
0,021880750200798
0,0149283817883428
0,01565721808975
0,020131499958982
0,0184304229618737
0,0226194382167666
0,0179250212224708
0,025442288345946
0,021073907754667
0,0193969046032928
0,0181454221428132
0,0218563793669105
0,0170101766870144
0,017520730937382
0,018212217041655
0,0132308998866947
0,0196545439501396
0,0154124610568376
0,0225426643728403
0,0226856782255726
0,0243610214490936
0,0186757513467633
0,0228455721241186
0,0135203340794296
0,0223160694445882
0,00507084204258996
0,0239715838511427
0,0120358923071799
0,0286777091801635
0,0135005071853003
0,0292940652945742
-0,000838981893389488
0,0270318372347147
0,00470080741684661
0,03649344770066
0,00762254824168081
0,0297696886145046
-0,0015732745761852
0,0409178382666152
0,0116372801970784
0,0323975376059443
0,000927402114246648
0,0347220594234436
0,0115300961988997
0,0212551083602223
0,0166935889322909
0,0235213229651105
0,0203866649299283
0,0171731310591144
0,0247077166266869
0,00833846235047882
0,0290466350615656
0,0120529647780209
0,027369057810385
0,0093340069500745
0,025018529706775
0,0171547295191931
0,0215353489789867
0,0172690903414349
0,0177967070540375
0,0174609387052756
0,017084190313504
0,0175552428661093
0,0202795741663899
0,0156635817997615
0,0210416460266793
0,0158819954346776
0,0188174375396479
0,0131987883918322
0,0193580490546313
0,0150815976100376
0,0185556840302499
0,0150781695296641
0,0175424300355282
0,0158470007596325
0,0186904132555392
0,0139511500982707
0,0183554957440036
0,0155883075307691
0,0188849876562411
0,0152234048381052
0,0174828832717787
0,0161300986361343
0,0174718430750698
0,0137616710774333
0,0176670145813019
0,0148865192571713
0,019287199574617
0,0155075826968804
0,0167239883632728
0,0151540400748718
0,0184896097712779
0,0130402148293113
0,0183447872634279
0,0191938450202763
0,0176946176200612
0,0145378695949944
0,0180530750318758
0,0148383311427286
0,0200086564636031
0,0158845040947525
0,0182249896473465
0,0141200123918226
0,0196183114151347
0,0141245922605539
0,0184533722754463
0,0155308183918079
0,0187209004243649
0,0150052196435872
0,0191097993262251
0,015312093807314
0,019740328779921
0,0180273183460638
0,0201053333566544
0,0143095769075367
0,0189174943699729
0,0129870955258462
0,0181272726124181
0,014465711526194
0,0185446694423528
0,0138973293983415
0,0181062129175867
0,0148960549070289
0,0165702699957679
0,0140227461657944
0,0182991853200214
0,0165469942239791
0,0172579308439707
0,0160729635312098
0,018628065214663
0,014500152603226
0,017576082120126
0,0132811731361009
0,0174406105552008
0,0151197479799857
0,0173120424938649
0,016160430538324
0,0169092057737159
0,0148837251893736
0,0170044207080539
0,0145610922485743
0,0167993014426599
0,0128879752458883
0,0180122768044402
0,0142380497423991
0,0189196928233856
0,0150383510986317
0,0189215628926078
0,0179198515559766
0,0163187637111747
0,013942601595062
0,0179084802928805
0,0168046898899797
0,0184624592597246
0,0156109058134941
0,0174519891012468
0,0139344331394337
0,0173634951068998
0,013889625940321
0,0192568368774095
0,0154864133939996
0,0172458056598091
0,0149467477112741
0,0180084188510363
0,0143654201558101
0,0173241806289644
0,0145235383599496
0,0172669585703633
0,0138088188268346
0,0187131485745101
0,0161078743512669
0,0187011258692658
0,0126838426153051
0,0169702215434502
0,0171958304257041
0,0175305529893793
0,0134531883412597
0,0172439814524803
0,0160136362532066
0,0177286814231879
0,0164121095557083
0,0178654225200738
0,0170940786734234
0,0183948367610013
0,0139625601165395
0,0163694127170046
0,0159170304755027
0,0163514867506196
0,0134662247252741
0,0173795150158403
0,0160279617162845
0,0181674940442904
0,0149060041973394
0,0178035309645629
0,0135866026220138
0,0165398599528094
0,0145136959237429
0,0168099474256368
0,0148194886306223
0,0183620141070883
0,0150533691594595
0,0186818440098628
0,0164265975900025
0,017576036777544
0,0140911924382591
0,0181594397950524
0,0142369496691407
0,0177018134996476
0,0147897163968405
0,0183811176182773
0,0146763838105323
0,0174838229666551
0,0138111846794306
0,0187204787827189
0,0162474952196135
0,0172596338060665
0,0152698363795344
0,0207627438978956
0,0157768112240073
0,0174897487071219
0,0158587097992892
0,0161548503549638
0,0134705491827681
0,0182764860816395
0,016060605876472
0,0181135075572305
0,0144572301888629
0,0175102373008041
0,0161244759074261
0,0177854431821292
0,0162101751673467
0,0181813173016234
0,0163731193072501
0,0174013723212793
0,0154143648270125
0,0174713892594392
0,0161402758010199
0,018347007840069
0,0140285470464091
0,017590718400366
0,0134449264939126
0,0176899897712067
0,0157606107184291
0,0165661775355246
0,0147059417985091
0,0184507842871438
0,0152957934050521
0,018306153176313
0,0143876425464024
0,0176564002458634
0,0153528614133991
0,0147217525129971
0,0149007346495022
0,0192206384496877
0,0157141215625844
0,0176839793018537
0,0132311161004396
0,0168890573284085
0,0159566732482268
0,0179938569729625
0,0146014061223014
0,0171956364389766
0,0121852107603602
0,0174870300415666
0,0143084825791741
0,0170278438817193
0,013282888496962
0,0154469419240368
0,0157509685891646
0,0178705903876067
0,0142942775567298
0,0174750693780738
0,016404794651236
0,017132100659383
0,0140779378349241
0,0172686628944969
0,0136889231453915
0,016965816232749
0,0155188818670387
0,017429029601102
0,0134204939125761
0,0148277168310157
0,0143449574669942
0,0158137944567413
0,0139704661824844
0,0178201969365365
0,0130723820709701
0,0164770983238398
0,0135100252168946
0,0158874614446239
0,0144194411972834
0,0162933689614673
0,0143739350099719
0,0174280174660083
0,0147652069716675
0,0155377776290089
0,0136578544327459
0,0166844616534789
0,0147617355621707
0,0160263154163742
0,0164181549657837
0,0182452984297816
0,0156876041809105
0,0162782748475325
0,0141618354324254
0,0165810655172372
0,0139689103635135
0,0175914782478829
0,014234999556475
0,0140939426901515
0,0133513482134323
0,0170571355171196
0,0143903910326798
0,0148294740396987
0,0125913547043169
0,0166175070017003
0,0128471342285008
0,0161262609114805
0,0134000512330839
0,0168033424418103
0,014619078201263
0,015244013796079
0,0135622928836737
0,017588412027824
0,0126226497825636
0,0149493796626346
0,0145014686412265
0,0150963068397429
0,0150211515607811
0,0169829367270751
0,0139008892190969
0,0144226529962399
0,0145273965319235
0,0146952853804745
0,0142168139633376
0,0148793397215688
0,0135219461828795
0,0162047539185054
0,0128185098133805
0,0152293895490411
0,0142179483173885
0,016602502168923
0,01402092147504
0,0166866346815127
0,0123032636199211
0,0149398437622199
0,0136805538377126
0,0166650645737126
0,0137614404744553
0,0152156902041409
0,0154497369346279
0,0154864565806829
0,0134012313919392
0,0153536570838764
0,0126792964741324
0,0137362074872081
0,0137823128967624
0,015648483888296
0,0119804596690432
0,0161716028890907
0,0116888216738244
0,0137345209475265
0,0129062047811891
0,0166031037693937
0,0124824825629323
0,0155648408168247
0,0151594496814753
0,0171824092117442
0,0143226803386253
0,0162070411939667
0,0128168649660028
0,0148264124038232
0,0135896689377006
0,013975156929346
0,0106681843358854
0,0155549835646318
0,0116882687947744
0,0127838061612381
0,00991629008204148
0,0148450179685625
0,012144755198356
0,0142472355875901
0,00953089311879445
0,0153545272029404
0,0136552175901017
0,0143654671387345
0,0109969243414721
0,0139008750174067
0,00932198490557641
0,0141235449735446
0,0112653136484648
0,0149342804088394
0,0119324434155644
0,0221038492726269
0,0171674717690905
0,0121330005124704
0,0134832007222802
0,014582891762945
0,0155487205270958
0,0130502346282697
0,0122035943132473
0,0144304017805095
0,0116121325717452
0,0134097402359621
0,0132218834681282
0,0140343583339954
0,0134713313866409
0,0146199715014148
0,0118679870184355
0,0131605307913938
0,0120137974216992
0,0158986087445407
0,0112420597193849
0,01332585641778
0,0108260113383457
0,013857004211886
0,0148092316949417
0,0147651396560676
0,0127698569666128
0,0158706608972166
0,0165622111901091
0,0156240812439778
0,0113346199742875
0,0113026695128228
0,0123609657943379
0,0117754722605796
0,0121501068507227
0,0141193782028514
0,0115547410985973
0,013136592911895
0,0114236696617925
0,0128608169605484
0,0139624673730363
0,0116965554629332
0,0104254447926433
0,0136825613343401
0,0112439694623306
0,0110008702154152
0,0110124170683105
0,0122860716451402
0,0110328920458619
0,0118834767146042
0,0159840144735271
0,0126704018874753
0,0105542589263822
0,0146555107013026
0,0178529036134457
0,0200457147875432
0,0101794373892323
0,0163166230587642
0,0112091156516208
0,0148730067639977
0,01014475629244
0,0149617249947367
0,0118921158171425
0,0143841290464017
0,0111919785230791
0,011700553014865
0,00942848733508117
0,0145064645099073
0,00886347923571855
0,0148726707223708
0,0099954575074816
0,0145376396428133
0,0101375308375034
0,0138154510261374
0,0114224198655306
0,0195372032461695
0,0173070158347011
0,014419513832454
0,00882782225425391
0,0143516708025918
0,0114579282680989
0,0286156863597388
0,00621887737892571
0,0163474408666984
0,0112529921977903
0,0121162695517326
0,00813693291021923
0,0128085995115209
0,00950403657355333
0,0147853772035161
0,0133022261815569
0,0119435559725795
0,0148125422450713
0,0127642571492058
0,0130228887677808
0,0149453272410212
0,011338746154472
0,0127087642007976
0,0129515453380996
0,0133532489361287
0,0112384972210285
0,0152664210000348
0,00948794210521538
0,0137666944969984
0,0111781341607293
0,016177240966567
0,0107793963751967
0,015017108036897
0,0114352187611809
0,0115781731251603
0,0160037740311621
0,0212387785898379
0,0175489970545009
0,0102524459912705
0,0155234568095654
0,0130399152330399
0,0139792264579026
0,0126394940134242
0,0107148384915295
0,0121985939859431
0,0127222151195826
0,0108588849431965
0,0129355616889678
0,0121521582654734
0,0111157662431924
0,0133026232226932
0,0118304826067696
0,0133309771278618
0,0110734605339908
0,014414894338187
0,0110242631734028
0,0163649662328313
0,0146173053635946
0,02610008057564
0,0156000766967879
0,0193758230392846
0,015254451546295
0,0137878601335293
0,0109544209329332
0,0122659092493845
0,0137649590726163
0,0137811876292163
0,013354644879947
0,00966906658729321
0,0129010440494228
0,0118143594322849
0,0129781365774449
0,0111957743525394
0,0153958726670631
0,00971830534813246
0,0160144423185084
0,0117039345206113
0,0153254751742335
0,00764920497132116
0,0160895736160559
0,0100261805947067
0,0229095006306186
0,00607551902606288
0,0157219682420316
0,00681504525506325
0,0349307193512731
0,0181184100069672
0,0127805080365333
0,0149993085083876
0,00824661973185879
0,0146190395893491
0,0111391257339814
0,0185768107130782
0,0130949310731994
0,0127051727365753
0,0114591145591829
0,0139370769808833
0,0115476128697002
0,0109567363475484
0,0142739405051338
0,0263988522852988
0,022914928622175
0,013174263748567
0,0119259693817172
0,011977718554045
0,0248585416055033
0,0239957736020814
0,00667800052672433
0,0168975734975765
0,00929394392743755
0,0161083325574887
0,00904639954076022
0,0151604345933807
0,0150275139268751
0,0154823983832938
0,0121522336047006
0,0121321480383651
0,0105138335553128
0,011301203055408
0,0125036274090327
0,0147852706889124
0,0173049390221219
0,0185383749554069
0,0100500066701592
0,0189320803365797
0,010435058006934
0,0169168035655941
0,0106514340676248
0,0132245927491729
0,0150874025716883
0,0172159117437783
0,0150316906889592
0,0176358007163911
0,0220946178155139
0,0157835425751647
0,00969526521242805
0,024550358054929
0,011144046856087
0,0191382737772106
0,00756939477821399
0,025015433681159
0,0302146279725383
0,0146910483303189
0,0258852276224685
0,00544357066104669
0,0216056677835438
0,0056530633688064
0,0210018386359679
0,00514701177518535
0,0307657318486414
0,00266920291936399
0,0207311500533012
0,00460467212953376
0,0240512846529794
0,0149588104101028
0,0159616798747274
0,0126327042448427
0,0123116747993308
0,0125890564052126
0,0205372449858805
0,00967229522302679
0,0208488115889516
0,0375250912131996
0,0204637437540231
0,0224644894097028
0,0169569957703485
0,0210490224427806
0,0314813301801968
0,00800314011406978
0,0189709141020127
0,0118783513178898
0,0137807981148807
0,0113642188420506
0,0298009681723083
0,0277640972851079
0,00933626526797572
0,0151903046373064
0,018182390326917
0,0205245118085864
0,0328505108119737
0,0105367808232809
0,0209232692447274
0,00901057993009518
0,0194664809322794
0,00226674549945256
0,0441269442145362
0,0108858053286938
0,0274710965234307
0,0309411655675996
0,0218938957462223
0,0251259580542581
0,0152837781058379
0,0255387542078993
0,025495612697551
0,0234940322707705
0,0146361964678376
0,0183764033461741
0,0294189578133686
0,0293984973949651
0,00951764277446472
0,0232377978714641
0,0064560913667284
0,0210086904285468
0,0532878992026676
0,0449006443706507
0,0198357648328228
0,0237925038416075
0,0236040257538047
0,0324269340749892
0,0128230868654252
0,0202111118244281
0,018067488676931
0,0160541737772354
0,0199981700251278
0,0213692719159192
0,0227720668213735
0,0186310693107538
0,0222369181085718
0,0154882751780913
0,0217371083032775
0,0566668290584913
0,0322314129305983
0,0461969730657543
0,0153524963763017
0,0464582707935888
0,0218656422249103
0,0299985176028615
0,0191188033391151
0,0258568588148834
0,0246592780076141
0,0224496930383353
0,0274728207574291
0,0273500013625016
0,0344422694784627
0,036838407678344
0,0384877512852211
0,0425265468210298
0,00683059916472498
0,0492622867144661
0,0138777238151975
0,0930743068532261
0,0168420564646892
0,0481280330483671
0,0204956135766699
0,072863418780683
0,0564929549120935
0,0388858468540725
0,0373995073940958
0,0425241842164073
0,037519404295017
0,0535688750866795
0,0480730229238354
0,0575753989441535
0,0474162810221503
0,0535012042555066
0,0320570124899426
0,109425581731185
0,0912713474639014
0,074189021225081
0,0617098155956951
0,0700673663707223
0,069381712951878
0,0717996443456073
0,0634860604054632
0,0675233191478358
0,0634845872324811
0,0872337652509753
0,0960593578273873
0,0590990905572909
0,0904803564620091
0,0680768517142058
0,105724781414773
0,0630672176169318
0,124250149482142
0,0839034083569982
0,0923320548238676
0,0854156280358751
0,0866409548913713
0,0984710305882075
0,0941245220763597
0,112818222096383
0,0976295083396514
0,0991562896993815
0,0979466007446753
0,0987355230200201
0,102889828168272
0,0985043836161977
0,107609941371672
0,0900001957815294
0,143309376192667
0,131253753189627
0,143153050254662
0,107284375700725
0,102910645199021
0,10427856479974
0,106187276067298
0,132222993270653
0,105668553578604
0,131759780222738
0,1016410521565
0,0993466541130802
0,106265445066977
0,0969767677633473
0,108959155857654
0,089242613563202
0,113238830504954
0,0921416829337773
0,114171533869011
0,0801648335746788
0,150363793144383
0,117085347140438
0,0927762071930496
0,0955406334474203
0,0955641628455623
0,0965719045922805
0,0933185666836209
0,1005117533584
0,0972631070260823
0,108299115884332
0,0768995223241486
0,0976117621660763
0,0774470450085594
0,115013574042825
0,0926495738892816
0,0888053417349853
0,0910192843377965
0,0765585523181536
0,081591981622365
0,0768722579823061
0,102974741104794
0,102209219339628
0,0686855328836625
0,0869622219208245
0,0717116206139935
0,0832722530022151
0,073822681695235
0,0827096239143486
0,0756629487651138
0,0838084197962185
0,0719713257694739
0,0833163661805672
0,0711647838199025
0,0804224110385977
0,0717003967993842
0,0841775683248252
0,0682916499000008
0,0776527013025268
0,0705265459900625
0,0762907110592787
0,0705107528893708
0,0785518489661051
0,0710464750594189
0,0781190741282349
0,072051669104132
0,0732604174541287
0,0671870905835851
0,0735611391965741
0,0691077926285902
0,0738058696506218
0,0674223391665416
0,0728685960741081
0,0696454164450181
0,0718936484665908
0,0670844044522823
0,0693409429373201
0,071485743829479
0,0731806822577266
0,0721224990796482
0,0721721361229923
0,0763025058744005
0,0644876669261894
0,0774199121139928
0,0712277664482968
0,103355815694345
0,0736567039941267
0,068013322053732
0,0752681409291303
0,0577847469195228
0,0771976885191878
0,066792748655204
0,0998881601617827
0,0665216818123603
0,0686956169060103
0,0668931680731694
0,0734611428401073
0,0679786233285867
0,0786555357447334
0,0521723413006477
0,0788285796035268
0,033844654429744
0,136209961914038
0,0840145636734283
0,129026418460727
0,0870227186387808
0,0661407404694143
0,0738175446344194
0,0846329470484397
0,0835977348292149
0,050945591630387
0,078535375033517
0,0622301395910405
0,0841746743124333
0,0671777028000299
0,0641150777300559
0,0687449348578252
0,061703749033062
0,0815257535985273
0,0768033154933723
0,0684776983700701
0,0866233944638178
0,0816653296351599
0,0665034333539269
0,122030011356946
0,0843367286327521
0,0685624309801786
0,0596921028416821
0,0618860048116542
0,0700392939475603
0,0731413537562339
0,0836949111069506
0,0627733958062591
0,0626528498201533
0,0526985249314426
0,060388819260661
0,0740515112202328
0,0577254378699679
0,0781469665804739
0,052484911710169
0,0809025260868083
0,0323896264718986
0,0795487846782375
0,0557911152064055
0,101048674856822
0,0601162500943009
0,0581462712578169
0,0538285329376432
0,0805003052115528
0,072234551523518
0,0575974997272338
0,0553597889260192
0,0542831518767599
0,0529424672734742
0,0632661004341356
0,0453277739883174
0,0663021961071869
0,0628465343627058
0,0655154183873661
0,0899465903976396
0,0747482034081506
0,0615850001941339
0,0487404614288789
0,0373700960386848
0,0554747951236538
0,033969343649249
0,0551691659876006
0,0300747718806121
0,0618289255786935
0,0472577639959001
0,0496614922627347
0,0659684536962505
0,0446343904462259
0,0451524203925782
0,0455899918444367
0,0444948237911146
0,0697665567917668
0,0706398209565516
0,0609992145394717
0,0465482154852166
0,0546101731363689
0,059152046241329
0,047598017374652
0,0551910831087547
0,0472983781229669
0,0543457900590656
0,0502670416918647
0,0608540545077508
0,0554317584239638
0,053974200500481
0,0542769328652942
0,0711114587734642
0,0683105771522489
0,0808076579140488
0,0390930273310501
0,107083167619666
0,07067435673731
0,0909218285484427
0,0678883677267565
0,0695364274541657
0,0722963069690219
0,0670665227222539
0,0717867873538423
0,0786929283303914
0,0791049987581089
0,0925821714738722
0,064400671299932
0,087319833607586
0,0659800362180526
0,0926153301916398
0,0677209665080852
0,113863505040041
0,0849857676053404
0,121943872131341
0,0985307541852646
0,0855121455831488
0,0887207702876783
0,0801402360262822
0,093146040508864
0,0839979425524825
0,0839144038883451
0,0856536668091583
0,0904580288594835
0,0991478189292629
0,0842358888449439
0,0930520754434468
0,0877670276546526
0,0892624234200639
0,090183887997784
0,0879812222007366
0,0919026928180823
0,0908691929739582
0,0849396289107163
0,101583026330948
0,100390329907439
0,128787055569454
0,0872686543677736
0,103202699856311
0,0952082284372936
0,0975031694133072
0,0955925325995404
0,0983573028026126
0,111647609090154
0,0986994916617203
0,0977298003892133
0,103139740644249
0,0933374335190121
0,118885038945517
0,0994372466069141
0,119324019970138
0,0882388702971943
0,113589701485991
0,0897287425421942
0,138017844481026
0,123112667314603
0,10548230894236
0,121839074688833
0,100575195411202
0,109714120222267
0,10082325986782
0,110991046603738
0,104064054498382
0,111457997272989
0,110132841281471
0,113144971066048
0,104247967914537
0,105750366539087
0,111916752419256
0,10837733179943
0,11622675269364
0,104262364119852
0,109613292857853
0,0997515017625259
0,110020168215078
0,109993379252623
0,121482656137719
0,11105181039512
0,107280989479398
0,112756814666992
0,115715402710053
0,114779607288217
0,106656459890266
0,0987722702725965
0,108965710125623
0,102580136295906
0,105444623107706
0,105118646686807
0,107414480279422
0,118478506233303
0,100851171414139
0,11217694258535
0,103120356919852
0,107568291878729
0,101555441146148
0,114482674203792
0,10723218140947
0,115038347982168
0,107424450054743
0,111947051727651
0,106140262535789
0,113865259710488
0,111115230545672
0,113978645559409
0,113478221052587
0,105074513308081
0,105021310782468
0,107695523986659
0,109132899804999
0,107849467022951
0,101783838783084
0,104632727215127
0,0921660140766666
0,107335250740564
0,104827658764469
0,11706980812116
0,0930655466787098
0,108206434011112
0,0936817902180972
0,0978660243197791
0,0924258093379623
0,094824757564168
0,0931692137769541
0,0956610960573818
0,093832794772397
0,0929086826158972
0,0906404345607671
0,0912214546302683
0,0881734033119527
0,0915030652453688
0,0880393749621529
0,0914292029928965
0,0885181160683394
0,0911290204351104
0,08767967826779
0,093902464773387
0,0858872600843109
0,0945118239761282
0,0878245510765523
0,10039870447821
0,0943940040158674
0,0952723294037882
0,0934574016156952
0,0923754261985937
0,0894031650150347
0,0876047336237299
0,0913913896923112
0,0862482558875205
0,087931862777196
0,0865679742786479
0,0887617115130009
0,0838942382477572
0,0885755739076699
0,0858723475679513
0,0866823229444613
0,0858478391228277
0,0890350349827124
0,0848893232122154
0,0895269337244732
0,0837313116889161
0,0907520791719108
0,0899228506671795
0,0898082765387975
0,0901416404669126
0,0867850552035054
0,0883761814801014
0,088744497078421
0,089473235880379
0,0894646576315604
0,0906314083182028
0,0854763672184196
0,0853838858568697
0,087408829220799
0,0857399413321133
0,0843308697342434
0,087244611508929
0,0847295797783589
0,0862194013076826
0,0855826828501964
0,0821125929497854
0,0827616200675012
0,0847168207670631
0,0806113016269412
0,0793897162025808
0,0795176264048221
0,0794712569149217
0,0782894074135118
0,0791820606890515
0,0784325716276376
0,0758348260933266
0,0750850084244816
0,0764856260780303
0,0746125703591631
0,0753687956925361
0,0753467485941358
0,0774174562016983
0,0723012674754994
0,0715125027334282
0,0733017610187597
0,0750515877210983
0,0717079530849683
0,0755381934098015
0,0713409388822336
0,0721563512858096
0,0744354424132372
0,0730352405438763
0,0738566281204582
0,0737682888812228
0,0716975482035253
0,0749326104335734
0,0740514663459446
0,0768100162091354
0,0741388270150185
0,0786294691545483
0,0753683490765083
0,0777692455306583
0,077593194336903
0,0786448165741888
0,0768707810363263
0,0776198510682832
0,0772939000078603
0,0791902314407568
0,075671544172025
0,0784952731410087
0,0777253895153862
0,0805064736090622
0,0784258895831366
0,0777125504496616
0,0769884762479733
0,079238859980602
0,0787194591700528
0,0778604093485316
0,0790237373897664
0,0756522998446246
0,0770698665669148
0,0783386419767289
0,0765246138892473
0,0752959398735341
0,0750689075415915
0,0757694665038009
0,075769602244287
0,0762426398841646
0,075624651442727
0,076789134853979
0,0750559521267145
0,0738318375069709
0,074117359367614
0,0738401647768206
0,0734406949196491
0,0716266981533848
0,0727740467854463
0,0739398811665445
0,072296878686411
0,0722763469811113
0,0724918783767344
0,0722322430074134
0,0698683196327718
0,072125395594557
0,069760862520729
0,0719977999842784
0,0715695496740357
0,0690356068562727
0,0685688073937156
0,0676354527745258
0,0682603643882283
0,0661112072351297
0,0673232923874007
0,0696033546262188
0,0676099777991222
0,0660245713068882
0,0676339086430923
0,0655438778134666
0,0646035886122925
0,0658622982996701
0,0654939803375901
0,0650312111927615
0,0636767913767669
0,0636418255774996
0,064297794728045
0,0645521480334497
0,0618509459435498
0,0625482557290551
0,0623964507309191
0,0630825020087389
0,0618091575003558
0,0628396407241154
0,0616198944664631
0,0645290706864985
0,0637363095497906
0,0623651772633517
0,0619003333005535
0,0608253836406749
0,0608756985019804
0,0621601308288283
0,0604997569345027
0,0590287731498507
0,0592034029965686
0,0576515614500826
0,0576220112259947
0,0581851887477796
0,0559155889015979
0,0568331211969655
0,0562304279334014
0,0573198977241168
0,0559037647575876
0,0570657872677242
0,0582355165181822
0,0579755602219033
0,0598414461001634
0,0626240265722577
0,0646882913790831
0,0668786558882489
0,0700526302524166
0,0733247511998175
0,0755329429291423
0,0792091281581077
0,0827134733180236
0,0865529008848637
0,0907632463123399
0,0940685387611999
0,0972759749428707
0,100949675358029
0,106178461189383
0,110700680335727
0,11328022440809
0,115954094743694
0,122547986136795
0,124191589955262
0,127803141705057
0,132477901069222
0,133297764881043
0,137579841423947
0,140026129429903
0,142728914368349
0,146284439866073
0,148655599471286
0,149884234659637
0,153717920247195
0,153772725135104
0,155936244992813
0,156465805066756
0,156444178420936
0,158000751727438
0,157539516492369
0,15705175454521
0,156459310852957
0,158228642615123
0,157922738277058
0,157672187499408
0,157669532510601
0,156365982796685
0,156492708913401
0,158083054933883
0,158563761046196
0,1561335388427
0,157993526216346
0,159690207393285
0,160385460490134
0,162854088477709
0,16407623047569
0,164029032106934
0,164654837679101
0,167280818634852
0,16898612092782
0,169328990785748
0,17101667997032
0,174957074541663
0,17585520755615
0,177903821850138
0,183726540866957
0,185962942962625
0,18855996044995
0,190336633835702
0,192192089688065
0,196544079103852
0,198388471051885
0,197184267219505
0,199170693612628
0,199287266501949
0,199603842027455
0,201482858375659
0,202433546395615
0,199795388406034
0,199171604066951
0,199349566723232
0,198260265546568
0,200556467955156
0,198797899538256
0,197150412605798
0,199456850753616
0,200042138411498
0,201659031936159
0,204811653560992
0,20894032863424
0,212593839894925
0,21731053083333
0,218766825104198
0,222277766453918
0,227004938781318
0,232144920007855
0,233775878707939
0,237324041905714
0,241545873515945
0,245807651618158
0,250840984182933
0,254984030732294
0,255953804087228
0,262881800318149
0,264176655180105
0,26852596852873
0,272306131548088
0,278514032721427
0,287404924900206
0,287906348596483
0,29459546167249
0,300596726400326
0,305524342272897
0,308729281706787
0,316551637744483
0,318672687417552
0,321570959664968
0,323101680206911
0,327666359717448
0,327239677312162
0,327484592016932
0,327173720768048
0,329093035505784
0,329515702649368
0,32928912938499
0,329955072193543
0,327357020925346
0,322491403844305
0,325977045694672
0,323990276908054
0,315490693611804
0,314042891044338
0,311593364756278
0,311283521183495
0,309650841640891
0,306857796593525
0,307507667335487
0,309959677298085
0,308807363355713
0,307562165141793
0,31060588657802
0,311985602011206
0,315012611927438
0,313777744758091
0,32022964356185
0,319854069266209
0,322855931770646
0,3238420814777
0,326574540858987
0,331757073286898
0,329855643926419
0,331734680875549
0,332556473635555
0,337318735956226
0,333612080772167
0,334410805250676
0,336140353768715
0,337451170625786
0,332912473153058
0,33760314617514
0,335975601931726
0,333849711397979
0,330244210318776
0,332663899829064
0,32777905793763
0,328730244923513
0,327803533791197
0,325555112529534
0,320811065378235
0,323048365120658
0,320864675363996
0,317233493997918
0,315270175871656
0,311145842303085
0,305404362303612
0,302013366807085
0,300519690365225
0,296699600804913
0,288041742347666
0,289366599431615
0,279399057879316
0,27455964975485
0,267653771382392
0,259605030802428
0,250396177786666
0,24173222469289
0,230715035357839
0,223208109738127
0,21774112655958
0,204999057692171
0,195474769108994
0,190968179118459
0,18175958788703
0,176772619581379
0,16997896733165
0,165743120167132
0,159075723255374
0,157579820519308
0,153913724517633
0,150271635544372
0,148772731824148
0,151902548003702
0,14965437468645
0,146974735287365
0,143011966495533
0,14469396258465
0,143537619138125
0,138794395718713
0,136664025315758
0,13284233752178
0,131836441221209
0,128656090541468
0,126135210652069
0,12127086509565
0,118919684001561
0,116714061583523
0,109194198185973
0,106831316372452
0,102695890261292
0,098572474196755
0,0954335979034928
0,0912138676770814
0,0880926800031344
0,0829507318591595
0,0776677680572392
0,0747075734215395
0,0689982481113251
0,0670958364263063
0,0633399054480416
0,0625486669122143
0,060182926711575
0,0591767819958509
0,0557788884916257
0,0529532576716472
0,0497062406058746
0,0494022840485391
0,0457899640448289
0,0458137487549966
0,044850919498398
0,0433423370801596
0,0426354723688663
0,0423439095266383
0,039923983441456
0,0430178643105409
0,0413821534155088
0,0405826275818539
0,0419335078375142
0,0417831772684714
0,0427533236637846
0,0428079186839475
0,0414671387325543
0,0414547557872466
0,0425294829405349
0,0403435200799008
0,0439884092708927
0,0431580931543212
0,0423195119471255
0,0431314620898192
0,042998343978343
0,0444798331258631
0,0422988751297818
0,0423868431393998
0,0448898462076374
0,0435545981797961
0,042706382940962
0,0421924734018033
0,0431983805392476
0,0406274450016806
0,0404434793675523
0,043480705540173
0,0410714965014144
0,0408632120980699
0,043712301553905
0,0432633780404281
0,0428090983268073
0,0426665287453138
0,0427413688034567
0,0457290991401098
0,0456001387420904
0,0425808623721385
0,0425475572305297
0,0478725285488477
0,0453454981270826
0,0448534240990697
0,0464482425671755
0,0451879496943561
0,0450391120923389
0,0464881227918444
0,0488970411031442
0,0522998659589768
0,0448872431271121
0,0481715338395265
0,0470734996909378
0,0493614222098903
0,0502478937365922
0,0502929858228515
0,0475936785982931
0,0495464141842988
0,0520534036747488
0,0521384760682801
0,050633386023686
0,0489662162541185
0,0534717669693004
0,0575103729116623
0,0529858412546014
0,055492980323103
0,0622957123149877
0,0607078829715702
0,0594193785034876
0,0624586864754376
0,0651352339740669
0,0657995573217285
0,0656129450632988
0,064605429684367
0,0672490181373292
0,0710346692842157
0,0661523330658624
0,0656128361536531
0,0628213763606048
0,0649271008839238
0,0600226427761279
0,0597963736582138
0,0565745327362586
0,0599288589560038
0,0559897294016977
0,0563432987401624
0,0570140005662698
0,057842291754224
0,051945559401348
0,0562729895349494
0,0564943834883986
0,0607529664895569
0,0574795599001183
0,0574933001927683
0,0572083216468287
0,0571032679883441
0,0537797142817191
0,0600256922653605
0,0540212198313904
0,055024803487316
0,0533178901159932
0,0562249081011031
0,0548190518700116
0,0533695218912253
0,0580825395418328
0,050042553205469
0,0502901085589799
0,054149055823133
0,0460982925932311
0,0511165170387975
0,0492924910986913
0,0480682515527675
0,0498422887704554
0,0473836249748238
0,0478004376260237
0,0509144503204938
0,0533280687398216
0,051351451923811
0,0520568746272032
0,0504956016347152
0,054115030878255
0,0474813772411863
0,0472372661998122
0,0447463631186873
0,0473375229388174
0,0491814879369184
0,0510472586949854
0,0418013241440543
0,0446878028590946
0,0458842807410375
0,0456180283328118
0,0431818031650785
0,0461764226762936
0,042942613215742
0,0502984268581029
0,048591002964864
0,0466405604948631
0,0430152807308219
0,0395427097924958
0,0483824681418116
0,0408687712240011
0,0419072476634275
0,0452826202273751
0,0402528864733057
0,0396474716003494
0,0468571751815146
0,0452540153522531
0,045421939390587
0,0466496006331516
0,0424834499166313
0,0462119309464387
0,0516148109273362
0,04832148045416
0,0502256408153992
0,0454871403039229
0,0463881527666842
0,0410698989194579
0,0471172223722852
0,0393784192345619
0,0491131967579281
0,0490231418376057
0,0473239512378223
0,0479291490888099
0,0453811942000317
0,0488330218725151
0,0481102487968926
0,0519369388507536
0,0571155543334738
0,0481833501589505
0,051384690241215
0,0496967142051208
0,0599162743521579
0,0536119510004052
0,0701525705950463
0,0609588100247862
0,0550346020464062
0,0615635769459944
0,0655905323885269
0,0588356529781598
0,0602719804761295
0,0716880708053949
0,0714752709490227
0,0678158651673576
0,0809728422725262
0,0772679072489053
0,0800692172294109
0,0778836254247306
0,0903223171868303
0,0837879846890259
0,0933756270556169
0,0893045228372123
0,0869328140828814
0,0914105828588593
0,0986276010353552
0,0860032615860734
0,0799995506770727
0,0851645108433165
0,0851070307792809
0,0801592955954119
0,0788697729799816
0,0739826298001567
0,0888699829388874
0,0777937424884836
0,0827132443024142
0,0655164501673964
0,0784676288055104
0,071900855329899
0,0721439249262324
0,0814568409181519
0,0842117571659113
0,0815082165580992
0,0843834117035977
0,0822374423558589
0,0621525620272088
0,0791092290583909
0,0693675456155724
0,0720607698089164
0,0740088549061556
0,0723858758896549
0,0607114705974829
0,0751442160018906
0,0593122937021171
0,0781688530016632
0,088789064823659
0,0679158743507165
0,0725761184614282
0,0663731123254494
0,0775458020351233
0,0715290009976358
0,0790504062998772
0,0712835901403423
0,066440568334736
0,0583235019454281
0,0646812267778438
0,074344631981875
0,0807265149052009
0,0640988707433311
0,0812693065515921
0,0910020258647693
0,0872806545529864
0,0763825553335954
0,0835966400497352
0,07319969851906
0,080103407741986
0,0889361150352854
0,0922496502175022
0,0557601906812446
0,0895975009870027
0,0783634429461631
0,0744356239113613
0,0764852033916943
0,0691382372787216
0,0695354237700529
0,055294266572392
0,0706956599727633
0,077185049737503
0,0786053721287369
0,0784708256808789
0,0892179769038459
0,0814489913134379
0,0796909248589426
0,087633476669516
0,0693249907216329
0,0896649203288988
0,0874862748436808
0,0803608787716484
0,0938919964294388
0,0831813133061569
0,0835866112516618
0,104926098490921
0,101401065685881
0,0950753189225157
0,088173723033017
0,0951638262663689
0,111007913924381
0,107818446346396
0,109647962556715
0,116516267442714
0,0917374725929391
0,129211713188163
0,105995228812318
0,128321589466732
0,076912459313236
0,128045163296583
0,10057814349536
0,109148404135411
0,116765358699428
0,117373560605289
0,102460616906791
0,120547981052027
0,0944504390357122
0,120445553274417
0,101739616235279
0,100408922590094
0,0440210869181795
0,0992170724296167
0,0880760767689814
0,109228380658212
0,0846249831962919
0,123941498770658
0,107626033490004
0,0825484742757802
0,0603260989299099
0,138541341139538
0,0664407606486405
0,120384587706202
0,137081477782933
0,0806142106863662
0,105642616568124
0,12638879355846
0,0774903448382892
0,149725428798595
0,134955154977093
0,0253376417559224
0,0560583994934116
0,26677231174728
0,0429535572663597
0,0643262975425903
0,147358172807615
0,108321303233225
0,118134876597371
0,0568658091579673
0,0958926573123685
0,0987059117535744
0,0866124033966461
0,076694089221637
0,0249313134909514
0,16924504440623
0,150767777704676
0,15140306134308
0,107287296284367
0,101848111989599
0,0597152854720965
0,170950065270174
0,0860867539547899
0,304155678583122
