3596
4000,36533379555
650,420452594757
1
2
2
0,0394012778047989
0,0503108064903519
0,032563262073079
0,0371891304210965
0,0398997826208592
0,0434869680502948
0,0327954840349692
0,0367458048090683
0,0343234664428877
0,0422753496484169
0,0426844574915854
0,0443995116728439
0,0405805765683063
0,0400286367787676
0,0343530225650585
0,0419853591893012
0,0325511662980069
0,036200336294303
0,0351134559117383
0,0408195130534417
0,035859556762373
0,0462294496097507
0,0371305624593758
0,0379031160568753
0,0373008682732302
0,040109055245676
0,0370240155939289
0,0428302881155821
0,0366747112876902
0,0429760718508802
0,0406171309253917
0,0418276558580278
0,037480262553791
0,0398789950418413
0,0382201222188071
0,0435436904358846
0,0396625054381623
0,0413184667271756
0,0343591670388654
0,0434587634122112
0,0421242746055913
0,0437583342475029
0,0366924622957935
0,0441976349264173
0,0354352684363509
0,0388368354946585
0,0391775638143591
0,0427847177897918
0,0407500951320891
0,0436651174303155
0,0331980138737727
0,0377893148206432
0,0461680384938264
0,0464201646928041
0,0312966238711749
0,0485746310641782
0,0430759075126064
0,0414710978763526
0,0410300996462461
0,0389869852525438
0,0464856626774291
0,059128301356194
0,0371097494932073
0,0428120422430734
0,0365996044573262
0,0388051114798389
0,0363786293764226
0,0395389560047774
0,0332163072773368
0,0303902443136595
0,0352087081681177
0,0464855440831001
0,0557250254816355
0,042637183433783
0,0374967981632478
0,0518680928573761
0,0397180053912134
0,0345005348352345
0,032092807082721
0,0494594053430377
0,0460579997552005
0,0440833010920025
0,0391818125125938
0,034513058831899
0,0285909536796944
0,0535552959616993
0,0406955899293321
0,0348244258164571
0,0511630330057896
0,0519322122504157
0,0403421209533034
0,0430221109943428
0,0378791672065729
0,0406152710971591
0,0369761721470665
0,0382841239941637
0,0337961228696438
0,0381248823616128
0,0291714199308403
0,0443553500991044
0,0377051773475714
0,0542629024760317
0,0560161272920368
0,0549053549655783
0,0592839140036139
0,0585115497991701
0,0285247018283953
0,0689462204271963
0,0639311976385783
0,0441876328214348
0,0391106999285302
0,0342850660837901
0,0431340583321482
0,0425107996449978
0,0324695853293946
0,0421635937863568
0,070679076930137
0,0579837037580215
0,0376497189843079
0,02999218785479
0,0128148161014047
0,0468800340833565
0,0661928746357644
0,0487003340129557
0,0464990400680451
0,0371347829813111
0,0278097054096388
0,0660345319480837
0,0558267792187889
0,0432111489565047
0,0342500843417875
0,0425004315552909
0,0162896076093883
0,0329358678638089
0,0663996319156191
0,0661070632451733
0,0307981757788896
0,025478584787485
0,0366890743905553
0,0913968782838737
0,0535096928278633
0,0440440261679213
0,0251822156465222
0,0269244471810285
0,0671728089059907
0,0565621942902222
0,0198777976396958
0,0542461520901514
0,0471595876913906
0,0462761698825978
0,0307789018969898
0,0362818288284723
0,047197638791706
0,0467218951521793
0,00617487238393928
0,052911101949389
0,0855684305646353
0,0842407130242131
0,0680616388512547
0,0638070297362411
0,0302464588855953
0,051527389441634
0,0292709364212719
0,0423462973988379
0,0323772971298181
0,0388294010679442
0,0334283197546669
0,0644647882027244
0,0294656812014449
0,0314669135013373
0,0641952015503951
0,0511614728555325
0,0276953172084973
0,0819392221282352
0,057258791091813
0,0327354369520652
0,0572166658057628
0,0599981651958444
0,021940237219706
0,0389888413255279
0,0533783034837223
0,0536024418325851
0,0357312662694511
0,0441635547491739
0,0306613297465908
0,0559908173341926
0,0408289317326253
0,0430624565925301
0,0295172777129852
0,034970991111668
0,0228564696371852
0,0885503569743567
0,059898157324698
0,0555223235493879
0,0257936919254464
0,0253912648731297
0,0414868707092244
0,0783891258302937
0,0358091179852429
0,0366948014548652
0,0320977228833495
0,0449481937314498
0,0264529620110192
0,0450946428123868
0,0247474971301314
0,02589472470258
0,0446375366299757
0,0669739197561799
0,0405368493478716
0,0456198630604774
0,0215763935622092
0,0320453868697956
0,060142550760635
0,0741626452922375
0,0343748964537257
0,0352185873202283
0,0213972815324286
0,0463061766030579
0,0566370200546275
0,0432260192410291
0,0343605299657946
0,044850008011745
0,0344201984845825
0,0358848728489795
0,0309838919856754
0,0388537275346953
0,030764121651541
0,0424401298956862
0,0334382482989001
0,04363963490708
0,0460454311254858
0,0434624213373894
0,0311728720377986
0,0419394110539386
0,0200911662402658
0,0429037991950057
0,0524243250022517
0,0502955024644681
0,0296009735385702
0,0393842380421898
0,027066943635128
0,0433630493785059
0,0274611386789345
0,0449170281114449
0,0207872891311306
0,0384098073609835
0,0556032752345367
0,0585422214982421
0,0193923282208693
0,0322013008125722
0,0368575405617503
0,0634230841697474
0,036530947428193
0,0402426253610085
0,0350591658080907
0,0307672330715654
0,022659738528951
0,0667646577765412
0,0415748514376026
0,0337360724340101
0,0477848837731636
0,0523571815938777
0,0342517560662794
0,0292955338825148
0,0223463662622261
0,087956184286019
0,0445623482650359
0,0286468215709637
0,074399991764885
0,0745161487944259
0,0459091138013971
0,0311165929610169
-0,0011588081688607
0,0996102677173777
0,101494111109376
0,0466315434376126
0,0407238041774648
0,053796720534799
0,0380677957379725
0,0456504268251949
0,0406826469445805
0,0517482876484659
0,0355637623728869
0,103001661680106
0,0767569808588257
0,0470376079113194
0,0364647931798855
0,0802475610556693
0,0403911888839778
0,0426778761589634
0,0316081915493952
0,0356924073190132
0,0381665418393086
0,0556487972102673
0,052298165323744
0,044256344834897
0,0331544216038531
0,0544622132633858
0,0510894860106842
0,027747444978526
0,0438282886007908
0,0492327423538439
0,0376078591043774
0,0339121712433039
0,0376292807967428
0,049062634230803
0,0258253979790943
0,0252198148055777
0,074281378640896
0,048836070148914
0,0280322009159887
0,0612209497385176
0,0494939333879383
0,0373851223620718
0,0314570880921579
0,0410773078274206
0,0353286259473196
0,0322522297923903
0,0276300859231475
0,0542782482924829
0,0477661497404379
0,036124059633456
0,0370863940402949
0,0396444051372645
0,0275814822752039
0,0387638430007529
0,0306960799771282
0,0407021540019068
0,0335056640355767
0,0235683445383382
0,0498840196173194
0,0595583082404617
0,0250777702102393
0,0543623530961949
0,0735947812170132
0,0498610032768961
0,0317107085203994
0,0456541630128345
0,0339751918277909
0,0412219829275191
0,0364133217998394
0,0362004830495636
0,0314062788794076
0,055319251576659
0,0454359248487552
0,0362379590064905
0,0145869274971977
0,0856842452981363
0,0884034660463428
0,0746635204344443
0,0358101442274125
0,0298313007857621
0,0388768099359544
0,0675813349121741
0,0603474116133923
0,0681568375897598
0,0449164667175247
0,0408207250394934
0,0439473412336693
0,0393030279958972
0,0405824838794343
0,0437393593203268
0,0407915534005293
0,0406448659188232
0,038631077518486
0,0436730932886335
0,0272817228103902
0,0379059789784488
0,0631447594406304
0,0613717597120218
0,043558429139748
0,0396956625498414
0,0316320086928537
0,0549198711800529
0,0637951702545464
0,0854029574823432
0,0537686526611964
0,0825241808373633
0,0805675076527309
0,0782447345704431
0,0401409800691241
0,0515620739372422
0,0432421668213061
0,0574823965991581
0,0464752310491774
0,0565938400840204
0,0409843954343974
0,0538534394548815
0,0490497337532745
0,0584011670518746
0,0383527696529292
0,0560205244366497
0,0548918554610669
0,0691423464912892
0,0445819606489646
0,0516231163985055
0,0256832804815847
0,097409974444941
0,0918754264880347
0,0824487923219884
0,0600468175598044
0,0633528196812539
0,058175903555377
0,0572978962389381
0,0532128290589443
0,056659541441541
0,0574699522384146
0,0829103092117616
0,0729388208812522
0,0885894576666455
0,0723920818374627
0,0702253381237774
0,0640383577255985
0,0834714206483231
0,0647844431901931
0,0989759558932817
0,0711130018858005
0,0629531005370873
0,081349269247625
0,0844533143550018
0,0716960775349427
0,0917332260470649
0,0830257166421073
0,0682903027615344
0,0693750477050584
0,0817241562305553
0,0726856456168219
0,0872485237311689
0,0866012531270019
0,082431043050529
0,0862213197923456
0,0868683693943207
0,0759840635856175
0,104628621139092
0,0827258477521295
0,0918567647994939
0,0822760364023479
0,0942272587537615
0,0769315365332678
0,0872034843603315
0,0764181798120282
0,107583602025089
0,108779281141305
0,116482495460873
0,0939900316641973
0,0954207948450271
0,093423804170562
0,100119099559699
0,0856311233194139
0,0986302578699915
0,0912938590767353
0,106353328859849
0,0957858354052603
0,112734128531326
0,0963263898788511
0,115448363066735
0,109974198300526
0,116462705728255
0,107519644773526
0,110955976122679
0,100951755295678
0,112149342329456
0,113354490406552
0,129483878524159
0,122996137676103
0,149698317431384
0,127698898063864
0,124961515080787
0,135028190202826
0,125201299167637
0,111472067128539
0,136760590823106
0,114000042432293
0,123227468632104
0,122839929740201
0,136135993716825
0,112812259905143
0,139813328658626
0,131975967372478
0,145932851300569
0,140607104826355
0,14966767759636
0,132319353391398
0,143703544708576
0,135054510448231
0,160375066501657
0,151603949419137
0,163521687650528
0,153466271214711
0,159863821057059
0,151757136689118
0,165974089144664
0,143998172943524
0,170783465815737
0,152502093947529
0,161142532878528
0,156778568904876
0,167057108233972
0,159061908006444
0,176224150796347
0,157328821051659
0,168848953665241
0,168135265537027
0,179467475686609
0,170101846422772
0,184255793961727
0,173302001853302
0,200642474862589
0,190354917810116
0,187483050145139
0,172019183056395
0,200183095093294
0,191471236778917
0,20434774230669
0,187673533971542
0,197220936228059
0,196720490806078
0,215779330781489
0,190002824694197
0,209946468541739
0,195473430488806
0,210844040922372
0,209538373404613
0,225034694539162
0,201961171729843
0,226163795196551
0,216317526512649
0,220830782049427
0,204500609621739
0,232008030044287
0,21087506591882
0,2270181585035
0,214109571846508
0,238270115216488
0,230170291895849
0,240890768499764
0,224516288854943
0,238555711605574
0,22038805273399
0,248435015457858
0,23427419943865
0,254661883722126
0,241552585276715
0,255568425488171
0,228075508004769
0,26579018671417
0,246964598337241
0,263062872731213
0,256081620101827
0,268505185052052
0,236652071237744
0,272832003178861
0,269086836397283
0,275468278211963
0,253682018045045
0,277393467888222
0,262239400896659
0,273292469260913
0,266591413746519
0,281281855445256
0,269950272611597
0,284140683267482
0,275750950943183
0,283017719588691
0,271734169064367
0,291736829000131
0,276968891651885
0,290836595645279
0,275041795172991
0,292845229183707
0,274291179315337
0,299904673454419
0,292813804844457
0,318195418215897
0,301429583433176
0,323827105812726
0,289319302613292
0,317279203967001
0,297032957395537
0,319619253171839
0,300383763351197
0,316410136222923
0,313158402942838
0,333553251725498
0,300434721074942
0,325101264044866
0,308906456877363
0,314225975876084
0,323804408627368
0,336295676565075
0,313119448730374
0,327576838580998
0,327831474122967
0,340012361135399
0,318838261058354
0,349647169031619
0,330923313065117
0,336748318014554
0,326038462764675
0,345008103791945
0,328361763054249
0,35324076120534
0,332259300106214
0,357946259319325
0,339108278166511
0,351783649098802
0,337988511973291
0,360376809967119
0,338722420290136
0,362823100581211
0,340511998291493
0,36090856191741
0,351870018603522
0,381913979453192
0,351059319777442
0,383298475870421
0,34420131001085
0,373950171010427
0,354112691909861
0,389622527077378
0,352310039111755
0,368402880779738
0,365741769556904
0,392935892325108
0,359978067144857
0,390696468776284
0,363374364142682
0,380677031836023
0,358830474804096
0,381281873650612
0,367193694232084
0,390475311293121
0,373603881272989
0,395181895693142
0,381692627462627
0,393850631789424
0,36605133545139
0,390967462268258
0,373211234610184
0,393341876238253
0,372748028094889
0,38685081939682
0,368590737258525
0,400611745340589
0,388710631906174
0,40899699126472
0,395227720942494
0,406592833392154
0,383955155882453
0,404253357705298
0,391255132181093
0,406493842735891
0,384161175980384
0,410914392806159
0,400079371285996
0,422509571503387
0,383232613835124
0,407613357914377
0,390643282480131
0,408161917132786
0,392060627922778
0,410028362245049
0,401298461438385
0,417444092200062
0,389707619527581
0,404598659153162
0,386551218787583
0,423744684156044
0,401842837393467
0,401800140569805
0,398245887250615
0,415615159440969
0,408517454679904
0,418651915792749
0,401620933160633
0,41385821396921
0,401251466124893
0,420094999198878
0,39382615973979
0,419109363185987
0,410608068411549
0,428446794023662
0,393866414658965
0,419867908441945
0,389430049887766
0,416945946970011
0,409337914472541
0,42871185718801
0,413196987671396
0,425259052987523
0,401578680377173
0,424974244857919
0,394272747598044
0,430010970972274
0,402749939597421
0,418330666957887
0,410057906453262
0,423607382752869
0,404012110007889
0,41773425246779
0,398377888461659
0,414176280497731
0,393917025885093
0,406899385246842
0,407148009698269
0,428763019484903
0,410478964783128
0,414487979609758
0,402510895937013
0,427676873424059
0,406336977168557
0,426295787081228
0,407929749734334
0,424635397809604
0,399491824563837
0,424577670682543
0,401164723842455
0,413221239217259
0,405917218994456
0,419254989506686
0,397813160087434
0,402203374887014
0,402897923819107
0,413551306452763
0,38878625063074
0,417609416231922
0,391779545521765
0,407995563969607
0,398836918725238
0,410334384429278
0,396156756626519
0,40490177880013
0,384898305307804
0,410991491859013
0,390474315694394
0,40286213719695
0,395762990779323
0,404143177520959
0,386934519740915
0,41669336970246
0,387429482269464
0,405204420885193
0,391053306071025
0,399567301017223
0,380536567404094
0,395836105797986
0,394714403171337
0,396693963975933
0,389605765437483
0,398209187827014
0,382884278131392
0,401945004565029
0,383668468393966
0,385567632308538
0,375086415746319
0,39353058277132
0,375626754173405
0,391368490544034
0,37781526706825
0,387898986304147
0,382002502503377
0,396854352285206
0,374437930070353
0,380317377848807
0,370979292728808
0,385257280553022
0,369102815065056
0,387586988930111
0,364639071500103
0,379779766236124
0,357310824233323
0,380707699568264
0,366468841921046
0,376524037684941
0,352343487481607
0,384062402288595
0,367764936177824
0,369219673070502
0,3544146540286
0,374278368952488
0,359580948331591
0,363830001882747
0,354971949106562
0,373005654220157
0,358538208676488
0,373244431131491
0,3435850970962
0,361110812860139
0,356469823562788
0,365360168428599
0,348389491410902
0,360811541359102
0,335235086285075
0,35142773132473
0,347195025364949
0,361049538677893
0,331140538701357
0,347172556179664
0,331284688984802
0,349266408977061
0,345481384066729
0,350938179525311
0,331985082867133
0,343951053556431
0,332640812821477
0,344955015826206
0,336970191514866
0,336393253668732
0,321638701139766
0,340093733443769
0,327139816465355
0,331577285845444
0,31921735497138
0,324694186354013
0,315091104612681
0,328476868211462
0,312812579689359
0,330975498453659
0,324555036618043
0,327555786621457
0,305625968944547
0,317723448364264
0,309936020971433
0,320276606927196
0,306765284796157
0,31652836975479
0,296404349551156
0,306787703917481
0,301205636784987
0,316614367301778
0,298135881893684
0,310591324511384
0,295142943408171
0,306999027029508
0,297357691501408
0,307159871301318
0,301462836331329
0,304049571971746
0,290465827221361
0,299360790729367
0,278389882920814
0,296482652895382
0,281990134868016
0,289668909004386
0,278794438677656
0,288781603810483
0,273116180032263
0,286846374316629
0,273233675101959
0,289361096490312
0,267404593830449
0,283079615462021
0,273312811054278
0,273088164921779
0,269127119840405
0,276146736919786
0,260891709893161
0,271228148908353
0,261068703372107
0,278418591203489
0,256108474767912
0,267026789165023
0,257144957699088
0,271384897622505
0,253584101397617
0,26484489886794
0,252923855135337
0,256712319416833
0,243584617354988
0,258955226389335
0,244811245613489
0,250904995457471
0,239830509472904
0,250570710752727
0,240670898906876
0,246293884107996
0,235623163591131
0,246053080518209
0,233057410468268
0,243970953838994
0,229250075239515
0,24173662697246
0,224283059190662
0,237211157828998
0,229020345629271
0,234621355940907
0,219932388829422
0,232047557557102
0,22704047078004
0,225940836251947
0,214590015346271
0,230235701023034
0,217468525352106
0,228054990618663
0,210947770451342
0,219573337039463
0,211751554334732
0,219849102123188
0,209542259446573
0,210885883750616
0,201048636610078
0,217358398612872
0,200635859501428
0,214568891520659
0,203427521415275
0,212470715828887
0,196293984164519
0,203359543844413
0,191583204447707
0,203702767930836
0,199429592505872
0,203275139155072
0,190665544829256
0,200032295960522
0,184291989225339
0,196078605757775
0,187779359466489
0,19186697489654
0,184297903921673
0,196668500801236
0,176943328652597
0,188205038614074
0,180715332047807
0,189907612855259
0,175873458085717
0,187106275351396
0,172481476238078
0,180375271379825
0,171506939030618
0,180493179943574
0,170398487826912
0,176947586483335
0,175354853394969
0,18019849401789
0,16731223947465
0,173398545559988
0,163915792205036
0,170414255296152
0,161286677506761
0,168858202247864
0,160785141544693
0,170098700304019
0,158752192793224
0,165922431816375
0,157528860065376
0,171136239952129
0,154567023894364
0,160428210106996
0,148858860619333
0,161952218208044
0,149075737887837
0,156529144826579
0,151812131696157
0,154943443971157
0,145465152001976
0,155837847516246
0,145558888605313
0,153519501754595
0,143697507258024
0,150733670319782
0,139826087967216
0,150587377084976
0,14187029722924
0,152403086942079
0,142481830788353
0,1493120657918
0,139563894998604
0,143684500278759
0,130658729122359
0,143351457494405
0,131296331457907
0,143614721044263
0,133909941833634
0,139906873882355
0,133076543100179
0,133070660856696
0,125298334423743
0,136521803945966
0,128985970239548
0,136729371184013
0,126498125480176
0,132197565270686
0,121319429969974
0,133600461889474
0,11949505624547
0,129635381034074
0,120941064168992
0,126793342098988
0,123651100886282
0,126014859786273
0,119114796335756
0,126578608143196
0,116961018677609
0,120784383587269
0,113742850043155
0,127003249257127
0,112814191624734
0,119750332020015
0,112181845630386
0,122561096157
0,108689863852817
0,12213801523729
0,110684296441426
0,119936770470163
0,105968437599421
0,115212637162474
0,110480800339017
0,111757842204992
0,107269300352616
0,115798038053057
0,102805618977614
0,112364866708701
0,10328865644195
0,116606178624681
0,104806050566216
0,108352790762785
0,103482179436757
0,108643465400609
0,10081519109355
0,109076285140131
0,100082817447095
0,108355424575066
0,0994973714021968
0,102198650048274
0,0968759850270454
0,103915869160817
0,093791810660448
0,10562062904025
0,0999651803224085
0,098943091508504
0,0914463663903486
0,103915784850481
0,092561491162428
0,0975687505487791
0,093045629319162
0,101179730693747
0,0914339962477801
0,0999184868128557
0,0932033706317801
0,098093495573096
0,0909362603998226
0,0923178141112304
0,0923047378319273
0,0941460398233679
0,0867936607360993
0,0919075958810729
0,0893599596378805
0,0916320523349169
0,0833435186996295
0,0884056490536259
0,0881514957368542
0,088244099975726
0,082310237051181
0,0869456627109404
0,0787322599693945
0,092638800755926
0,0845974843245206
0,0905569747186907
0,0796221291006568
0,0909234989875561
0,0841193556875971
0,0891357198394854
0,0802630921767712
0,0848600656357536
0,0783636684511971
0,0834440498707553
0,0783206685064834
0,0931227270077064
0,0811740454642277
0,0893727639380907
0,0823226103022555
0,0903132337864503
0,0781160193135201
0,0882354732802927
0,0779368542175382
0,0885890478117669
0,0753576795643516
0,0863180012146901
0,0798249603662517
0,0887372799544008
0,0806948005185641
0,0844961277206765
0,0765728772000585
0,0864999794069934
0,0791864027385883
0,0888884870323832
0,082637255985985
0,0907868716740906
0,0840261493415877
0,0931754773247669
0,0802273049713755
0,0898806300316361
0,0821350100658593
0,0877880503225677
0,0825413690251316
0,0899478990973134
0,0851922128769737
0,0939147636311714
0,0886824194604277
0,0909499712023518
0,0861819052563523
0,0902306715974461
0,0846057960135867
0,0969959601029059
0,0877285189682371
0,0960916937385414
0,0871792594036749
0,0995082066951588
0,0864487302687568
0,097944800155615
0,0916697432923267
0,0966471337135906
0,0872258994122491
0,0993804229788175
0,0956360171642717
0,0980050355985997
0,0920406523564228
0,0999474209231606
0,0920747806195455
0,106747610394132
0,091273038622654
0,109853501106968
0,100063204495765
0,107538581078767
0,0997387549872852
0,109213713016342
0,106525905220864
0,111207153403166
0,106081146195868
0,110488746987331
0,109709989835142
0,116810757005957
0,106518035587846
0,114308770051184
0,110395569338712
0,123995653461083
0,111071425623618
0,118413469806062
0,114456416419597
0,123457987890825
0,115455593529481
0,125349484909233
0,113746430047771
0,125042554605786
0,118280049016897
0,123878136557017
0,119217915673318
0,122800545674732
0,11426236133597
0,126023516531569
0,118228815815134
0,123560722639808
0,108861902457462
0,121011229657603
0,115212620139663
0,121544365863948
0,113787025400558
0,122406884959697
0,113641649736987
0,120361976733243
0,116667927381883
0,117021742702562
0,113360834871899
0,12569334693908
0,113043489308842
0,123587529855461
0,11578345863552
0,124670648086191
0,112911707075915
0,121613404195407
0,110933508972086
0,122664902899424
0,111187510980074
0,120128450789576
0,11460681038829
0,123058573583013
0,115129343604794
0,119951399236797
0,111535610972369
0,121820109089074
0,112990714041171
0,118831854212054
0,11302845059269
0,117169412749944
0,107998346497497
0,124304846338575
0,111861780998041
0,118677979425607
0,115056964249951
0,121895328486488
0,113147114367878
0,117114687165823
0,115260672540447
0,121272270429626
0,113352034328662
0,121286103042602
0,107804825262922
0,120582513235281
0,107479561840708
0,117551283922343
0,112152675820887
0,113075181123597
0,109578242303461
0,115805741795624
0,108466347824168
0,113974383356599
0,105388405660313
0,108741053979466
0,104011600832232
0,109800167573007
0,104079715133715
0,107094219603905
0,0975440186947237
0,107757487696773
0,0974375724000893
0,105918856209852
0,0912931269959733
0,103855900507075
0,0969669291855561
0,098785536091804
0,0912421967285122
0,0997562487906028
0,0906885981595571
0,0966126821992601
0,0913178344079887
0,0961434545973494
0,0871290575003726
0,0927668471489896
0,0834283333095489
0,0929186639148009
0,0826252355793883
0,0892155764087945
0,0766034876994117
0,0840292576358345
0,0797236887956368
0,0863732106323244
0,0799979778291763
0,0850354427410914
0,0796408616583771
0,0862840758977902
0,0812409133088462
0,0832811936375453
0,0760804705015798
0,0854079595136607
0,0735799867828847
0,0842578463406591
0,0752699857034878
0,0839967771579246
0,0754063370765106
0,0789958934695609
0,0732130850066239
0,0824461353285778
0,0749862372979108
0,078585313178738
0,0708301795943639
0,0776816746993669
0,0689726159196531
0,0785819807585745
0,0749363004300089
0,08013864443106
0,0716555636935187
0,0768183466674278
0,068094138343376
0,0766052431736822
0,0694708738483613
0,0773985647003096
0,0661740296728923
0,0727108592187353
0,0696243454278193
0,0738962500586859
0,067868588556176
0,0739681713880888
0,0632517268618445
0,0703241623366977
0,0661793802462504
0,0733539477382469
0,0670714074242049
0,0728444323830355
0,0653811323483088
0,0674092741738993
0,0625358351823024
0,0669998063459448
0,0616676305497789
0,071135989410487
0,0649288192780496
0,0687272030132991
0,0638791475757048
0,0664081860995732
0,0617581707771019
0,069742288626424
0,0628131735044119
0,070010725855734
0,0583355923253708
0,0684690178179898
0,0617393312641542
0,0670007538660232
0,0609211443969788
0,0641130238630691
0,0600553304404036
0,0651077877903224
0,0581632893873849
0,066305914350464
0,0567801027912241
0,0622834140033972
0,0573062300468766
0,0641895122370359
0,0586197006781579
0,0649478542577564
0,0599407023109394
0,0626491530335499
0,0583726390914083
0,0627183258555059
0,0562576215135151
0,0620853936433387
0,0573577950271705
0,0640581200406616
0,0598745462981483
0,0616918091105737
0,056520526768321
0,0620788237491705
0,0543867257752336
0,0597819447519235
0,0586886399240027
0,0657693893655519
0,0550629003929951
0,0610103461535522
0,0562762687025718
0,0639985132701665
0,0543889604732574
0,0620112294152496
0,0561093121421692
0,0617415350762897
0,0521699272811228
0,0607511086089494
0,0534320637244018
0,0606357890113119
0,0546712475909331
0,0591054214610659
0,0516810939599816
0,0585518525752146
0,0508885923464708
0,0587770960340809
0,0519283385215408
0,0590268968309938
0,0511498590457103
0,0571955921734592
0,0525291663391898
0,0570373446179257
0,0539516868895349
0,0557006706294946
0,0519284597364287
0,0570608335196514
0,0486260698632674
0,05683517567771
0,0487414063418546
0,0577406749517264
0,0486794118983654
0,0568410411261358
0,0507299360244276
0,0560852182501716
0,0510752639687398
0,0576024757091652
0,0524559832422968
0,0572283757903972
0,0482739686608483
0,055717554979304
0,055170808957402
0,0558962474038859
0,0515881843648066
0,0571133794312746
0,0467635629568827
0,0568160944934293
0,0482829966443633
0,0553238881999664
0,048355074273466
0,0579021420344511
0,0517573270483679
0,058567971896241
0,0480352214807582
0,056322638284854
0,0477334135802067
0,0562236457063098
0,0491256046836209
0,0547427825263345
0,0494563095013089
0,0547531706641516
0,0508039575224244
0,0562268133186827
0,0515959382792243
0,0554908171866251
0,0476861166609433
0,0560362399397496
0,0457351607429312
0,0546075206969196
0,0473865777693268
0,0529316134758444
0,0471882936956022
0,0499957003187025
0,0472600215167976
0,052758830717479
0,0474136224065759
0,0502516971281055
0,0467237457374875
0,0523715220899585
0,0476590645898522
0,050533157226118
0,0444462318220829
0,0513963066304304
0,0449488742125124
0,0501984515052538
0,0436631883840831
0,0523299685828483
0,043440247858828
0,0500215627536097
0,0424627722641112
0,0511930125741468
0,0446975226984969
0,0496590092337367
0,0429384225587341
0,0488781368998217
0,0436177257543477
0,049698446802517
0,044965621062986
0,0484231984027747
0,0405073233946306
0,0477014196400991
0,0428366819763755
0,0465788572091426
0,0435375126474453
0,049937184125016
0,0420811558848024
0,0475198755227619
0,0423843491870259
0,0479973233801297
0,0408381267966239
0,0492501630155222
0,0423863766617318
0,0471024448820798
0,0405376472132971
0,0483974885894968
0,0412721491641722
0,0479174131010729
0,0429082183209395
0,0461579882124552
0,0423158014068883
0,0469610461008823
0,0423526331490381
0,0476018401609847
0,0406346579030164
0,0470715923832661
0,0389783611428002
0,0422913034210445
0,0382395734661357
0,0423583081501003
0,0391638664092132
0,0452864019980934
0,0395734320944962
0,0441966822246537
0,0380558805119119
0,0440419520338811
0,0364532877695081
0,0414009690252111
0,0372903893154567
0,0430182083762726
0,0356908133955397
0,0424396898750437
0,0361006719395717
0,0392515322853846
0,034105532752298
0,0401817712304768
0,035396530082722
0,0407014609354489
0,0334641349770977
0,0390607791456252
0,0375966404406251
0,0401102676763733
0,034900113515593
0,0392955451267537
0,0339632963403634
0,0401109797321361
0,0353275311144087
0,0378523390647256
0,0348511734014938
0,0406894987313629
0,0338891254924083
0,0383200268948946
0,0338193917428429
0,043167820954413
0,0338234913190589
0,038910605012903
0,0334565167593096
0,0374247047179492
0,0338685778674264
0,0394785325050516
0,0347734429737411
0,0400143071527799
0,035438280595498
0,0369106456757144
0,033432767400451
0,0412370213400692
0,0352769652948257
0,0407581955010085
0,0325283271805076
0,0382445111251821
0,0315598216926833
0,0390181850201874
0,0311081476358602
0,0395429624387173
0,0302488354443526
0,0376727292297507
0,0336543234050956
0,0377805855970677
0,0314150344926202
0,0381239817748761
0,0306457954271189
0,0336824846551021
0,0314761671585616
0,0380610215760447
0,0322267933868578
0,0349089227715757
0,0313211929854101
0,0376350583329838
0,0299524655700949
0,036297422925854
0,0287727343568766
0,034682539320952
0,0298035823465817
0,035681939001594
0,0293780273107487
0,0333719603439293
0,0328738701101735
0,0348220991608493
0,0304746337166703
0,0341965858116474
0,0299206521864076
0,0358406575450489
0,0274997645456199
0,0342420302602384
0,0314439421729566
0,0349306939198842
0,0303018053194246
0,0343036953470413
0,0309524421941852
0,0367063084901631
0,031251356588068
0,032767218845639
0,027018399065649
0,0367426234446266
0,0307887858327856
0,0333372703033253
0,0335832410690662
0,0336976516693127
0,028740978933343
0,0344496167678082
0,0292160969332254
0,0346250598711568
0,0239563404590381
0,0342266424943978
0,02971717287767
0,033780136782709
0,0313118375307874
0,0367250050888554
0,0303358739667028
0,0344333864042721
0,0304908567646372
0,0344252714292562
0,0315145033172024
0,0336156024212636
0,0314611178173827
0,032815738904988
0,0255497508272779
0,033286798065718
0,0292600267683423
0,0364911125185892
0,0289349817405881
0,0328941938112743
0,0258558577202777
0,0311317244304788
0,0292638562536732
0,0306029731997283
0,0285070000253161
0,0311590981077428
0,0247516595076886
0,0334390778420753
0,030088864821075
0,0318603419438745
0,0277144418494167
0,0327289574334836
0,0259178859730649
0,0314406322107727
0,0277366404394414
0,0340502760358209
0,0265985484760284
0,0304127491848161
0,025085299137763
0,0304216183875791
0,026023452244704
0,0318473626256672
0,0290051437255753
0,0299885351127385
0,0239089049670832
0,0323223539495145
0,0260728954715498
0,0314012760795514
0,0258145430975312
0,029129400229827
0,0264268848106888
0,0323446385726611
0,0272561102270796
0,028629169836976
0,0259649013857541
0,0328539902157734
0,026310871228993
0,0307558004477696
0,025681616736203
0,0291766668865899
0,0276232142796021
0,0300886381780914
0,0245941911479668
0,0309690288583732
0,0239807546232746
0,0318798599725594
0,0276990702176874
0,0297714701970108
0,0264603756670682
0,0281045457516041
0,0247589921821283
0,0316944662285525
0,0244733877570861
0,0296081318557867
0,0245204205646053
0,0293665834845783
0,0257196208638276
0,0306031726359885
0,0235932947958897
0,0298312265777692
0,0255759374767057
0,0305290352984547
0,0233089817617132
0,028415045165021
0,026895601278169
0,0287110133508775
0,0228520467998261
0,0256738854542531
0,0222446078106096
0,0293829790958489
0,0232077953540708
0,0287412421161298
0,0235921580207064
0,0261377093863368
0,023139098630738
0,0275455926394679
0,0243178672555015
0,0270859646822434
0,0234149078471324
0,0248188219378192
0,0236212743419843
0,0252420274237081
0,0197422195988631
0,0249707741342398
0,0215515041231954
0,0256322247750984
0,0214314392968594
0,0294274704075423
0,0239118077542301
0,0266132343523663
0,0216422318941893
0,0247197249127993
0,0233220468458363
0,0278871769416946
0,0236562553639461
0,0276800194898999
0,0235651125778689
0,0270215626377217
0,0218771932839092
0,0243852784813866
0,0219225223403021
0,0255771351626817
0,0241687213385253
0,0265480056049461
0,021450369268157
0,0256480018832778
0,0237124331894999
0,0252053355429559
0,0213679767292987
0,0245196234403943
0,0237394009555196
0,0268184071636588
0,0208016824793216
0,0263368818228278
0,0214764404853535
0,0244454206147844
0,0219448345591067
0,0245357071913958
0,0194089438964203
0,0243450964460619
0,0192381398590502
0,0246123249341366
0,0218716324003317
0,0263113922796542
0,0195409973709133
0,023404103003316
0,0209056567530445
0,0240333441646019
0,0189359443942137
0,0249019535829007
0,0188836316286723
0,0215094320073096
0,0202912547667128
0,0256216696251572
0,0175934089308128
0,0227288997349883
0,0179477532590483
0,0226036221979151
0,0199813878261248
0,0225482403143342
0,0191974848237521
0,025082412887458
0,0198892398250789
0,0239677331522112
0,0200035525874673
0,0239138836786929
0,0216049846585769
0,0252947224322084
0,0192783866251579
0,0238475136895858
0,0195738191495337
0,0234089935863365
0,0180610909720314
0,0233648240374216
0,0185647987131697
0,0216622749772965
0,0193333024237394
0,0217027115587284
0,0204111480887369
0,0229577690583285
0,0179466258947631
0,0255217003057321
0,018816103869908
0,0240636849721361
0,0182261331783959
0,0260435223792528
0,0209690131749767
0,0267832219796328
0,0226608190016693
0,0272014927386953
0,0233127887277551
0,0292025388668698
0,0183889009665258
0,0235402037180377
0,00552513855539042
0,0176329808785192
0,017135965516432
0,0264292115461718
0,0173853906569687
0,021396704301606
0,0118810267499272
0,0276269060921834
0,0111063887195467
0,0215296794311685
0,0170763063753381
0,0234396074934869
0,0186886198742818
0,022514764662075
0,0134027696677161
0,024780639795797
0,0164170998845692
0,0294472956929365
0,0177813093885938
0,028014043045199
0,0218744256722585
0,0253580322575912
0,0138294816671291
0,0241042100777465
0,0121876772259092
0,0195483899595921
0,0124573038502627
0,0219184958535775
0,0118339258035039
0,0214615623043072
0,0158079247098052
0,028251066130031
0,0144441006388305
0,0270662536538439
0,0159831212837977
0,0265930995420895
0,0123735164735504
0,023286627504599
0,0122901289424699
0,0212831204885947
0,0144014686625232
0,0289022556042882
0,0197109508212324
0,021533141501995
0,0127830736281049
0,0200707268867156
0,0206502787747023
0,0265035093464106
0,0154621062128242
0,0146353265447612
0,0258168859397511
0,0276031926240575
0,0246070058487398
0,0106794305225347
0,0278202107622629
0,0189040717461385
0,0260040492956693
0,0146014884735795
0,0313134905167511
0,0142828816415158
0,0249274944670989
0,0192710403746299
0,0206006887650354
0,0200810005128331
0,0197658374220329
0,0234541611147664
0,0149718313000252
0,0248013222794157
0,0177473321371501
0,0222364647714203
0,0187071340682125
0,0214710839734848
0,0192270308446527
0,0189794161553869
0,0179436862001734
0,0207305447899931
0,0194764092648978
0,0197960380197027
0,0170746766896595
0,0197150323088472
0,0160900427233846
0,019429492659262
0,0166542290523291
0,0201086781673589
0,0170818315940298
0,0182898230885934
0,0170307131423461
0,019339959555917
0,0171828513500201
0,0189988069327875
0,0159287642439001
0,0196168286838605
0,0149441844394287
0,0185104945008915
0,0171291160568822
0,0194106296179875
0,0140744599615804
0,0182674760771198
0,0173523361954372
0,0187902977623591
0,0180252418291617
0,0201666470397507
0,0183384480740137
0,0184354654290288
0,0147518970066494
0,019379282476348
0,0191191287194628
0,0196868271906751
0,0150284076186455
0,0191255323556597
0,0162461934125766
0,0213374235617063
0,0162108977464189
0,0200087255138136
0,0141293692505029
0,0196877407790258
0,0166465415044782
0,018659394142539
0,0170809274550064
0,0195804508740349
0,0166371384748521
0,0189310202809444
0,0163726639585426
0,0196439994010576
0,0189126524633031
0,0194370791842476
0,0156932110275754
0,0189387710262661
0,0157246927541714
0,0191240896862455
0,0160295094536661
0,0200518526617991
0,0163110239462764
0,0202956278907932
0,0160474217232159
0,018214831474397
0,014751611760782
0,0198224200250501
0,0167499655649478
0,0168322429549717
0,0167485551206912
0,0187177443218294
0,0151250486079018
0,0173509064147971
0,014063740077224
0,0184427270772892
0,0148005184260669
0,0174782190207891
0,0174453635608914
0,0185288281614551
0,0136565133580628
0,0177611065159001
0,015510444494075
0,0175995360050997
0,0146723472230578
0,0178658275900789
0,0146610436882477
0,0212314219226903
0,0153349221499537
0,0181684094281623
0,0177649502702521
0,0178720355158828
0,0150422182004282
0,018518695890756
0,0178230961009537
0,0178246363296592
0,0163480354999176
0,0183125349056899
0,0155347646377548
0,0179176978784776
0,0153441874445443
0,0207217703406929
0,0179978356006026
0,0202249282471366
0,0162349843648925
0,0178757768609652
0,0143726439614604
0,019967602679928
0,016428844867898
0,0181696188614937
0,015180167489931
0,0195007733125776
0,0174680257972317
0,0204623770570902
0,0157754067027905
0,0211854994601
0,0173880206879954
0,016553666925801
0,0153121114503046
0,0196974596679895
0,0164981722569314
0,0187707006107268
0,0176151903552584
0,0191148831840563
0,0155274452025636
0,0192704996696482
0,0146301811455438
0,0178304316774166
0,0158108860453758
0,0174136144283533
0,014569480939899
0,0180744719582314
0,0180604163538275
0,020812280510512
0,0163545170250828
0,0176442122589526
0,0154583704973637
0,0161608514699689
0,0155641641232848
0,0194627992765658
0,0158933077615176
0,01947799090416
0,0152663913656413
0,0200346318192404
0,0153569100652705
0,0189890753062318
0,0150820097776611
0,0187194681329696
0,0148772215163619
0,0209408513342807
0,0147323227734895
0,0199537151527395
0,0151788005776322
0,0184058143452526
0,0168012805781439
0,0205615414759797
0,015903683230875
0,018474290807627
0,0167193520885562
0,022048005560752
0,0168960948241175
0,016625419611963
0,0175948792119202
0,0192623371324213
0,0154343653965036
0,0204402436578232
0,0163601523068572
0,019581247386047
0,0163593419470997
0,0175334637028144
0,0151832089306091
0,0187302390890503
0,0155487087391584
0,0188870727381411
0,0174738836252944
0,0184244764853156
0,0169848944602827
0,0196355084408193
0,0173111850403416
0,0208161868148048
0,0165783023181937
0,0187373419084844
0,0147318852510657
0,0209752886243037
0,0161208371441937
0,0167042247502905
0,0152458175806555
0,0200754165615562
0,0162481589193267
0,0197473147911637
0,0155924351497097
0,019586899435725
0,0148015170466938
0,0169820028555912
0,0174761048169829
0,0203035826979419
0,0150549142197151
0,0174899331723412
0,0161706915875916
0,0180175025263033
0,0176613207017782
0,0180331298975252
0,0143304030738828
0,0186461207298831
0,0151880267971637
0,0174907103438793
0,0151200088200622
0,0203890751269574
0,0147978059899622
0,0174389533943028
0,0156269538047987
0,0199774883263432
0,0164882227368974
0,0189351762186175
0,0172590346923721
0,0195367926231182
0,0147474806067621
0,0175591690770188
0,0150243237026769
0,019206191241317
0,0158882414858828
0,0202802540269735
0,0134142701827593
0,016740387457058
0,0158008184963761
0,0188934022945412
0,0164555736965469
0,0196481973065734
0,0148140483302172
0,0216952549659456
0,0152875818706519
0,0173035729590597
0,0175052249347811
0,0186521763995148
0,0149349554970549
0,0159918920954512
0,0162082316782402
0,0182253636452884
0,0144599876334122
0,0167739739680967
0,0161722001365473
0,0166223073546526
0,0134616095075957
0,0192775807561354
0,0160289174807922
0,0178890554224347
0,0150238819643452
0,0177168476228808
0,0149677967643172
0,0173597662592101
0,0148807017111322
0,0173881039512962
0,0133444864108875
0,0169825867901695
0,0143931285309432
0,0170080370202627
0,0158918860723584
0,0196138518399523
0,0134336752383782
0,018504923710053
0,0129442801406921
0,018474342417394
0,0166973842384835
0,0182803457977032
0,0155757888966814
0,0194624317908479
0,0134456055823738
0,0158231881732386
0,0142024194652032
0,01711412313707
0,0157951714300566
0,0172905386720157
0,0154168603819587
0,0168557009939674
0,0162768289654486
0,0179654227610474
0,0139609203429298
0,0164989596150586
0,0154527479409539
0,0172326389310595
0,0126904825982336
0,0174000528250082
0,0150687135274365
0,017585651575263
0,0150454094203261
0,0163166189147602
0,0139575162786587
0,017207307373741
0,0150548932298771
0,0175457947652471
0,0158541845763019
0,0157677625529624
0,0151930735558797
0,0177330272877686
0,0152724638145598
0,0160739270390218
0,0135691701305547
0,0155558770371521
0,0144654646094084
0,0165882812909403
0,0125568630072666
0,0175149834836959
0,0124437119951316
0,0136793330434456
0,0114290437120247
0,0169713700471186
0,0148070720128673
0,0164207856520259
0,0180457249213608
0,0191711000318361
0,012995830545463
0,0180047134808377
0,0129323979547507
0,0166888017940279
0,0139716270744392
0,0133505002733128
0,011742597117152
0,0154374146046273
0,0117352595254901
0,015081690460577
0,0125110538134649
0,0154951690538009
0,0124956823695624
0,016593544611118
0,0111501847864675
0,0172162446657684
0,0133280971157218
0,0163191538392834
0,0134262757252361
0,0167644477789042
0,0110544871874163
0,0156734002565744
0,0129239168618981
0,0174620816165969
0,0135746005818146
0,0249744964567652
0,0163403970277117
0,0146195554512783
0,0141960055766772
0,0184381084611337
0,0157530004231575
0,0149164099003654
0,0121534695678183
0,0166624335747806
0,0127970922862477
0,0155114075002587
0,0126889393922002
0,0156893833333355
0,0139612502294126
0,0157713009267526
0,0105354888599203
0,015150250809409
0,0114964234452073
0,0159651534910756
0,0121138221426729
0,0151713102477982
0,0107913067024892
0,0146167518367497
0,0133784760129796
0,0157411286704017
0,0120525568901311
0,0174648373372942
0,0170175857153968
0,0182763785651609
0,0114113029804729
0,0124915935596406
0,0121761751205234
0,0131629500340971
0,0131861881984324
0,0157727551509351
0,0129732524033624
0,0153844372682088
0,0114708122618231
0,014319962400644
0,0146120877641779
0,0149392682170638
0,0117563283801161
0,0152096167390024
0,0120340961551078
0,013558386437892
0,0107138420636915
0,0142582995755405
0,0120365201979011
0,0129956054300636
0,0159891404273808
0,0153107841211569
0,0121689787773462
0,0155733571341491
0,0269349269430122
0,0207364353172429
0,0134804063991929
0,0152983758787895
0,0115503584917599
0,015515817947935
0,0120196798180968
0,0153018194410553
0,0112440329797433
0,0143646131786066
0,0121748501227882
0,0128364372067357
0,0122832867450784
0,0176095233945388
0,0105975908877763
0,0154248988365215
0,0119021823587395
0,0155075132939795
0,0110548012197546
0,0140814912186879
0,0117326054665916
0,021999179044548
0,020302454698981
0,0159508696878753
0,014167086739949
0,0112286188637974
0,0182465192326143
0,0308448436863556
0,0072636162229146
0,0192043311947
0,0115681053637599
0,0152140202107486
0,00713906164212221
0,0140774521762463
0,00898414623466592
0,0207100440872316
0,0114718251420261
0,0159881695832703
0,0144178025867046
0,013485376531727
0,0120996494018214
0,0154734923640827
0,012149575373795
0,0141382783375063
0,0127308124510695
0,0150646528501249
0,0115243051741419
0,0161966876624578
0,0104811210951131
0,0148305521954491
0,0108791593928327
0,019173171496095
0,00986102550044587
0,0151404431835984
0,0106952619723208
0,0138162724070742
0,0154441250544972
0,0295106517938845
0,0145795727147532
0,0130444862560458
0,0130223749841351
0,0140679670185761
0,0133914204596235
0,0154712305287547
0,00960925796867069
0,0128897426280186
0,0122731239701492
0,0137661860468354
0,012425420477701
0,0142089974450527
0,0114939628302367
0,012922721989718
0,0132066926984143
0,0141121471435419
0,012878007160281
0,014830439091055
0,0130736721738456
0,0162403065782119
0,01461913957593
0,034546058710099
0,0156627310304785
0,0235634843037169
0,0154527787392265
0,018414555740619
0,0105465431748152
0,0150582026471135
0,012151401840648
0,0163774690109159
0,0129125093310672
0,0143946259232059
0,0133518988227497
0,0138174107521319
0,00955024530287905
0,0160378531059535
0,0137646050469466
0,013189209427328
0,0130353744133281
0,0140574497886076
0,0135616696492075
0,011920039006435
0,012618940815336
0,0146274166733862
0,0219046173982894
0,0106314382218318
0,0125172596004328
0,0132263289252517
0,0433038558017333
0,0145565821708073
0,0178786170208997
0,0147534537915483
0,0109447603048023
0,0161613297629167
0,0129086186837354
0,0194606585409773
0,0128063455973652
0,0124880739552814
0,0129671415545817
0,0158141378134436
0,0110672864744612
0,0110574759763741
0,0114130447613993
0,031486670470374
0,0247067195134882
0,0164770721300575
0,0149400264130991
0,00875686010106506
0,0294589419190921
0,0237686339318436
0,0115869292343024
0,0195809016534174
0,00924533335797245
0,017396430108388
0,00995121688719074
0,0162625096303479
0,0156979867804598
0,0186469509487846
0,0115974086843754
0,0155713112855113
0,00931189055209326
0,0156327007991193
0,0140318542954215
0,0182391104051341
0,0210496140768286
0,0189720724141452
0,0111154328505684
0,0221142890933777
0,0105272311866212
0,0187435461242099
0,0107194209094615
0,0158890575154757
0,0156373112308646
0,0220328087570149
0,013452148546152
0,0216054549288876
0,0244172292283858
0,0164273938330259
0,0122085347136722
0,0262261754697588
0,0128404148851388
0,022391171599019
0,0030022999779222
0,039817517788726
0,0228384495387374
0,026465461363717
0,0210796062727542
0,0132460160981559
0,0189989518689415
0,0113311002223847
0,0169947847762051
0,011904267384013
0,0269603122937756
0,00552634592064087
0,021197043598291
0,00711528776387627
0,0263706811124425
0,0139939201075287
0,0187604304788647
0,0118066898032928
0,015869952560602
0,0127199545773147
0,0236981619069177
0,0059414750145887
0,0287513660500014
0,043255044202303
0,0220337560374971
0,0290467031936371
0,0133742719213671
0,0347687369707802
0,0287572468594166
0,00948030559227586
0,0202947799877442
0,0122279076402966
0,0164037003763022
0,00850237629315821
0,0335096944484114
0,0300424794411946
0,00805190381793131
0,0197080734676809
0,0131600409890878
0,0259751325135634
0,0315512866683056
0,0124210917637392
0,0184234696108058
0,011666049327159
0,015997048850043
0,00847955362183358
0,0505752401028683
0,00978941372769089
0,0395500484682897
0,0255853553386059
0,0251707692786986
0,0235259791553285
0,0198666213602347
0,0233282507516491
0,0321779646032157
0,0211030640625688
0,0148407130639539
0,0154985101918633
0,0413830706784849
0,0223244092621879
0,0144448283739308
0,022036584316269
0,00404016736488626
0,0229558095228338
0,0692132261754637
0,0446798517567742
0,0219964068313698
0,0218334703544099
0,0321507396988294
0,0303379272520054
0,0124696663240824
0,0209842606217107
0,0169633673856748
0,017444072662567
0,0180838737296336
0,0240991657187093
0,0215246691824034
0,0150443480141914
0,0238229259441799
0,0119416788538012
0,0283024521572449
0,0583537747342089
0,0472678599522339
0,0384662389338485
0,0248587283289482
0,0486708564972702
0,021168179896952
0,0289002042196301
0,0172759536292407
0,028186818066969
0,0224834456705191
0,0222495104571239
0,0242845132450006
0,0281600466242778
0,0381345554107262
0,0246273277065913
0,0447021230883248
0,0325384005878511
0,014547811144302
0,0317867186863852
0,0523589267133565
0,0863002949813889
0,016155471383871
0,0505574528136664
0,00517801546856913
0,0962530746027239
0,0485219740974844
0,0354488065939727
0,0343790643553508
0,0362063855654438
0,0323621986760023
0,0502781313034724
0,0407403361267728
0,0542955631033298
0,0409337419297419
0,0464892710520313
0,0280063851766526
0,120481152887603
0,0843390179514531
0,0710028396617954
0,0485924805875403
0,0668048549169333
0,0619949903097781
0,0609261442400577
0,0481068616512607
0,0587944907869527
0,0426470051976954
0,095514129294102
0,0736827316824095
0,0563036488075254
0,0715179766202085
0,0665164799415189
0,0805663597870803
0,0577556261468427
0,116485241368039
0,0639255202242133
0,0788370074143703
0,0655504924041581
0,0712565844606424
0,0739192637800952
0,0860856661954494
0,0968155708065603
0,0764834006252162
0,0826628917005414
0,0761559501684089
0,0804057952724787
0,0788098553500922
0,0824360060888665
0,0835742892979066
0,0804656325688802
0,116497227236541
0,129045389306385
0,134411670938039
0,0789187755196798
0,0872964826433075
0,0790432627328875
0,0955361873068987
0,116376383796408
0,0849386798141757
0,119425391741644
0,0781943616644919
0,087031134758599
0,0855794791824845
0,0836848388308277
0,0875185595340006
0,07662331817024
0,0896211175782295
0,0775535464901039
0,103335557967658
0,0507945619068685
0,149523952316674
0,089536447345486
0,0804406941173556
0,0800115771141549
0,0798677572971763
0,0742682877862736
0,07866417282989
0,0756554279603909
0,0859470107609258
0,0850875236764892
0,0665593169234281
0,0835852864290585
0,0639657877049002
0,103661166377957
0,0721946766771359
0,0726959160922486
0,0726323634963477
0,0597242514715554
0,0686397277271461
0,0609378286218557
0,100636789281865
0,0838198695394324
0,0581401383068067
0,0701255703627178
0,0561420226860002
0,0659049242941597
0,061859175419003
0,067147739371781
0,0613624469844439
0,0653013732974692
0,0606440954180607
0,068571770619967
0,0538724996139276
0,0624569788797944
0,0598347626011529
0,0685806277364742
0,0541380531806171
0,06689207825019
0,0547160448544986
0,0617725306897986
0,054125401356743
0,0632793065225775
0,0570869312712967
0,0666623132736222
0,0595441376926811
0,0559329830304255
0,0533473780592698
0,0604950894619058
0,0550277733696101
0,0616879181222891
0,0525506030754292
0,0591254538208943
0,0547341653171304
0,0591438193508159
0,0527155036425655
0,0560984237815794
0,0532959508614746
0,0597634102002038
0,0536743288867368
0,057199836826751
0,0582146485805677
0,0552247748633445
0,057971615651688
0,0575525244655011
0,0996021113066067
0,0536445912700001
0,0547100506715966
0,0584196402976912
0,0505006494701068
0,0587584016821838
0,0581306667099113
0,0892292134423655
0,0532852971188162
0,0555078188657365
0,0513006232965973
0,0586542746872171
0,0603281602580956
0,0607772500525953
0,0432021650700916
0,063633817330168
0,0195532953839248
0,153029913871002
0,0619398276361239
0,138503429504439
0,0720988867414573
0,0587548417979426
0,0496236896840414
0,087688582606872
0,0669614046655931
0,0412823784003419
0,0659250847569834
0,0569531323168672
0,0753733902171303
0,0517125578508724
0,0523441555930513
0,0528239681248979
0,0499171587836772
0,0724360138980949
0,0674391757666959
0,0539248124819443
0,0863179301317998
0,0753908454628769
0,0645517308695496
0,118110409577406
0,0819796825618568
0,0568465424490604
0,0469011883462643
0,056895090576539
0,0573318091507825
0,0793644673292479
0,0730773715334881
0,0528229642205778
0,0568148941610754
0,0398868294391086
0,0556097077453168
0,0611634867725499
0,057924838060094
0,0598219686522752
0,0554094188842222
0,0689806309023484
0,0265857311870744
0,0803940487816702
0,0516787990723915
0,105541522871028
0,0514898221041349
0,0534229027652803
0,0445573250494027
0,0874780268562253
0,0613769712750562
0,055621947750476
0,0498564984521835
0,0459440935059842
0,054534881916742
0,0572384396629002
0,0401842638941489
0,0697769679195719
0,0604042484159156
0,0815084063793922
0,0950887660692169
0,0810267448416487
0,0588425011543073
0,0434624320955463
0,0339648869002509
0,0512956673487876
0,0342836986519904
0,0513017779823663
0,0222529330707277
0,0661130428376844
0,0369413487077211
0,0675183276560062
0,0625682633734158
0,0402390380986273
0,0417470287779041
0,0441996314455868
0,0420917399659193
0,0738739595813692
0,0669701680532003
0,068700554911796
0,0407944516337481
0,0599736455291261
0,0525608133670404
0,0466929150026998
0,0488654596024272
0,0492555637244586
0,0492134500964745
0,0497465652699376
0,0525498375669661
0,0527211485787518
0,0477867367918219
0,0564920992599209
0,0588841410937415
0,077477805488033
0,072207337438517
0,0470408257261468
0,105912397814245
0,0744375302044685
0,0927907562073863
0,0626209899766649
0,0692235377835658
0,0692036062306257
0,0639634354714708
0,0735957910324065
0,0716310019077968
0,087899598174698
0,0857778680667962
0,0666576532440724
0,0821140110327261
0,0651806821326457
0,0905944002197518
0,0753256858983408
0,119745798533598
0,0728711541480627
0,135462939892773
0,0940933570239007
0,0881720293178768
0,0838984315332083
0,0801150188051458
0,0937670269074326
0,080184082314176
0,0856347183227018
0,0836248580214898
0,0943129069656855
0,0966652637975939
0,0802669900194496
0,090564190981206
0,0837063012097254
0,0860600547227397
0,0854573087034805
0,0831961421724069
0,0894043612818529
0,0882171659137339
0,0901339421673069
0,0920074940088915
0,104664219623673
0,128151515624575
0,0823123952772857
0,102906892062691
0,0927684622050777
0,100655166503337
0,0933374205012149
0,0971580115738495
0,109912277969643
0,096342737744591
0,0965004183205909
0,0966657386155129
0,0930638662480369
0,116140873802499
0,104134427470273
0,116119080553606
0,0881404200487329
0,116029056518962
0,0781852742890276
0,152788381650617
0,117233204172413
0,111031160594213
0,115465056504988
0,102006557167864
0,106859820784196
0,100033180562306
0,105249326034082
0,102154697484308
0,108130155434682
0,103319736962593
0,108726154710248
0,100794665576586
0,104451109828687
0,107288598905597
0,111352062626656
0,111716616414859
0,097523324270295
0,106043034437474
0,0954821673606658
0,106076718264154
0,105470598358556
0,123426330392327
0,101818659358242
0,103821930680634
0,10870988534505
0,11608530317029
0,114587839459578
0,10074802598008
0,0919245475198561
0,104838067220762
0,0928333750587176
0,102535965757329
0,0961673548517292
0,11168732589385
0,112587480399865
0,0972211233202447
0,104442227242154
0,102050033825268
0,105561158789666
0,0989906272585298
0,106026052881153
0,102888186427185
0,110876579637038
0,103914058888275
0,108077715196044
0,102241881474801
0,113236319760176
0,109040914194317
0,112991111421302
0,111107612958844
0,102089819343033
0,106145839446334
0,104594867044816
0,112259292480837
0,106206961378826
0,10320141079816
0,102693423622797
0,0982717197478364
0,106544686410131
0,11273463054944
0,120453309604472
0,0945651728916291
0,112547512095797
0,0936159160833919
0,101838702884867
0,0934863938986118
0,0994788898766106
0,0944626091803586
0,098416709660417
0,0941183360569199
0,0964721103083032
0,0933571675009771
0,0952458092292668
0,0920233345012488
0,0957224990792307
0,0906423679932083
0,0919251070263839
0,090138170309439
0,0919547564533606
0,0886230178648387
0,0948638508692224
0,0896009685686026
0,0957412884591544
0,0924450865507519
0,109125469043257
0,0959573241459916
0,0996450866675926
0,0927256902162695
0,0974917337421285
0,0893724913727526
0,0878583986135584
0,0886951941402383
0,0880626733432432
0,0901783678512038
0,089468979769475
0,0893312109472832
0,0870682285652962
0,088436249866866
0,0861605482043204
0,0874072303316377
0,0856100449456325
0,0888884897053541
0,0839017986101786
0,0860769208706195
0,0822217192212659
0,0891354102354647
0,0877529492492557
0,0898519782106599
0,0876290591180301
0,0852982789245381
0,0857754272629018
0,0848861792342715
0,0869783209057936
0,0864451548132128
0,0868669225759526
0,0816491872502099
0,083070685452351
0,0843489327430614
0,0839476403361915
0,0819034555237326
0,0823708756839114
0,0818192440268013
0,0812837062661355
0,0810021308800878
0,0803533118280153
0,0798811417103951
0,081166227095588
0,0776338116034176
0,0775603768231005
0,0776407775359155
0,076079676695202
0,0769381142724804
0,0777913794795709
0,0755520561661792
0,0739852736295334
0,0740730042423027
0,072478263830375
0,0722574644049602
0,0729816711613
0,0713052481900534
0,0737497741752202
0,0697321699937903
0,0704462030265041
0,0692750662893633
0,0708067851048987
0,068746329804765
0,0707046812591195
0,0678999824033526
0,0696752380087024
0,0708367920842312
0,0701494988468951
0,0711461782977627
0,070154575460139
0,0690820249364218
0,0708849242598687
0,0706297587961143
0,0720082321333076
0,0722084613208155
0,0741662485549693
0,0704058278826534
0,0730854010491073
0,0722174264194406
0,0749784273193047
0,0716917984394995
0,0725426702559779
0,0726404036266271
0,0761111183182246
0,0719963149874718
0,0748029588459974
0,0748459263930684
0,0761870436084024
0,0734101825582899
0,0733002564467172
0,0714828772392339
0,0737107032729324
0,0743864159973947
0,0733125367589655
0,0743018939562485
0,0729891092704688
0,0720224264875628
0,0738546773076976
0,0733267491304304
0,07153412331314
0,0709720800225979
0,0732312136187289
0,0716114865542194
0,0719646917454123
0,0710486085619962
0,0720041033804157
0,0713428657128751
0,0718711791886088
0,0716969990857907
0,0708572302968701
0,0712538058250535
0,0693838490529315
0,0698434594525714
0,0715179885368294
0,0693214596203672
0,0694903147713815
0,0700534650976761
0,0699860523075223
0,0664437015918291
0,0674628799581341
0,0671919361739462
0,0667758255569284
0,0671759103073252
0,0667099593828967
0,0644535312655887
0,0648964283399236
0,0647925358481014
0,064216987303372
0,064209880966203
0,0635378106382623
0,06227374603405
0,0618787824126259
0,0621004351873707
0,0620361561538166
0,0616373558757781
0,0618733015291209
0,0613600110113029
0,0602695572738749
0,0622174222134496
0,0616569139367408
0,0599830918538299
0,0604217795293054
0,0584405585440899
0,0608072472297651
0,0603668682294964
0,0607750121566595
0,0587988829290312
0,0603803888853782
0,0604172826071169
0,0625154237550345
0,0596354062968102
0,05930388810667
0,0586041452654179
0,0581625766459934
0,0581703919784066
0,0591267524599015
0,0579157749644127
0,0562320850435084
0,0568725691418621
0,054711161040105
0,0550833866420951
0,0548459500201302
0,0521742990779379
0,0527690729193811
0,0521523975841632
0,0529769389905712
0,0517472968063985
0,0525965192888694
0,0539609334931117
0,0546970702534585
0,0548453296448274
0,0574014275818938
0,0585369087049612
0,0600973742674129
0,0630703624379694
0,066750400117554
0,0668420058891457
0,0716751316298317
0,0758010079217747
0,0789709775063965
0,0831654151851712
0,0859631082281048
0,0912904507289721
0,0949083209603046
0,0994593243541019
0,105306138355246
0,108362775822082
0,113527054032715
0,121476043955649
0,125770905172886
0,131062737044726
0,135924362980374
0,140153691519027
0,146388329874206
0,151168619774025
0,156888912128108
0,162335513041321
0,167399573466626
0,169623374663493
0,173047061832241
0,176361387173522
0,178467717472949
0,180648395399102
0,183545931802626
0,18511716694026
0,182619172446138
0,182856617699946
0,182626895275187
0,178758545378679
0,178691881195067
0,178263861514525
0,177348141320345
0,175420788863601
0,172237680232788
0,171391925050158
0,1674910152129
0,167304839602574
0,167273648182752
0,166347771488129
0,166791248627392
0,166263545919146
0,166360521344653
0,167137209927609
0,166482661867421
0,168032946748534
0,169098617646606
0,169015124571409
0,17215190523008
0,175273652781626
0,175904827966028
0,177879622548189
0,181408736083567
0,183867765690516
0,187407233783044
0,188279431230314
0,188749620246181
0,192581954335442
0,195149071160015
0,194568268564047
0,196617110403065
0,198594119795066
0,200043740789055
0,199951512425941
0,19993452862556
0,200369738601796
0,20313766035777
0,203456885989814
0,203341770023442
0,205383888310768
0,205122524919235
0,204663242860389
0,205082837608144
0,206930862203433
0,209132723776333
0,210297692571613
0,213864982601296
0,217748111697992
0,219830560713448
0,220253077084242
0,221874990021478
0,225490668725126
0,232260229983142
0,231428720958926
0,233053196882646
0,23470266618707
0,24036905797276
0,243915131962051
0,249776592882875
0,253436998726514
0,25822660817817
0,260194937606665
0,267122573788576
0,275834335339995
0,28117022519535
0,288871314601014
0,295740061641329
0,304552200942464
0,313951954198867
0,315852804914741
0,320903448350582
0,327584310609119
0,332686140626419
0,333231953585926
0,334214004914353
0,334372046485344
0,337519832557754
0,335296533150488
0,333335059226752
0,332180613145421
0,327093425290076
0,324614551612925
0,323220505089946
0,319818553869275
0,31651779045247
0,316480641431428
0,316285398990004
0,314325449133791
0,314446338734716
0,311489362394503
0,312868302325735
0,314405228525306
0,31796646506136
0,318990195757842
0,323303805830933
0,324909528029727
0,330255296896022
0,335654921383817
0,336282412703978
0,3401579032786
0,343559656134505
0,349082039534448
0,351655040289688
0,355994188192899
0,360587496119143
0,363482110937512
0,367482594105481
0,36778974619458
0,370358104137699
0,379783030821803
0,381532844098717
0,380879619053527
0,38158008167277
0,389398422677319
0,392418618144307
0,389756986404897
0,394924708413446
0,397513107537954
0,399760587612827
0,39707232036422
0,397784315719356
0,395142647705978
0,399967091778256
0,398723396718778
0,400077327299253
0,399047638634949
0,399894415176916
0,39976108890703
0,398007412810436
0,398336731221754
0,395563542081346
0,391653749548922
0,385837358311833
0,38254086790231
0,379945254547549
0,370905951885156
0,364842090227589
0,354195323746421
0,34632119639709
0,337816693787016
0,326313544166453
0,316721088801394
0,308172604405186
0,294089410629978
0,282353095672259
0,274743584281282
0,265923305029915
0,254434024714194
0,24689034090406
0,238419303227383
0,232662612544389
0,226474722796693
0,223478717064016
0,215202290593311
0,210281485592053
0,207569384233131
0,202785586760031
0,198908370388361
0,198471856753727
0,195169248517968
0,193222073552505
0,190240541580284
0,182929023655813
0,180913262252773
0,173102535907556
0,168001003363332
0,162257387850322
0,15881285995913
0,151716600511777
0,146795311765849
0,13638291169424
0,132515855768506
0,128276742840245
0,121279451366414
0,116060181778647
0,110778012307332
0,104707712282233
0,0959231703802066
0,0943942184529315
0,0887350090565558
0,0830332044668966
0,0783756348524539
0,0728809419160996
0,0682730339785187
0,0663126606301581
0,0625766261262826
0,0620458197410507
0,0576036892514297
0,0547280569311078
0,0514102594295402
0,0514291504445865
0,0475197727444257
0,0468401435436506
0,0462343037411905
0,0428971771524767
0,0419878468258049
0,0407254970232074
0,0391166684874026
0,040319732236512
0,0401236743529431
0,0406930808848491
0,0395748031281618
0,0393794402252884
0,038374937721912
0,036603370334619
0,0399956465402594
0,0421779809368089
0,0401684263942071
0,0407871239981481
0,0415865802988907
0,0406165318734417
0,0442280442193766
0,0423283275865391
0,0402110533266933
0,0434452347677121
0,043530443146705
0,0431306277511545
0,0444459440349111
0,046216877633406
0,0485421243872344
0,0450472294180241
0,0483994221359816
0,046699322567252
0,0468994445862495
0,0457367239686202
0,0467087029140736
0,047820715104747
0,04762474567105
0,0486760402951716
0,0506809213035857
0,0494185627121785
0,0487410273522231
0,0505527548134584
0,0494975160638324
0,0513559768350557
0,0524429774988626
0,0464873911585493
0,0488967567113728
0,0517276549585893
0,0478559721869075
0,0501849631418389
0,0483550750993605
0,0512292665711242
0,0494011084263024
0,0490259380676201
0,0528313191982586
0,0526738599876755
0,0466697887678623
0,0485905698843335
0,0494962698967709
0,050941447063176
0,0489192788381899
0,0488795171727294
0,0492678859131897
0,0479021340951445
0,0472251070124811
0,0508589158690783
0,0506520301761139
0,0502545718106358
0,0534039408978357
0,0538229942644063
0,0559541174153547
0,0541655918229365
0,0561577562557948
0,0576771812103864
0,0532264968413872
0,0589150848532723
0,0596461879581605
0,0607480693588694
0,0605037045168255
0,0592706489212455
0,0571297806049986
0,0589954406975565
0,0593116274600891
0,0594519099145313
0,0548773993222889
0,056094439044447
0,0518801786408102
0,0543318347923293
0,052208455103709
0,0472131352307284
0,0536001315344012
0,0502269544473302
0,0506428158794502
0,0517029571948728
0,0462419193212479
0,0506150724835468
0,0510225376276231
0,0533752829810659
0,0527776686386854
0,0551669197625013
0,0501078029918114
0,0520762825347224
0,051467898514079
0,056727936175829
0,0502006323396081
0,048697086257014
0,050853261698338
0,0520264627105096
0,0493821481945136
0,0499815976170825
0,0541094246319532
0,0521491480408857
0,0503177657295271
0,0504956002779643
0,049123697106179
0,0538547500605212
0,0506444331539864
0,0495240903413225
0,0491550059309227
0,0505197119251647
0,0527877580380103
0,0512435029078734
0,053518769810202
0,0530776274537566
0,0528152468021574
0,0558958872117393
0,0556937988990458
0,0483424456697517
0,052167182873289
0,0474410819417751
0,0483038751326287
0,0518738858251063
0,0526770870029342
0,0469725662923258
0,0543246468414615
0,0493973439337761
0,045245885994307
0,0474318410589756
0,047437880522263
0,0452420156908776
0,0520176315587416
0,0432100431505865
0,0513396937511177
0,0498945910680186
0,0403894083327144
0,0411079610370556
0,0385502153781836
0,0405314184274875
0,0426330801509214
0,0444429227508625
0,0436113685682532
0,0413300079991145
0,0453583825501375
0,0431195638495237
0,0431022473821296
0,0403369830092201
0,0434459698058074
0,0531759937747026
0,0452669063997477
0,0427459984148183
0,0399472209997894
0,0412783678945448
0,0428689462410837
0,0477721569464446
0,0384754333343216
0,0449596769906876
0,052681032981139
0,0486313619392215
0,0440133510756571
0,0476169080417092
0,0498564922921358
0,0471494311061655
0,0458679057844355
0,0507743195195667
0,0482697148931678
0,0484291027858159
0,0492834363477859
0,0537582755254946
0,0527682755945553
0,0670554632538125
0,0588896273489415
0,0582045054374981
0,0546966099211061
0,0670161207319698
0,0539624827832737
0,0624990930375535
0,0703083210503195
0,0638969727281181
0,0645000595601997
0,0736999521349024
0,0730802779073014
0,0754826974583386
0,0698004396215619
0,0806270857226803
0,0760340909267888
0,0773246165606065
0,0821583299619464
0,0811128146164609
0,0831873385739978
0,0852518757037519
0,0756966368044308
0,0685172505482838
0,0794384195137627
0,0784396361625882
0,0685901336103191
0,0870239085978437
0,0735024191184778
0,0794862067978388
0,075430481315708
0,0755325348099416
0,0743501512867364
0,0823860897166998
0,0733607952156866
0,0836960803663193
0,0729840350763919
0,0821751333757603
0,089654472806987
0,0803813544940163
0,0820513648629415
0,0703213097345641
0,0852437544833867
0,0738955037708803
0,0675172050794442
0,0764695902095422
0,0732936080986271
0,0700285173156708
0,0750159050440873
0,0744896771176213
0,0766792826197765
0,0774300848523705
0,0743390780624975
0,0787682692099844
0,0584152409500598
0,0703881756044076
0,0603518294850797
0,0763216655487671
0,0666320283016415
0,0646141214903811
0,0632724240522767
0,06169788251321
0,0657553254328691
0,081533422818292
0,0768235720861233
0,0894353524488157
0,0879965037779268
0,0798717722253875
0,0723267486264787
0,0702636921071775
0,0625036347530839
0,0720860495402786
0,0742225582665216
0,0867250907844093
0,0667012198905735
0,0712808029488133
0,0874237456136452
0,0501253486067116
0,0793944277113242
0,0793779783706436
0,0825470695661164
0,0818598890650396
0,0628295932542187
0,0800084183939664
0,0841411619864853
0,0595669002866284
0,0796401211711555
0,0945290578007922
0,0729548517223276
0,117362883222567
0,0754056444081228
0,0860312038954657
0,0892255974002442
0,0844844253767217
0,0855828891757686
0,0913532210079998
0,0868182350723901
0,101562005826151
0,0958552240965758
0,0974417372493416
0,113740258723854
0,097266317822283
0,100850204617007
0,0953579890612948
0,12049701528414
0,143858904800619
0,0845184249968613
0,141179441431553
0,103509252868931
0,0743731271695369
0,0976695632697248
0,119100445941265
0,0966657687003756
0,135034580304309
0,100217589660238
0,0787376225240774
0,0996095726915295
0,12562896707576
0,13082902387126
0,0993905676196187
0,0946119820281062
0,0756688627889924
0,0618099061964675
0,0637147884482822
0,085529510957064
0,0942040207903788
0,0832492820059535
0,127181244968216
0,0889234115969415
0,0970183181562898
0,0681666792735729
0,195395854086009
0,0690424732930165
0,0869879281777555
0,177961065467759
0,141794448516287
0,0704517926206605
0,0829203939562558
0,0583516758930798
0,124221198970844
0,115073967038933
0,054149773600712
0,0920762898637559
0,136038396149051
-0,0152292323371777
0,140041485649822
0,104895871914599
0,158077997497984
0,172520259102496
0,0701975369334451
0,184519928851432
0,0516546922253111
0,124220367626103
0,0850673524459085
-0,00168149339956088
0,137800635628876
0,163931845587093
0,0848063929028408
0,0585200034794555
0,0882499047128625
0,0170233522745656
0,254718909838098
0,077549044960834
0,110420014419456
