3596
4000,36533379555
650,420452594757
1
2
2
0,0465755311260954
0,0546754685512205
0,0450548453652572
0,0382364769452056
0,0539103072896181
0,053397042334945
0,0522389904136695
0,0429121719918561
0,0477569518824515
0,044427392782081
0,0519963010456963
0,0463910811119095
0,0482806927904023
0,0494784978638505
0,0506983671082595
0,0456104967378209
0,0419484791932311
0,0457090595357538
0,050514516109558
0,046557334288157
0,0532933446319519
0,0497377761655797
0,0481669233752748
0,039943484279103
0,0447554206482362
0,0463610434844128
0,0493796624419565
0,0512549199176273
0,048402160132261
0,0462591903294393
0,0464998901912049
0,0410951188625756
0,0517964087522426
0,0499318408806832
0,0504493148163598
0,0480514760969493
0,0516709330422789
0,054396309987901
0,0428406769836323
0,0447250904939897
0,0538146474102659
0,0474259539492585
0,0452656345957386
0,0508910015333987
0,0479613318372631
0,0466472740682306
0,050286511072335
0,0479770391518037
0,0559323683143174
0,0474541032587221
0,0469734746239559
0,0478072093882964
0,060793276138492
0,0547300679645069
0,0439921547003902
0,0563743183657764
0,0584799334512862
0,0467511356440528
0,0533180318284515
0,0390147020912644
0,0603455537094503
0,0620883391051003
0,0439771436853501
0,0585407398071012
0,0463276138688336
0,0470508942612467
0,0458638095105453
0,0458553355680775
0,0428033893716251
0,0420022737810231
0,0488961814362519
0,0611957902504001
0,064443445342145
0,0454022164596021
0,0504782991649207
0,0563330056376971
0,0452822317970621
0,0434117438836294
0,0387086677400993
0,0575496261061636
0,0654938009218668
0,0556748614511391
0,0529820995507868
0,0377892789223557
0,0391854381382726
0,05472804105914
0,0436613311279012
0,0419336202398116
0,0683202899752087
0,0605367528061368
0,0531503186656939
0,0422526491472683
0,0524906360366846
0,0486170391617212
0,0489760839387735
0,0507462269054224
0,0437647881934174
0,0449698090332029
0,0384850350898926
0,0452991316571154
0,0615988648949022
0,0432492756437078
0,0775364161734775
0,0447842990362497
0,0844577913333211
0,0641818077042267
0,0333604213770713
0,0817225232635179
0,0567434936900365
0,0569590808903361
0,0478672697514676
0,0416846916482608
0,0447800190128913
0,0538942049630521
0,0351143306136398
0,0522143593859972
0,0892156875914216
0,0541977683361326
0,047049423159544
0,0427251822372857
0,0228976297892469
0,0523592226520047
0,0931085384840455
0,0451398077612888
0,0597305728489188
0,0438861049284245
0,0332158659082481
0,0737598095172105
0,0816112653440286
0,0454173163861085
0,0468700729861794
0,04219931987968
0,0342395964247788
0,0304638275550243
0,0833522222700465
0,057003897613905
0,0453362676167457
0,0310734381847482
0,0540548325291352
0,110029673906127
0,0648577596970321
0,0401676200233088
0,0356036813281238
0,0367927059845292
0,088208186912067
0,067038513032844
0,0390485908365665
0,0560773185349528
0,0655210165861689
0,0477418238679493
0,0432752135747281
0,0386601298684691
0,0573161323577778
0,0513005467664574
0,0124412682042789
0,0709695331361171
0,124573809975264
0,0638859293987468
0,112168238983066
0,0592722475083533
0,0528070097112915
0,0564674245100349
0,0440501830640707
0,0470768466990528
0,0465210466218023
0,0401959914490654
0,0492083303046823
0,072609932965509
0,0434621587577992
0,0445023572862002
0,0730084105703683
0,0559731558889971
0,0307959810534157
0,10905365113391
0,0714047674435487
0,0251769359157317
0,0757521428081313
0,0662460198553265
0,0343175850797658
0,0386083875257785
0,0744836519891863
0,0500603497671695
0,0482412576247345
0,0426749578395206
0,0375197802786589
0,0624484917293708
0,0538961128882726
0,045791904234067
0,0464304301803141
0,0272559690396194
0,0455774500772555
0,0842139397330841
0,0819495572758209
0,0549146338199755
0,0483270413771825
0,0167727885521699
0,0616389712270313
0,0849901311660173
0,0484639514444633
0,0460544885439994
0,0421269943744368
0,0414271958159939
0,0410945994065998
0,0444541774858866
0,0354725216951506
0,0262318148873609
0,0772431758945757
0,0624191580993559
0,0471656527351204
0,0435163902680879
0,0350490865604441
0,0332513519276285
0,0853829089772126
0,0880109529797789
0,0491458072904787
0,0473157563387424
0,0346776543108129
0,048152950159701
0,0679904082407354
0,0507807439394053
0,0466452614883462
0,0446261182506469
0,0430290791888371
0,0443757480367457
0,0409420640335834
0,0431119127192755
0,0375836117002375
0,044664715671759
0,0449831771810174
0,0421894543917821
0,0532922728282572
0,0472328198163094
0,0397768470545788
0,0488109614535837
0,0327251080934488
0,0476984070655767
0,068579241704508
0,0499921703936362
0,0481982941346662
0,0430145244391504
0,0441761691659898
0,0439585870045265
0,0407272451415373
0,0464679064910721
0,0406269883158286
0,0345411914291974
0,0845435433881967
0,0593924425434397
0,0407658029730678
0,033607372492392
0,0505390698266127
0,0685605847331865
0,0441464411932133
0,0477927318006891
0,0429256578037914
0,0383626457101279
0,0334488128089726
0,0811729762195341
0,0535321368158225
0,0364736916729869
0,0612729788697892
0,0640963141311532
0,0403754516576505
0,0335482413064079
0,0191281144556662
0,11370617599106
0,061119657955587
0,0184665140066083
0,105155133666948
0,0791130292891325
0,0543613156619524
0,041866795257387
0,00370535977200907
0,138164843525313
0,111354203428548
0,052256404708943
0,0523636503498393
0,0716894280662467
0,04752487548535
0,0431164287184864
0,0515898651744444
0,0502411292769394
0,063642225261716
0,0880460039058763
0,110034651460238
0,0435969769419099
0,0569668744918375
0,0901772491339501
0,0497782261764947
0,0499262430479708
0,0416084410169973
0,0364514544367159
0,0550371008684509
0,0665061909004318
0,055606253059653
0,0629290638738454
0,0379351931195461
0,0730361287264405
0,0650324929944511
0,039495776625344
0,0495636234056225
0,0642182276906058
0,0458846427232624
0,0458789419252164
0,042624847784638
0,0563493404117576
0,0406079107870414
0,034489499243825
0,090947414885123
0,0634573253136381
0,0357621288191187
0,0759090272176799
0,0588737070389876
0,0434492119327472
0,0400001552414058
0,0440808941846583
0,0431026187433572
0,0387279679842336
0,0340793762169483
0,0705164494401005
0,0604544896726018
0,0410016303717749
0,0459460414329926
0,0435230466277215
0,0418133152974788
0,044040889307084
0,045477949391795
0,04975529484154
0,0473267926038353
0,0319121138192229
0,0647347826965735
0,0806048024831109
0,027294560227657
0,0550921919984838
0,0982455916970459
0,0550346414832146
0,0456945664827283
0,0442306649738002
0,04915421834075
0,0482855863268754
0,0470209381939714
0,0399642454798775
0,0430191121516765
0,0624935832682769
0,0635443369199439
0,042373589382947
0,0304969482913173
0,092571154891495
0,129973833125802
0,0807963133033168
0,0482899327230438
0,0396348962619524
0,0600681966406086
0,0879693512518627
0,0627850232809892
0,0841883196687963
0,0523894074917724
0,0558155994286863
0,047638000377901
0,0486109330138095
0,0546515066286127
0,0539168431662645
0,0534888507887674
0,0530697418329586
0,0578116960414767
0,0567695251475862
0,0438304155088023
0,0498278011708193
0,0952151198821005
0,0754370222632669
0,0626640802706378
0,0573450808222066
0,0472519818647492
0,0645046518989461
0,0935608569558158
0,0946351080824538
0,0883264768195478
0,0796358638831079
0,118312876457624
0,0860832544178047
0,063434996057902
0,0573959144812518
0,0638663887302723
0,0657540640621053
0,0670984485359527
0,0780795761384814
0,068274826672303
0,0682206887210593
0,0767414364640657
0,0718481968946311
0,0648889105898351
0,0622608620351094
0,0811424339589199
0,0895460752357951
0,0703639760342028
0,0680228417934987
0,0576748436225538
0,119971773876339
0,117004454771323
0,103398945511463
0,0805487342686862
0,0925069927478745
0,0820388493086668
0,0837208104165121
0,0802135895513963
0,0891071791694194
0,0797428957710562
0,107294357860791
0,116670533518351
0,113945521862751
0,107904335170205
0,0850777096868158
0,0968020388423205
0,111477947110948
0,101185558413332
0,128069162969109
0,105152596476126
0,092894440088827
0,107808120001199
0,125957815379026
0,104772539278629
0,12882198778604
0,113545223934804
0,105999636660804
0,10826580561883
0,108501320338885
0,107310571921823
0,12148704797618
0,126052894187556
0,113310915060753
0,121650908676207
0,117564705696087
0,112041642051515
0,135792549857633
0,134716160239304
0,133395602198097
0,136013070909864
0,123258902946049
0,126483605242907
0,127387166902297
0,135317730310392
0,158506139625826
0,14281994781382
0,160286308170518
0,143640681664651
0,14105459390351
0,142744631705704
0,147514883607599
0,1398509128317
0,149016026911806
0,157561459890433
0,155807490013194
0,150105201144654
0,16067952873674
0,152923356999365
0,167545314327023
0,169202942776461
0,166634368263945
0,165565418495619
0,163036435733856
0,169779217875523
0,165778358015439
0,174279299726852
0,197821581999768
0,19222507209693
0,214287310396935
0,192800047759567
0,184015447366994
0,190837544119443
0,193934789860119
0,191796931409941
0,212263985488584
0,203623366236537
0,188101540706697
0,202831508335698
0,205631056423179
0,198201864038535
0,202761224542944
0,201731671135861
0,215078168509627
0,221759846739788
0,224914927249624
0,222320277372396
0,22583145838019
0,221790479934507
0,245951890947263
0,236958805194373
0,236113137402619
0,251108844861741
0,239484657885403
0,236943421650039
0,246223588019594
0,239765988633359
0,245935279914012
0,24627203164924
0,236293041904282
0,244363652897276
0,258744020382957
0,255176781802261
0,26037255052167
0,263406906403625
0,266129386085605
0,284443952753883
0,285402183529472
0,277350188514114
0,288590661936867
0,280630818106235
0,293768295828492
0,291212226675361
0,289227050378089
0,300707996006668
0,319186304369196
0,298222840179897
0,294326715927176
0,305259782626271
0,303264003144851
0,31373785975654
0,313986595208417
0,3162546564577
0,316466459034637
0,312406003988662
0,317262067164894
0,329018211475015
0,338485629010098
0,327982042593825
0,354268795463592
0,361016086628238
0,335880409798902
0,340198447972094
0,353180214531253
0,358485388252783
0,366653141238506
0,359411411824424
0,356172007273274
0,361901675368347
0,374222666532553
0,367583553901117
0,356642790322583
0,358960508068065
0,388051332237476
0,38211970096792
0,389741591311497
0,384337514221281
0,38570245132642
0,399518369842533
0,407787864808576
0,406790201548942
0,387409880165088
0,39318953385539
0,408844837824843
0,397524422647687
0,41655895394596
0,429319033509277
0,421292405929758
0,41655765968839
0,406255962159254
0,405027418805357
0,42713249093217
0,429371570946165
0,439366384126297
0,428891281112246
0,426267851984356
0,448303987600226
0,442519227033497
0,443167966507362
0,452056764058368
0,441720488906885
0,45210623110107
0,446139720920889
0,443288837497747
0,441453220420882
0,45225925096389
0,473899070050055
0,472086186425482
0,462302231554214
0,477424359799444
0,463863833584267
0,470973386548533
0,478735085367198
0,490976579419732
0,476277235824242
0,483923782983006
0,494868504685698
0,49974090086514
0,495896508827284
0,491759169001117
0,486718115912436
0,488922793910422
0,516632080456157
0,526402507864566
0,503717755020147
0,506109045071913
0,518215214535975
0,545871663170891
0,548674696354907
0,528336503186778
0,524368150938748
0,529844975782429
0,529238534490224
0,52055166376303
0,520641393305577
0,538086232798349
0,528174240026189
0,519834232615214
0,54964952298193
0,556855080046357
0,544000294699128
0,556379500275381
0,541757044638703
0,556159532144608
0,546544473395717
0,570127152362029
0,569620914394905
0,54696484171155
0,566550083219501
0,571924382746646
0,567723573896176
0,57615785686982
0,583264867949933
0,601258991089497
0,561240269739033
0,580955856094242
0,58705144207274
0,573139672011045
0,585708569634592
0,581621527371759
0,570697799825177
0,589216935929427
0,585014314158943
0,596413199682554
0,600209987574061
0,596544150652399
0,605259783924041
0,598175994437095
0,590224407746056
0,618032397412263
0,605005797730064
0,593684033073682
0,611540169781841
0,617234698935647
0,585860904601747
0,59386283229424
0,59290954040093
0,610460483278813
0,596011566368299
0,622873309612832
0,635707434195924
0,62101569995111
0,625353566340255
0,640663642086357
0,613204021770988
0,621909392270155
0,638479597055868
0,630922200661745
0,612135323267831
0,623347675664624
0,638888684799373
0,637025329077173
0,628100008710987
0,651185289659794
0,638124796173304
0,622450666234675
0,645937217974655
0,638609559533221
0,641404779849643
0,653743398595896
0,634245918480347
0,653594339343203
0,655951483589981
0,655744338738552
0,650444359752446
0,665441725786852
0,64376852170336
0,634387954951177
0,62551096551941
0,640978148136062
0,653895162355251
0,650067558001658
0,634520399246909
0,658982812101824
0,65872392663631
0,654411633875534
0,655265351706436
0,661544667976646
0,633643457550395
0,64883788922322
0,65659149642476
0,681792362907306
0,688714242194137
0,672908154937173
0,654112717649071
0,659714127984663
0,655645116040551
0,655032879921291
0,634937820380881
0,63131519959481
0,655856132128959
0,671000340991431
0,656613452746695
0,668230376803234
0,663696230215712
0,650144934766984
0,640784030286443
0,65274778237426
0,651009201822027
0,669232324637023
0,664782309705469
0,654687682469911
0,651409969657593
0,662121203203092
0,660010245113348
0,669919033647705
0,671104669786978
0,67601013582003
0,647479838856567
0,670676314414249
0,664406710228633
0,67163172400224
0,657802680880874
0,65377419159766
0,655660459331591
0,642950292054849
0,637704946555988
0,660637107130171
0,640667099272569
0,635738780637625
0,652616582883335
0,657210207171666
0,646947997931584
0,66790600105364
0,639843952782082
0,629631467575762
0,64718178027056
0,651100436176815
0,627258010194075
0,649900580428228
0,643227407424311
0,642246115791534
0,629636766521699
0,637941546288639
0,62246047526362
0,625612514539974
0,629561946145561
0,634679610517179
0,636285986643703
0,64062803253538
0,639249472826334
0,640048041489296
0,622659310537523
0,630177015888245
0,622034621813479
0,639032702903245
0,629160147667117
0,631951032087288
0,616886774725728
0,622664512480342
0,608662023850236
0,618482192546184
0,617629297132795
0,61106518194652
0,629931208051832
0,638760716357281
0,606177237100327
0,613833485718357
0,610634914495013
0,608605345727377
0,597118972371921
0,629744382569798
0,605132035085926
0,60376078690541
0,603260941149115
0,606971893595384
0,601878827598514
0,607182016370962
0,59087872335118
0,596161160188711
0,590298951130866
0,600282604806999
0,604586274374264
0,593589695477728
0,580321606937797
0,575123962730593
0,572158492972845
0,599979916044778
0,600521238984283
0,606623910617869
0,584380476347979
0,589506355132342
0,577169552072202
0,587720187171973
0,581561187521259
0,579190382720767
0,557012749223562
0,570786402584723
0,569091748176161
0,57556118388909
0,560403211953084
0,560882158127119
0,557885058302027
0,568199870658683
0,553870342059574
0,557019662918358
0,548118838157736
0,556424612075716
0,548897430425671
0,548152977054228
0,543938770884837
0,546809007085682
0,541313509161788
0,560957497606793
0,54408946983666
0,541117530357038
0,528885541856659
0,526139063589034
0,525084666371942
0,532558111793915
0,52041929509023
0,532928099213979
0,528093154638628
0,515397719250301
0,5049067329583
0,524834972778562
0,513778851022942
0,515923144816985
0,506513459352527
0,517000498707358
0,502127228997496
0,504295702359837
0,500236123582966
0,497845621085953
0,496809383816912
0,513257623851148
0,492167705127951
0,49825458928141
0,47839905617707
0,490816783987796
0,484413273809022
0,48707282889376
0,485584892516134
0,48071326575722
0,472528769360918
0,489105270739966
0,469382419073032
0,473637845967916
0,460792577944037
0,466433199025198
0,463729957448181
0,463040939809794
0,456494714797493
0,457365977962967
0,456321597458123
0,463013660421651
0,449930839160119
0,454331282173914
0,444970962008691
0,43766446847354
0,429547866957802
0,442079518065796
0,437710636437622
0,439923663803402
0,425059478048134
0,434745309732492
0,432585089371401
0,436477507648729
0,421030778732926
0,425358555431549
0,41922410394313
0,422016654596566
0,421168795944297
0,421037831764066
0,406298047335514
0,416797338037009
0,407592515375913
0,40621692986238
0,39380660221964
0,39862232725503
0,398503079262832
0,398213284026145
0,399292830955623
0,402951458006948
0,38818422658437
0,387833619013978
0,38188574076904
0,386730161635334
0,371238284918284
0,380986802141164
0,372341677850375
0,375334127002881
0,367038221789866
0,371664489330754
0,368068129251367
0,366813030842956
0,358517488356857
0,369233467679292
0,354049122747097
0,353337193222447
0,35499057023773
0,354878522087071
0,350991448518284
0,350263791406864
0,335638715849934
0,349224053102944
0,341019455502559
0,343131619303728
0,341129764665873
0,339023742150438
0,327490294965906
0,33654606768372
0,322081146761764
0,331310961822644
0,330243268625498
0,326873420466017
0,31878764421238
0,323568169840264
0,315402025976934
0,311003109913406
0,311163877847436
0,320062475679983
0,307172980763003
0,309829787710563
0,300250875997676
0,306125877641085
0,295986951758046
0,300960585552354
0,290181999377985
0,297290791677869
0,293010276727336
0,297392067483396
0,288738777481957
0,296711062317979
0,287775314429832
0,286786468811173
0,283075578905405
0,282931858806707
0,27556133620525
0,278943354492669
0,269360866721525
0,275535448185595
0,266578976303882
0,268186211815656
0,267879367156555
0,27222031570175
0,264477480295672
0,266998420661739
0,256991643222854
0,268340844009445
0,258649229107276
0,26030157059705
0,25397117533314
0,258841262731179
0,252053824993638
0,254980024236063
0,246053040017854
0,248206459399522
0,240273536427526
0,246209099768007
0,24536557918661
0,24321415287257
0,231385424472977
0,241757790791945
0,236214711595006
0,239085816366333
0,233107740848742
0,244011235263172
0,229995199630174
0,229903517476906
0,225827984012242
0,228056790607244
0,220382610165603
0,227548171188333
0,216857372107511
0,222323400824314
0,219684716182604
0,223885610293216
0,215045041726346
0,217485645949601
0,208940799982114
0,214126792976882
0,207966009154344
0,213024692332912
0,205657432318368
0,210379669302794
0,202707461561524
0,206190948535577
0,200551239648077
0,206566986998312
0,201475430926434
0,205763678534305
0,199775461413943
0,203051130361178
0,196896308994393
0,199528553988277
0,1915170876757
0,193766169197964
0,18809599365035
0,193807329089797
0,185467179266433
0,193121647295641
0,186591585502483
0,188812003790231
0,183399759236601
0,185816891319588
0,180600198034484
0,186840223918113
0,17552010003678
0,180089656762763
0,174244235972153
0,17740550657929
0,172061506406941
0,175998924006474
0,170940522266609
0,178767888599395
0,172831634132259
0,176935047900102
0,166338254177964
0,171986307934553
0,163364314605653
0,170780682957584
0,16236109429445
0,168876136943099
0,163023604547803
0,165923387519044
0,158021005864865
0,162209532293934
0,157947605116713
0,158266037302977
0,154154190781195
0,16338766852368
0,157645872435903
0,156309363707327
0,155737786237864
0,154721592439343
0,148259712138154
0,155293141054228
0,149042466328521
0,157139814459718
0,150974096342321
0,15649612498021
0,149320099228021
0,14658324563504
0,142775656785613
0,147899455427777
0,138772303904323
0,150928566015256
0,141746574772278
0,144310379961116
0,147144327313095
0,148425516944223
0,136289679140443
0,137675486661589
0,134369204088348
0,141233705458511
0,132040281599616
0,136625813857823
0,132085810936548
0,139931160501444
0,133065271643562
0,133340958673612
0,129650339248589
0,134733739910575
0,134350165791439
0,138166286055617
0,129701648820356
0,13667014489004
0,129044267829099
0,132494160627807
0,132319601685019
0,137243251863356
0,128768339185191
0,135551922744113
0,132628328351324
0,13617338342238
0,126289835979187
0,13516921570447
0,127513471526259
0,134163109706023
0,128799470852931
0,130017631938207
0,127058097675875
0,135759572044042
0,129159614386447
0,134374446793405
0,12723825012289
0,132762348445507
0,127781049085949
0,13713025512063
0,13403257301139
0,139135853414183
0,136032043716105
0,13795495584507
0,131446267256443
0,13632512163233
0,133848823463518
0,141248364991689
0,134907661075097
0,139661850168464
0,138725674373942
0,145954609647006
0,142490196734214
0,147855427864256
0,140282004528325
0,142950489702018
0,142346998693384
0,147778357484163
0,142860350877054
0,15301773872771
0,147898222881458
0,153385004321077
0,145992032524771
0,154573238644903
0,152179905906592
0,157572679695706
0,147586827789861
0,159896289171825
0,158937378511051
0,162958968339135
0,161338697696064
0,164507379306645
0,156463964353629
0,163991001146235
0,15859623000068
0,171903430768619
0,160079782662169
0,170752635225105
0,170735184619368
0,175358036724679
0,175161358546851
0,17817969389237
0,177873114764049
0,182135408555414
0,178777016814917
0,191995020121649
0,189607870885864
0,190633933567013
0,190985203963758
0,200950170233016
0,193300950220729
0,200264120272199
0,200024438575991
0,206625272140595
0,196111852516705
0,20815758409589
0,198747044107784
0,201935527177921
0,201332703138384
0,209491176690662
0,203176318723718
0,212545629431099
0,205442716046082
0,212581105579895
0,201878392306112
0,208203109234559
0,198636490033913
0,208935085513581
0,203388574386347
0,204836822612716
0,200050240624815
0,204004238998833
0,198267702230953
0,203122680820396
0,195951366145715
0,203203416122651
0,194051771755177
0,203682360838851
0,198552842075879
0,203237896220666
0,195040524705431
0,201487003940758
0,199159292120849
0,203738145742969
0,189752096778047
0,201511776948263
0,194065544849743
0,197179258018797
0,193279662238296
0,197570968619632
0,195035623424273
0,196152594219371
0,187593623563498
0,198083887798713
0,191636028959949
0,196605891041349
0,194519659726744
0,197390223932322
0,188547745173075
0,198083952551696
0,188617008925559
0,196122836726943
0,18883142658062
0,195768298636577
0,190616126777502
0,193413796085583
0,190416752559034
0,19482572884
0,191886425292867
0,194083966290337
0,184702113221817
0,188715803120298
0,184781579486524
0,189774956462237
0,183711589552156
0,186798797614456
0,180954675976312
0,181246674249855
0,182074875760862
0,180765419945539
0,174564649857405
0,180339510806777
0,170706767199696
0,173869568000168
0,16686956871641
0,168513607998005
0,16439715610935
0,172507477486486
0,162366839607089
0,167828257013063
0,161669300837217
0,169942906813385
0,159742428769758
0,15589147983307
0,152179424083662
0,159006046348709
0,147475566286279
0,154953598628106
0,151531540622471
0,156099365307418
0,140189259762347
0,147945155687484
0,140155195758188
0,145787598630026
0,138108170264059
0,140777885281286
0,13128610430596
0,141080290132856
0,131903347765149
0,137908404234957
0,132185296434389
0,137964221611296
0,131669830683413
0,134469827307851
0,13002979339594
0,133743841394615
0,126528274058058
0,133893099276149
0,126288610400584
0,131903246629143
0,125740481867492
0,130000939981004
0,126716682442355
0,125292052589387
0,121112787995312
0,128477732598554
0,120941378570343
0,12346375614755
0,118863525768135
0,121947239657719
0,115899144012898
0,122525778282974
0,11980413868348
0,122360407680442
0,116812054214683
0,119459749895745
0,108030970953269
0,114675005520568
0,113113196748445
0,116910457474804
0,110698783516156
0,116744017966066
0,110059631041574
0,113454849958584
0,109637361830271
0,112805427583982
0,107579995768509
0,108054512679759
0,108991571530166
0,112610652672487
0,105634407339521
0,11010831321346
0,104305990157705
0,109566834327138
0,10570175554096
0,107181447758171
0,10185624275702
0,107477020909728
0,0997567941579997
0,105850948420685
0,103370646260845
0,10365673064109
0,0996493552229815
0,107020387140536
0,0996526010876852
0,107480720571956
0,094788186780047
0,102844704741445
0,0983488797220393
0,100708100538559
0,0970907489955962
0,102048807114355
0,097528581710652
0,102675883869268
0,0935008626173953
0,097769873890644
0,0965320378627135
0,0984640973172776
0,0899018141983992
0,096486184278195
0,0961249436804035
0,101203591427422
0,0938849361239217
0,095508998508043
0,0937633577667048
0,0976361359830541
0,0917671446092368
0,0969718519610393
0,0920179513233399
0,0940693963004632
0,0920667267958107
0,0939414056839649
0,0919754203758388
0,0976173472053024
0,0907413942782324
0,0943178869730469
0,0890245346459922
0,0936617314560213
0,0911996836208262
0,0910888606498017
0,0886749847945811
0,0943370762650682
0,0905333011440641
0,0927374797937212
0,0893131626279047
0,0918221735501791
0,0864914926672451
0,0928299974834953
0,0872091816835553
0,0902991365270749
0,0867916750112266
0,0896815353356806
0,0866802975247616
0,0910625530991455
0,0837529891570281
0,0915339212890324
0,0838528947359872
0,0897830608699119
0,0849276671861169
0,0892755285779076
0,0815642056877526
0,0893240942276694
0,0850611949150456
0,0853715921729024
0,083732443844337
0,0867057491086829
0,0858253109964932
0,0891688065740605
0,0834631724640244
0,0888173936192072
0,0775991058693448
0,0868439434548041
0,0818927371152789
0,087102144614522
0,0824327443908723
0,0873752351807569
0,0829756916472343
0,0876573882912733
0,0793184369454515
0,0836069496223738
0,0822197111410514
0,0827941929026172
0,08403043104174
0,0883916791259746
0,0812464477138059
0,0833427123494895
0,0777141540931311
0,0869410895025253
0,0797524488397895
0,0845304348517779
0,0806124178237187
0,083664573958962
0,0799729222446014
0,083937342685475
0,0822096575748689
0,0831926901860162
0,0770209158305061
0,0851683135704474
0,0789087909999548
0,0853938032749278
0,0819274055139003
0,083611519081377
0,0778484823205669
0,0819711026804447
0,0783020362243303
0,0806985402265715
0,0749989211323459
0,083045952217273
0,0745670712518522
0,079083497494396
0,0748547429831238
0,0777343980482484
0,0737241173049678
0,0806873886325695
0,073980812442174
0,0752532154785706
0,0756280021640329
0,0817128728392637
0,0754719707309034
0,0793220567446708
0,0729361853373489
0,0782721863387872
0,0709414613384869
0,076371155464207
0,0696437954451092
0,0781429596699424
0,0687957500228416
0,0742780541356245
0,0695352336176319
0,0755700334356228
0,0709423675397511
0,0786901599847801
0,0714975268840134
0,0740546539527437
0,0700417424689212
0,0734479982232338
0,06847789181201
0,0736621562093262
0,0683848997266172
0,0735603255922935
0,0693043356018863
0,0715739493099264
0,0651681992921257
0,0718787344795243
0,0697228593406694
0,0736992348215435
0,0685391668364003
0,0726731263965544
0,0695286646462797
0,072845371069835
0,0668611062217953
0,0717442631476665
0,0668154651117687
0,0718121787141025
0,0665738620755387
0,0713106668814827
0,0688151406662574
0,0662261873578358
0,0647975124338148
0,0705858295209616
0,0639267584900255
0,0697037121875643
0,0652567733560839
0,0669024039135753
0,0647875900498423
0,0673823993066273
0,0625138876561935
0,0652945063748658
0,0634304570367337
0,0634681137428427
0,0607408183389348
0,0628651599521866
0,0601544800235356
0,0648498271459803
0,0605225190034282
0,0653235137285127
0,0587852801817129
0,0613035330398301
0,0586367027969852
0,062631452936047
0,0572220868311156
0,061042000578274
0,0575058430689992
0,0595797238821069
0,0544073534225525
0,0599033451490159
0,0558029151802783
0,060756143920163
0,054724937771389
0,0595239395414725
0,0547141351048397
0,0598312282635026
0,0562913234890208
0,0595053959149681
0,0556544211788482
0,0574145659728946
0,0558190265770727
0,0600029624732255
0,0515829026175805
0,0572544666887247
0,0533917027381298
0,0579769007497154
0,0524802728059348
0,0563512796697982
0,0525536635828127
0,0567543549438469
0,0535806417274582
0,0560519593443557
0,055182389706324
0,0587371716521784
0,0526332303764952
0,0561685319397871
0,0529190137033733
0,0569834042725015
0,0543602864672856
0,0580894753889675
0,0536311875881089
0,0551271875202535
0,0503020749655132
0,0560304141731783
0,0510398328305758
0,0582501362003634
0,0505898895749406
0,0546171519739435
0,0502790777521323
0,0566013366044987
0,0487238010495212
0,0519225555137265
0,0480965505392329
0,0501119103187818
0,0464587984177498
0,052465079076272
0,0499348268360931
0,0524662451013198
0,0483956958619395
0,0521161646822209
0,0480864294890296
0,0538801083459519
0,047870798543141
0,0517305413517285
0,0466550498758264
0,0514996603039418
0,0467266719908825
0,0502920242359684
0,0447383951079968
0,0522478049887795
0,0475833664538287
0,0496456106831156
0,0447913612590395
0,0513419176559598
0,0475260077440539
0,050996320595709
0,0486193212314417
0,0502536141353791
0,0464807539374923
0,05254468933006
0,0475565099234449
0,0510942835755096
0,0461702158591662
0,0480942503692654
0,0449215673030566
0,0493661698911031
0,0444520909851168
0,0487950765306902
0,0472382988488048
0,049386827404548
0,0468263409139145
0,0487212595881521
0,0439594354009752
0,0517449516089668
0,0436568584851041
0,0501323445079119
0,0450105121001346
0,0482162688329448
0,0466158519659387
0,0493258886592556
0,0454269574588811
0,0503107017422074
0,0445893890725835
0,0484631987490639
0,0460892685947365
0,0499037653722636
0,0460131441559807
0,0492781478870714
0,0441496249662252
0,04790766405001
0,0447486066758028
0,0481847480893518
0,0449559252458631
0,0479530473465535
0,0428070093991999
0,0476863702064155
0,0439494241542664
0,0453312584566816
0,0401975165304544
0,047382951681051
0,0429963110775735
0,0461894035096605
0,0416527148447785
0,044167412188772
0,0410361259566817
0,0453943451958515
0,0396192657015629
0,0466263415358878
0,0417597516886285
0,048516502748273
0,0426486750389937
0,0445496251327966
0,0375456326023055
0,0461708244440102
0,0429073525405314
0,0453532224768076
0,0425729084621911
0,0446651161752848
0,0398191433987073
0,0449905483801613
0,039245982792287
0,046602698656579
0,0382743524294502
0,0441861985968572
0,0405021439186827
0,0454318962257146
0,0404356451552408
0,0445196140416164
0,040049882776492
0,0458741036254197
0,0418630118960502
0,043952251861265
0,0412565775287933
0,0415301661609254
0,0410167227363868
0,0438693330368764
0,0373471135680258
0,0445227761201722
0,0382873993275866
0,0469000740515383
0,0394409469950999
0,0431095600319804
0,0409043408182908
0,0424269478674244
0,0389269608747644
0,0425219416893483
0,0379565075023483
0,0434743081568353
0,0368297118551623
0,0438014590318645
0,038996802386532
0,0434902954533781
0,0368374125371425
0,0403985887447831
0,0401933705872232
0,0435625521366543
0,0373914008954644
0,039904582032932
0,039276199594551
0,039611061127778
0,0355507123257378
0,0371497065719968
0,0345567423450821
0,0439192288603146
0,0366295102812969
0,039847637757039
0,0349913698089431
0,0400411980682399
0,0360641606900263
0,0399747042795506
0,0352209645175794
0,0395017907190872
0,0350192231850355
0,038638513678967
0,0362093861695036
0,0377487788371346
0,0316949310657309
0,03659607471997
0,0331225194883089
0,0404369107865076
0,0322263191977226
0,0388296443937817
0,0324063504034018
0,0375324226451808
0,0336160634488741
0,0393576575514692
0,0341676015314031
0,0379456251878786
0,0333320045199826
0,0381928007324199
0,0350689536091157
0,0390839600517688
0,033208957874046
0,03732909863495
0,0328890430711582
0,0375503815631412
0,0352410051716272
0,0330100598201707
0,0339194522354433
0,036551376755631
0,0337230443427959
0,0368070777378912
0,0321055909783786
0,0364643291874263
0,0333592958812376
0,0353067764957525
0,0324431994939003
0,0368636411712529
0,0326917851136832
0,0344204290358743
0,0328413143804285
0,0324335257495742
0,0313589730424323
0,0340740970728416
0,0303402881564538
0,032488101331398
0,0321906455694932
0,0356671122091774
0,0283103603363648
0,0328831576206772
0,0287496967798269
0,0331049752013972
0,0270660071353502
0,0312693481344429
0,028511053735253
0,0321259365605912
0,0297276074563669
0,033668862475051
0,0289833532176992
0,0330060926380672
0,0270846817951117
0,0325382433499583
0,0285532064696627
0,0331291448601992
0,0286404513985181
0,0333022352121165
0,0306548615905828
0,0330396917509645
0,0278725309002167
0,0326539298136718
0,0309860951999306
0,03270437384913
0,0274304755376611
0,0318835114311711
0,0286110940991381
0,0333717011787789
0,0277134168713624
0,0306989554103428
0,0296310552867533
0,030825024987094
0,0278435555821691
0,0303069532134926
0,0299510524950933
0,0323327893523442
0,0278446985053905
0,0329114335682568
0,028289799775254
0,0329092307937211
0,0282476912485034
0,0340964556772023
0,0294791187573229
0,0361151997572276
0,030992564532774
0,0353406352609884
0,0300901868752381
0,0377469324104706
0,0298609772777147
0,0338531869862623
0,0191771954370847
0,0258715576203729
0,0253177425287069
0,032838105671178
0,0246419929253983
0,0290273274625399
0,0230397031239234
0,0312234526370945
0,0177809521327104
0,0239602725273984
0,0250374167750322
0,0303823861259498
0,0265457770858378
0,031126526072397
0,0196245100820379
0,0321009366974544
0,0282745762466164
0,0369986826303835
0,024619051522618
0,0290967007546856
0,0293416571259114
0,030679131976925
0,0238091364521288
0,0295108744940614
0,0205793108086217
0,0237807405075216
0,0208417252152917
0,024961652739153
0,0203867739280001
0,0241594021110771
0,0189432157707467
0,029112816086778
0,0235689126275946
0,0314896863323266
0,0195784343041634
0,035817622674807
0,0221026534528874
0,0311324890576151
0,0195934141958176
0,0315145186308883
0,0198214769001545
0,035600434528396
0,0224737783151442
0,0364810241812632
0,0156669377055034
0,0351647049319105
0,0179898054930599
0,0451440172132409
0,0144845601521065
0,0392666291856355
0,0173429028573868
0,0473838270064022
0,0178160741577331
0,0375082851585182
0,0189894061780827
0,0425008944568108
0,0199297321888986
0,0348932926763962
0,0277987173953104
0,0294021803229296
0,0285992297641278
0,0285985912284678
0,0272569456200671
0,0258847892681382
0,0300375357559234
0,0283839767319394
0,0256777619583622
0,0311426203963703
0,0257711926124577
0,0317295371629932
0,0244816508196215
0,0305135926367742
0,0239520246681557
0,0293622078677322
0,0239234366255838
0,0283820236563164
0,024071207062798
0,0278752427454348
0,0257249055205899
0,0271686516964186
0,0225310980959324
0,0286062543011469
0,0230502939469484
0,0292072835404495
0,0236493040037148
0,0274237945606985
0,0235114531510893
0,0295192352814195
0,0232066661260072
0,0272841580986502
0,0228707051416006
0,0261081007170313
0,0240532673602634
0,0255807817107406
0,0228775894620785
0,0275026582110652
0,0215095074161913
0,0273285422077401
0,0248587226690802
0,02635827742649
0,0237547621271122
0,0285568853256225
0,021090467431147
0,0262813483809737
0,0219099772990935
0,0275392589454998
0,0246613700702111
0,0255165521909617
0,0221908875062989
0,0278851130593692
0,0234094014227898
0,0281698350782356
0,0245268595432881
0,0262057570804259
0,0221221849464628
0,0280337938313069
0,0229485064399109
0,0271719914647835
0,0244286221066629
0,0270438080002452
0,0222700555634909
0,0276448352846577
0,0227287697384532
0,0281722012869627
0,025481704589771
0,0266764434107344
0,0219940242588736
0,0264519025803268
0,0231121449953879
0,0269653816356103
0,02316843526473
0,0268201657741099
0,0230280100097342
0,0270108102599793
0,0245746436393209
0,0251462945503505
0,0216023930623892
0,0274345636423858
0,0253294768543477
0,0263606756449328
0,025202751720777
0,0253985981213614
0,0242298576633675
0,0257016323190341
0,0222463656274006
0,0272753826552581
0,0217761508461911
0,0272632929163722
0,0247296055870634
0,0242321026633253
0,0227617040688933
0,0263812201251432
0,0247523823035669
0,0249636745502745
0,0204517205455416
0,0277205649678373
0,0226824608993927
0,0267123838753077
0,022377522369257
0,0277354929115298
0,024190052188527
0,0271899283794186
0,0216400458050062
0,025566595289726
0,0257466892696404
0,0271190362978154
0,0236241805705554
0,0257607817471096
0,0228870789039265
0,0271245169614585
0,0232152467222431
0,0281535049399747
0,0243549502264695
0,0273837464641573
0,023602200345393
0,0278488349692028
0,0213323119244506
0,0278949216500587
0,0234332725961932
0,0273330380669179
0,0240721373704692
0,0279294510862807
0,0248613587056905
0,0272852104188253
0,0259924091878788
0,0266149521522697
0,0240421781402934
0,0270720598352433
0,0231402765742922
0,0277062259938375
0,0242099611783345
0,0262718738044663
0,0232821657910137
0,0276925836711715
0,0235965130707514
0,0272886875748583
0,0240199285099206
0,0259423343644637
0,023555058889893
0,0267029947363141
0,0227043964172478
0,0261683826755993
0,0264058830008795
0,0264929656691291
0,0236440607139003
0,0262938867277096
0,0230604645304324
0,0258500888805544
0,0232819076118794
0,0278801866506394
0,023279914639153
0,0287527447611957
0,0248459455975448
0,0271648322162793
0,0232884199944588
0,0268489561189399
0,0245184473608639
0,0264144927249411
0,0224536831601686
0,0264830717345899
0,0232001209566437
0,028241429729306
0,0248822942154582
0,0277058457892899
0,0231756874807588
0,0297419387304098
0,0268931928335528
0,0257307479996203
0,025044769053702
0,0289466930849888
0,0249300678674591
0,0282289794240374
0,0253533704250614
0,0272842083232664
0,0239786148312861
0,0282741170987701
0,0240217745037504
0,0277987722353143
0,0238678663744865
0,0286992451342748
0,0260836821826426
0,0305291011416182
0,0237385569272747
0,0286133936750583
0,0247894974815017
0,0276518290360549
0,0251579246739064
0,026937412765275
0,0249087987051548
0,0282335042625402
0,0241287956146417
0,0281234775900817
0,0217344657532183
0,0261063897760339
0,0248047818174667
0,0259631468262534
0,0241294569395103
0,027788668726668
0,0247198057497505
0,0279160136539418
0,0240300177635574
0,0268710460318113
0,0233817411694366
0,0257131819287955
0,0238687323612198
0,0278265273734129
0,0224298194591961
0,0290567733270936
0,022470387235954
0,0259328422021967
0,0254999885932609
0,0279531046846222
0,0237103518764507
0,0278329136206315
0,0225944571717043
0,0269147995148434
0,0232352933301467
0,0284809538952399
0,0239997893710657
0,0236272862084212
0,0243510549624374
0,026706919070774
0,0245876625525864
0,0272171510693028
0,0254331408272466
0,026313699219491
0,0224807660648007
0,0269426843051777
0,0247327008043076
0,0272088787113643
0,0230433102132341
0,0261474202568089
0,0221242429471767
0,0272914339071639
0,0228081319217809
0,0266723340381186
0,0233364330190292
0,0274328386456229
0,0210029735992062
0,0277595292758424
0,0222991360811951
0,0273506204448457
0,0250226574468833
0,0273401670507377
0,0224534510860337
0,0251689294790403
0,0236290078967474
0,0259873274581461
0,0222085967521198
0,0244613651343304
0,0223612216695151
0,0258225455345881
0,0235426620473953
0,026024040464415
0,0236034628603288
0,0269696183352512
0,0225361311521954
0,0261966866777154
0,0219876378565049
0,0254457647890082
0,0220660127746707
0,024743691624016
0,0228314928213087
0,0248095266358606
0,0231313464145617
0,0254333610218233
0,0242639605373087
0,026791048146049
0,0208922410668105
0,0281127949812655
0,0209220358441945
0,0259067667356994
0,0239473582304254
0,0234206382809867
0,0224007921527592
0,0262575092472178
0,022487021790542
0,0247240977156048
0,0238488638315308
0,0240898305493433
0,0231150497758966
0,0260561351230733
0,0212855604589801
0,026729576766271
0,0228476348774504
0,0239202504232007
0,0223945530689154
0,0257271620900713
0,0215964121903247
0,0248415415398892
0,0185954159372835
0,0270143461243646
0,0227126612091938
0,0249156532948848
0,0241545975834866
0,0257152744334277
0,0213362800006143
0,023908937819619
0,0215651491016673
0,0256944363951891
0,0212418566847789
0,0229376941612442
0,0220459594213311
0,025366073099436
0,0220839499156995
0,0263183504474717
0,0211659924817427
0,0230271069023977
0,0223530915773909
0,0253429594438725
0,0197309325325715
0,0244125590590695
0,0184363419330778
0,0220373332010145
0,0181261840128031
0,0232525673900697
0,0222828408846311
0,0240120537293431
0,0255735485757728
0,0243158801243088
0,0211137333953119
0,0240643217449638
0,0204546668896791
0,0226404879404022
0,0218107435729385
0,0216636091603515
0,0178411596793919
0,0210282926901748
0,0186390578548011
0,0216124679376543
0,0183230104415537
0,0232138527113118
0,0185300452422436
0,0222988321180351
0,018283222748584
0,0231528760439089
0,0196612610225116
0,0216823900832937
0,0191094419397477
0,0217146359206233
0,0174105613400678
0,0226345367376176
0,0198448970014624
0,0232450057970314
0,0203238027149143
0,0313260224767855
0,0220857421306902
0,021087666443618
0,0206738660428908
0,0268170467797386
0,0204629473712388
0,0217100350389829
0,0179634929881238
0,0227330713305432
0,0186620754009386
0,0203875434324239
0,0166717460771817
0,0235084002399782
0,0187373773471085
0,0228556494222553
0,0188786296832131
0,0215569343422698
0,0176447599688072
0,0222454798967402
0,0197571185014483
0,0224618688610328
0,0174233326494306
0,0232805348387431
0,020547911243029
0,0229024736038311
0,017611158369546
0,0291404194428401
0,0225658709053546
0,0254397661946722
0,0174699365326245
0,0202460479543812
0,0197651149265358
0,0204519193974059
0,0181138806233295
0,0212922992017294
0,0189672899741756
0,0220749679873353
0,0173480446216961
0,0194952575136942
0,020538965535753
0,0212515846285101
0,0159588606145644
0,0227889066945024
0,0180283496898428
0,0199310478941084
0,0161257369217669
0,0216651173719821
0,0170814680897185
0,0203426984755732
0,0213932960999061
0,0237644451706498
0,0168662902968919
0,022805390521473
0,036004767605457
0,0244379554305071
0,0216504571784373
0,0232836905496122
0,0185342892773322
0,0202876118581786
0,0186019829214565
0,021582167891517
0,0186498646888947
0,0211329983772282
0,020670425930027
0,0186620786696354
0,0198027223469786
0,0228721401498165
0,0155598479177517
0,0210247340312128
0,0184045075599272
0,0206582653651068
0,0194909446952383
0,0170694291473622
0,0201235969400939
0,0318621946892006
0,0247681413062567
0,0215864170935562
0,018849040884959
0,0146570389198777
0,0289990931410325
0,0329764202879047
0,016423911098294
0,0245840689480821
0,0170127037225223
0,0210601857040586
0,0164884237833548
0,021958365210621
0,017358730224956
0,0266383648994919
0,017202752091209
0,0242314162470412
0,0189800133737709
0,0194699421011103
0,0179520682962981
0,0225570012774374
0,0177993196624779
0,0205900605334481
0,0187804343598308
0,0203812717056303
0,0171054306256659
0,0222521513503108
0,0170926939224606
0,0204746850406392
0,0169717795030913
0,0257364737180886
0,0176425937846836
0,0222405215027197
0,0172257418853997
0,0195342018558489
0,0209854617475492
0,0391837994594424
0,017070700917101
0,0217593632183581
0,0158096048433209
0,0218226799834197
0,0193938290657341
0,0216293426400832
0,013934638112661
0,0225967633798942
0,0179876507502472
0,0208925888616266
0,0190369667256949
0,0200005946186027
0,0171807646148154
0,0179008790186721
0,0186524301136035
0,0221543886882871
0,0180020237256641
0,0185181471145698
0,020262883148867
0,0204870371629719
0,0249986587197429
0,0406088505813875
0,0244943810265211
0,0312606714165304
0,0219183991283052
0,0241802349946008
0,0154076647063776
0,0216239030940393
0,0172321545796429
0,0252387569849905
0,0161873786686664
0,0213903467996058
0,0181879204976513
0,0206853389395788
0,0145552882422349
0,02123720551419
0,0162956613965837
0,0203101962112542
0,0161924220582988
0,0230107215257444
0,0163230486095379
0,0199954272893523
0,017108410657533
0,0256909426113715
0,0244763057192935
0,0231000180832657
0,0136699810877073
0,0320742113245393
0,0493481812816942
0,0223177330177892
0,026031392445413
0,0188984899694095
0,018186028742548
0,0195553752845237
0,0199304726206503
0,029911592968907
0,0203021145541083
0,0193477686264192
0,0178620156440467
0,0214158563263281
0,0194099496991418
0,0146815826335135
0,0155461984981883
0,0458698225342652
0,0278153249494791
0,0243333166269927
0,0181952297012681
0,0162855466440622
0,0432173010711691
0,0266561374782258
0,0200552235958379
0,0245291727513034
0,0153860269317492
0,0227623130752159
0,0165004323185839
0,0228260416680793
0,0193192723262646
0,0244736119224901
0,017164698028398
0,0223255192982404
0,0132237144870551
0,0237040485061571
0,0182964062085242
0,0278054441208946
0,0290179383552532
0,0236669999185209
0,0181962534945821
0,0270181827324343
0,0164789383750486
0,0246903419441168
0,0161274676256462
0,0218982122304912
0,0247531777476071
0,0329118291572968
0,0198953147647118
0,0310804704226142
0,0305525808631994
0,0216607984642964
0,0209222370416025
0,0318920394879394
0,0230040500153868
0,0249899907111445
0,0120894904345844
0,0536457728425311
0,0260389031395252
0,0396158995023584
0,0233183948355712
0,023737765145871
0,020263564957012
0,022052333782098
0,0167490753807304
0,0282293002197687
0,0280998557309839
0,0177094387983374
0,0204822595473878
0,0214603842083557
0,0360733921919553
0,0245694955640563
0,0233316457973923
0,0208893435557252
0,0210613387841795
0,025874862421104
0,0306924449139547
0,0125644307115203
0,0422115410005982
0,0518625324144473
0,032106465294503
0,0338020550405547
0,0183902819994906
0,0541373246514095
0,0318816463069686
0,0218832805744379
0,0246388877557834
0,0214136876399873
0,0238581160475703
0,0164223904715375
0,0456816945501999
0,0360063343467897
0,0147098540660794
0,0302756188272122
0,0157370167740125
0,0394552261977442
0,037737428124284
0,0227216305371952
0,0231853637886255
0,0261803580407046
0,017386932066053
0,0318502038135453
0,0549361102779766
0,021435527682963
0,0489946808992932
0,0360612569932157
0,0385766614439886
0,0316982594403841
0,0278279379905683
0,0331810698094333
0,0446853516970668
0,0312464012877585
0,0216672891077206
0,0247706061204662
0,0559778576450701
0,0279576615059272
0,0281862184688099
0,0280327835634458
0,0162092018604567
0,0351882222867871
0,0805663421676082
0,0554273859822657
0,0352058263042563
0,0289111785024542
0,0488310517461419
0,0375035554307454
0,024132193275007
0,028728648450615
0,0235731040250243
0,0253240199887729
0,0255602205998019
0,0372252942155414
0,02989133638399
0,0251436203565972
0,0327307455223254
0,0206470797079364
0,0380429738713493
0,0707449604191196
0,0659768422970058
0,0437170983670361
0,0536208864156246
0,0619979546636423
0,0357284916164357
0,0383480133482227
0,0260868055879955
0,0442709636918131
0,0313745521751508
0,0341496150963122
0,0307928800418724
0,0480778126973827
0,0516021552456317
0,0366429628481509
0,0659690460644217
0,0421573423403893
0,0348128047181377
0,0316946719754055
0,132391675963376
0,0909500899479626
0,0408165559697845
0,0614998067162382
0,0211754387648339
0,124889088456138
0,0642368600473312
0,0528543179050763
0,0506058095232376
0,0518838519655025
0,0504411101928135
0,0667009150116804
0,0599960394129331
0,0744702779947951
0,0617944153052445
0,0645256715028742
0,0565113232565863
0,152777732109764
0,112218688810982
0,096633272735065
0,0681179415414109
0,0925787691288031
0,0888726156852337
0,0816728817579227
0,0756993402023353
0,08449093431417
0,0659956030638919
0,137387105312296
0,0967541907013126
0,086964972663354
0,0910407951209989
0,111845384296726
0,0985820103489146
0,106962525848205
0,142833438382318
0,0980045014864079
0,10917756062153
0,0982803399979325
0,107844056533317
0,102820679779894
0,12886574793163
0,131950642030564
0,111299089297824
0,120379916587861
0,11053107125187
0,116096956060714
0,113729789336382
0,120075387706376
0,11507342556803
0,14024104676855
0,138043326935219
0,209911366924162
0,171907785708392
0,11928087734207
0,129415576192389
0,11432342398763
0,144491095329427
0,155105128506753
0,138305319633949
0,160581323007577
0,112668351172103
0,128466678620369
0,123747480097826
0,127179907536383
0,121120879190445
0,119285365424354
0,120681998369092
0,127457896540413
0,131340067273029
0,086570869029825
0,197726430912179
0,12914802306138
0,120369193074164
0,109654016356652
0,111760745732649
0,105630142700019
0,111094408841393
0,1083480414668
0,130162573760044
0,115104889947505
0,103748731460379
0,109833212759811
0,110506003327442
0,139715478725849
0,10365747912168
0,108087445952511
0,101525319402358
0,0958192793849808
0,101868885025717
0,0843473126218564
0,142727249476677
0,110114161964094
0,0878719623005328
0,0977982916329753
0,089089696120429
0,0942314566050875
0,0877269841918346
0,0949377825698528
0,0924215069521843
0,0939958080118511
0,0909870511478726
0,0934934044425907
0,0835471683498859
0,087457299030427
0,0876219747321491
0,092979592097484
0,0787935231555843
0,0917182715335331
0,0804553579117116
0,085872038423402
0,0772097092037439
0,0887337584996294
0,0832123255209687
0,0926713858388055
0,0876283087281466
0,0803549442867055
0,0795797523872554
0,0813878164118839
0,07889789602726
0,0841468294904625
0,077666659280271
0,0847909988454391
0,078684052660978
0,0827628688954528
0,0772866584302105
0,0826487889519693
0,0794439537939219
0,0842399969972709
0,0784771808716995
0,0848812628196181
0,081564626364025
0,0810767289936333
0,0785287698985413
0,095214275665373
0,121823493288263
0,0784575180635385
0,0836468011276133
0,0790598165632964
0,0770629811918109
0,0776051330999111
0,0975318355759685
0,114243920252999
0,0755217976485806
0,0819909301842425
0,0765042510715436
0,082818245507896
0,0866014185409969
0,0799808613813651
0,0741348471163068
0,0803107824816619
0,0572282775597563
0,182683529792163
0,0831802092466713
0,185617522868969
0,0966311406260416
0,0836403430887168
0,0706204897754469
0,12029718898141
0,0829488806529966
0,069306099710926
0,0828722713542599
0,0924206609040066
0,100340695740093
0,0721262721701906
0,0798726354907671
0,0739871771870774
0,0765858125980121
0,0979128438348526
0,087218032571348
0,0805067372129867
0,11551749029509
0,0941143984032019
0,103560183634881
0,14727127638581
0,108262085983707
0,0778526730282239
0,0709728418131902
0,0802604186561062
0,0757516864088158
0,117198592255761
0,0911263517830583
0,0800676136611266
0,0764288535428204
0,0593938768055586
0,0773868702291474
0,0820172835829848
0,0849536961749429
0,0776339076562245
0,0918071673082282
0,0811405038273856
0,0581731824063384
0,0994999612021299
0,0807633182367005
0,133558686056363
0,0759349076903111
0,0705761180983163
0,0671867948532624
0,116914088228815
0,0772700353525736
0,0821307274429678
0,0698022126330263
0,0632011561513968
0,0826296386074065
0,0773615314603833
0,0677088370053511
0,0935879011411487
0,078619602426641
0,114180924248791
0,127513896516539
0,114042591416312
0,0804923100962224
0,0620282734767476
0,0587689077455954
0,0720975708455057
0,0583628947978782
0,0713078326768608
0,0531192249164864
0,0910585304535838
0,0553220575357595
0,10610084571613
0,0806571230109426
0,0629375882617127
0,0658134079223502
0,0651515137212221
0,0664481097710872
0,102523151150508
0,10016914122739
0,0959197540642636
0,0663130794352533
0,0965736196926156
0,0746871297516916
0,0766997209229103
0,0749060258414624
0,0787560485494172
0,0740360200940733
0,0852360139337206
0,0848878969285098
0,0835282325532176
0,0800997793623152
0,0924876029909651
0,0921082910739224
0,124967320083199
0,0975907765894599
0,0942319870526452
0,136432100789457
0,126913250419083
0,132837884254644
0,102742147938799
0,113174582221477
0,111051963350782
0,107871564420667
0,11862671013776
0,114099421867098
0,146222965084097
0,128285363230277
0,120628840602959
0,128424553300535
0,118157323273455
0,135365266172609
0,136893809740192
0,171227000031944
0,140913453265995
0,195073199594126
0,144763120750992
0,146284085073388
0,13673874532259
0,135401307539749
0,144505404483506
0,131795462498237
0,143311184123404
0,136083028346057
0,155039972183015
0,149267987220697
0,135560388575886
0,147819377415635
0,139559097262061
0,143383429551037
0,142731617124156
0,141529883390837
0,148771184532493
0,142858052714447
0,147018120916619
0,140177192317773
0,182140941981246
0,186488226514834
0,143466854398511
0,160953634398575
0,152981444787378
0,163590094619986
0,151055702717909
0,160771408864853
0,173948006586155
0,156136373607583
0,160462424420657
0,16010705848294
0,158979107077436
0,172831346873209
0,17468438142796
0,173352006258511
0,154540039604719
0,178836513565524
0,146905918449919
0,228887678537686
0,180385941824976
0,182271814055905
0,177139402328951
0,169188647788473
0,171417583726135
0,16763946623149
0,170624900005187
0,17035753301445
0,172757166026084
0,171869669783499
0,173217928415329
0,165649213820818
0,172131612021836
0,170386889370479
0,180711372934653
0,176839683985249
0,1643566119952
0,169382500124061
0,160895745460635
0,169177562174033
0,173043082236337
0,19142816968513
0,165950081824067
0,171997250806039
0,169764149832321
0,176534683518596
0,179000724796051
0,162678665406508
0,15778778132311
0,170541943874973
0,156433073486802
0,167216552945923
0,160376968370192
0,18011236273437
0,173729693951534
0,163303525254364
0,166921689375912
0,167360659192115
0,169062115346448
0,166791438525819
0,172428394428336
0,172044349232703
0,175407294893011
0,17506117136912
0,179904905979357
0,172958438101544
0,188601988399571
0,183236818746057
0,184719066854212
0,184282402263741
0,17579775548373
0,178934120657427
0,174288591736673
0,186541128852814
0,175495985362025
0,1753504387
0,171667842709019
0,171205199050083
0,174006602810069
0,189508558563613
0,189075895984659
0,168022922117639
0,182885443013824
0,160747175365302
0,173884549654838
0,16340552965963
0,169496607518473
0,163536775880513
0,168332856525628
0,161441061557138
0,162789367097326
0,159112290868662
0,159951143084414
0,157678647279727
0,162011646958414
0,155582576818644
0,157601002446655
0,157295852007694
0,15815287607187
0,154535447067739
0,158947851780363
0,154304010057827
0,160431953964641
0,159799087484966
0,173314854865188
0,163226635284926
0,16685302102712
0,156822833645797
0,163236615947548
0,152971166307441
0,154140039885727
0,152764995908737
0,15312504747273
0,150010780760834
0,151978381356145
0,152106080201317
0,149052323601282
0,147574246481642
0,150124597963892
0,14942883064842
0,147295193485521
0,146059965716556
0,145054730948904
0,145148392912766
0,142589931640156
0,148259064431556
0,144504188050373
0,145159917614319
0,140751468190506
0,141769847497899
0,139546383017523
0,14070971073965
0,142104651382259
0,142085179451756
0,142281524635151
0,135594581355177
0,136799835019586
0,137288264067002
0,139145235634122
0,137329706202474
0,13757537158633
0,134703127487736
0,134642970943796
0,135438814031046
0,133521585489804
0,13300712585939
0,135549163125238
0,129711957577782
0,128609655690257
0,129146728548108
0,128258915243335
0,127324773991222
0,125845297314787
0,124766973751781
0,121298542714087
0,120354504098971
0,121749352317007
0,120262766968851
0,119754385167576
0,118741750352113
0,120553790743292
0,116030462098284
0,116938042060415
0,116570743266154
0,116533428630818
0,113892715800958
0,117568143401948
0,114765497018783
0,114036206558736
0,117605054721634
0,117706480992634
0,114969580600736
0,114617360601677
0,114738826268733
0,115546254799101
0,115634900719036
0,117511195412296
0,118107970190248
0,12082753574335
0,117844225423421
0,120801428910283
0,118484076419598
0,120321521631111
0,121070192132772
0,121187357955494
0,120813162079698
0,123318136169086
0,11832479608838
0,12150056829883
0,120190183126985
0,124077854624153
0,122234643260551
0,122306524936584
0,119628934325598
0,121771691890192
0,122093803274345
0,122238953101057
0,121996489233301
0,119540773968662
0,119031467545908
0,120450633261336
0,12018319295141
0,119372790915886
0,118246098716787
0,120873956097163
0,119027768966105
0,119777450314121
0,118248664273355
0,120063337689039
0,119115216066804
0,117688462763544
0,118177374213157
0,117919370372392
0,117580599991047
0,115593308575578
0,116954650504403
0,11697880599977
0,114819547880082
0,115833236786557
0,114873031096105
0,114042908075929
0,111339670439276
0,112771824874734
0,111174713008712
0,110817451101727
0,11031103636092
0,108596983826179
0,107538716804511
0,107170864466848
0,105227950968305
0,104634739120704
0,104951570961453
0,104900305254386
0,102985769906706
0,103420877407652
0,100946342222299
0,100061416296771
0,101148229959885
0,100807532815798
0,100066757315734
0,0997358688278274
0,0990273337993395
0,0995107901022022
0,100363754319391
0,0993007541217822
0,0968654070861611
0,100373953790707
0,101058729812192
0,099687968787327
0,0982750759696498
0,101183542739963
0,0989649343551619
0,100856564710563
0,0998437769528029
0,100128532402732
0,0985261559936558
0,098387941820141
0,0979704887390635
0,0978964282039898
0,0961371056255284
0,0933421876861278
0,0928591517625807
0,0903199167099841
0,0885879085551102
0,0886020956931505
0,0866581048528889
0,0858741331645482
0,0850224520248351
0,0864739446472395
0,0844617935625704
0,0846548210252509
0,0869816842249501
0,0862258196337364
0,0882557957507942
0,0916808464275754
0,0932122265094158
0,0966732852841966
0,0996495029798794
0,103088435505363
0,105148092325167
0,112178414170784
0,117127124999443
0,122667755765643
0,129358050893995
0,136047783990109
0,142033670979128
0,14961868996876
0,158141901310886
0,164634606293012
0,175602191783343
0,184954311255585
0,19559460125991
0,207333119330292
0,217354284584753
0,22650675268125
0,238362833022178
0,249738275021103
0,258658797479473
0,269897458346324
0,279489578119927
0,291651283285001
0,297198662783042
0,304262283073248
0,31040082469482
0,314966854616656
0,320310649561485
0,323242043844426
0,326646851867292
0,324895376845397
0,321386484801459
0,32164071315281
0,32013658451691
0,315946248413224
0,313506167812453
0,310258215515558
0,305822487327939
0,299406192332627
0,295801397823912
0,292756007843498
0,289548661782974
0,285569933143647
0,282661493766019
0,280434731578414
0,278296325196818
0,276565335535024
0,276384546880454
0,277609222959276
0,276521312226643
0,277040529562429
0,279399811733576
0,282800947935624
0,286478888913196
0,288739100604601
0,29208128938348
0,297472224412921
0,299064752698237
0,302607577236618
0,309025585753022
0,311869197553549
0,311392622041694
0,316315786238157
0,318130038331249
0,320749460305616
0,323798969986806
0,325568530129775
0,329217556561255
0,331328028373288
0,33152978351209
0,334439709570501
0,336607671822593
0,337732051456996
0,340903552489257
0,338879704216449
0,341437831457108
0,342962715295947
0,345428954787179
0,348820668714235
0,350987858590839
0,355275895861274
0,357377018769342
0,359600560346614
0,361344034051821
0,364044020110725
0,3657522564191
0,372010973652693
0,373270950316875
0,374843860166024
0,378961962579469
0,384559527573975
0,390832214129416
0,398541493053102
0,403761483111341
0,413520068520431
0,420623806327584
0,430103746755254
0,44328302308842
0,456483782273641
0,472037394007799
0,481553368744875
0,493467265769783
0,50660265082899
0,518474606653472
0,527450491612187
0,536471754843096
0,544938505593284
0,547150020165714
0,549246850993769
0,553264619319467
0,554153434060467
0,545422772300954
0,539644159366987
0,536071543524033
0,529845917217479
0,52302709919194
0,516438563334811
0,507820641217345
0,508702779873782
0,509071313314363
0,50440231330501
0,504401625438453
0,508669544570374
0,507390251479383
0,510103390613913
0,518502576982823
0,52354719464026
0,529949256713592
0,538104846859551
0,543174078674271
0,551019244317047
0,559965827382167
0,567243878826462
0,572080879323957
0,583153228216691
0,593250317664542
0,592335362663785
0,601723944099335
0,613346348867087
0,618612574125521
0,62525016955712
0,628978869978998
0,633564147547339
0,646024883213754
0,660342811456436
0,665040676001279
0,66894399732266
0,67793661036941
0,688445257958163
0,687433635288845
0,693330559420062
0,699159303892598
0,699857799762389
0,707563160337183
0,718452117184298
0,723759951198673
0,72800098779319
0,726840198215666
0,729626205265674
0,733889305935192
0,739820981328166
0,73686589622216
0,732488198168987
0,737088571587724
0,73439580399687
0,732529105568032
0,729660395578772
0,723410728669493
0,717921621468035
0,699288091591216
0,689273241132792
0,677704831531362
0,663233260491333
0,641119326855608
0,624131339633371
0,606365832714249
0,588534659734655
0,567130841528686
0,549780788412759
0,534711141973471
0,512190927926457
0,499172172621541
0,486036770996767
0,471897948127711
0,462358931075195
0,450017604585788
0,446039344849125
0,433200589744956
0,422960053722937
0,420667749957558
0,409037779850279
0,405455004715657
0,398605586090422
0,386848828747725
0,382934507138251
0,373140104817569
0,360071131010587
0,352370068693613
0,341017972171764
0,330531574281854
0,313618439594064
0,304479243785747
0,292957450298083
0,280590665315199
0,265939126951154
0,254756777562893
0,24274620845417
0,225978183624311
0,212694272426563
0,202584108893697
0,190687376062504
0,180000949905182
0,17035052876269
0,159282472160227
0,149960690835961
0,141106322554114
0,131356369240073
0,125233244273542
0,119165011257235
0,111557945092324
0,108844377570503
0,10255891270687
0,0985956423429266
0,0926331353513999
0,0911374956184617
0,0862276349597069
0,0824107466877629
0,0795373798613604
0,0750975819930088
0,0771545762210321
0,0758104875820061
0,0732082018635555
0,0734397412069864
0,0717648769224436
0,072690209903866
0,0689751174666284
0,0699410447248279
0,0697869264044267
0,0679611331274921
0,0705218380684643
0,0717887566556427
0,0708192861264774
0,0706667855742326
0,0727831597165342
0,0699842617519206
0,072777233502277
0,0744363979831233
0,0758359912356478
0,077271438200899
0,0761640288145482
0,0791478274896207
0,0833769579442412
0,0838507903404784
0,086899996942983
0,0881298073835859
0,0883374174268429
0,0877487903415544
0,0910073956769882
0,090443921515866
0,0919245485795264
0,0935307979294286
0,0936212701264449
0,0945576167866485
0,095838512461365
0,0951697605321836
0,0963121362314407
0,0935973083963123
0,0930616091512598
0,0972047825885703
0,098556640984639
0,0961422758674997
0,0955692500240492
0,095784599187415
0,0932655762143363
0,0942908753589027
0,0932583597236598
0,0930186874999039
0,0918943468456624
0,0945377241100589
0,0926737749724918
0,0919463890580473
0,0864360180224663
0,0904088948161244
0,0901820645690208
0,0871966265506736
0,0888897401441132
0,0893097746753675
0,0868944553464155
0,0853771998305849
0,0859962947003172
0,0878852120578854
0,0854948884183185
0,0853839619639165
0,091789869922141
0,0893086287690198
0,0913301723228754
0,0917246230671284
0,0933072061967325
0,0956905315457242
0,0927536071935192
0,0944373891551537
0,0984159386616051
0,0994755535955513
0,0989667043001417
0,097428714610263
0,0973043298965168
0,0993546051657849
0,095138626450944
0,0932129309008187
0,090079036967889
0,0901779560167459
0,0895247046437812
0,0859687915665963
0,0831179210212804
0,086998950808863
0,0851276608297345
0,0823777412545255
0,0788749610894697
0,0822623114415481
0,0821068377039491
0,081460391841323
0,083281520338355
0,0858243158858736
0,0834058437340088
0,0852439437452108
0,0865799873901972
0,0856732341867888
0,0849623113400156
0,091215374651213
0,0840045967687251
0,0873461446578891
0,0868446020566126
0,090081725793995
0,0944221450221459
0,0881452778397307
0,0947127465693251
0,0952068291344301
0,0896622394781855
0,0901385186202952
0,0876220331833963
0,0912162054854477
0,0924404577668171
0,0926554128447377
0,0924367490964395
0,0898386708986655
0,0950302551307421
0,0968323034382705
0,0948701904678777
0,0913548517645873
0,0897052912693931
0,0905209695374789
0,0993673466903051
0,0924343493141033
0,0943611800699592
0,0898404233061577
0,0923992369200401
0,0912684156238322
0,0895434992062327
0,0862922025593923
0,0893296007875122
0,0883940226598399
0,0873753766030655
0,0876656635380726
0,0857122759452323
0,0836673475292896
0,0867269055933812
0,0805563061407385
0,0856770363762034
0,0845833040769706
0,0806375632565547
0,0798222812079689
0,0762669347523768
0,0735985234519579
0,0777800544438814
0,0773322075396776
0,0738350996242106
0,075064052718026
0,0716225458488991
0,0728575483740604
0,0801875993167915
0,0757521719637097
0,0778231422531074
0,0800610759496664
0,0812223897132215
0,0823233344576325
0,0815154579431492
0,0828956503192802
0,0785255635667927
0,0805655750188777
0,0745382363438005
0,0781113080228
0,083661993111667
0,080129143701574
0,0831496518854072
0,0766997701954092
0,0880593982840714
0,0795071547271731
0,084659756944993
0,0872335676095874
0,0800950552558359
0,087278550765916
0,0812896687209466
0,0905695344462
0,0958767475801279
0,104951770094364
0,0959214877863055
0,0962812581355901
0,104741326402762
0,107587586680394
0,0977502063750417
0,0994530860767737
0,117761317033236
0,111594010283486
0,117034668162132
0,1316599749104
0,119865499935886
0,123089112408537
0,121939883413736
0,127536700200633
0,12667307907721
0,134531504046112
0,134579759778901
0,131864213247925
0,138406638864152
0,140648817439334
0,122967633396893
0,126307628494145
0,136341004326947
0,134583208010459
0,128286462599094
0,135645743021838
0,142143957215192
0,136132958590088
0,128223181899013
0,136543023965953
0,132048906803539
0,146406632753288
0,133256626331714
0,14388579625652
0,13977473369896
0,146860402849551
0,150715794009744
0,144343791608444
0,15186101727911
0,135291798641097
0,144229054788087
0,139492203518141
0,129818827886978
0,137091201144536
0,13464832835788
0,1352358590392
0,136258754438501
0,120454841667543
0,139302054528723
0,131773785007608
0,126038210626179
0,131599371092992
0,120968450332
0,132914780552602
0,129658250432563
0,132221103407786
0,118522561342079
0,107492167116298
0,118357725475013
0,120241683586226
0,127845942204358
0,133737545245365
0,132767986025252
0,133748001185154
0,123958012950487
0,134301919836013
0,128477433579767
0,125732018494574
0,120781192797273
0,130544923833747
0,127894704503936
0,134534825105542
0,129722587435581
0,142407718566269
0,145519683860258
0,102550559415184
0,120580349298643
0,130908430023998
0,133030660867025
0,117812156856759
0,117655040653822
0,143369473606528
0,139485360458921
0,130334480562677
0,146285840859655
0,16400296620953
0,146758548620826
0,152837860047635
0,146807589819415
0,14527927591396
0,160677330296878
0,156065428812874
0,139555874390212
0,160642725634743
0,14511166981502
0,20656037553342
0,203080263397004
0,144589716104801
0,165626724338395
0,184789996156178
0,147423791058831
0,172472123610079
0,19042526020399
0,175917981760147
0,174989893969065
0,198123158797055
0,161266499322848
0,141105704789189
0,147919126010775
0,188924345687178
0,169118302963935
0,192299286096593
0,154686453145931
0,140992789002712
0,202159706277569
0,190607501279459
0,171926654843948
0,177309359563612
0,161079663420495
0,182495207041703
0,168225808755356
0,134147456284947
0,152068209302904
0,168367440028233
0,137313839397162
0,196886776495462
0,185770908614374
0,111368343992243
0,14138771286815
0,191652600713919
0,116207220479349
0,14130078854193
0,212726606640852
0,197819657810911
0,150251367180418
0,15320717494038
0,111108602859774
0,148056397677044
0,193305149569506
0,138982467802425
0,12108521404942
0,236150185799975
0,203510864524382
0,239057578035643
0,177257848978657
0,23290156591273
0,19686189464065
0,139585504029246
0,121350095718043
0,154217044729611
0,227189763516387
0,103942741964529
0,0460633294122656
0,113383384273108
0,15131887193527
0,147198571936671
0,191280794185869
0,218427493581717
0,231172503371747
0,238231702831217
0,191261527457045
0,33264960183307
