3596
4000.36533379555
650.420452594757
1
2
2
0.0470379017085434
0.0488012053867127
0.0466197803234118
0.0561626343011508
0.0451540686967732
0.0454025663094765
0.0404633612076063
0.0493045894428139
0.0382757940122203
0.0538220858086581
0.0448574996993594
0.0445045905236168
0.0437308401109097
0.0513036446200915
0.0493803224122671
0.0533199584612982
0.0411475826199024
0.0483691083720187
0.0422656544330193
0.0579141991605975
0.0475707500496322
0.0529513684827517
0.0426390699094231
0.0456635136448103
0.0460131539078356
0.0595302898465437
0.0535494101722096
0.0568628449788346
0.0483394653838406
0.0452910598929943
0.0413167799186986
0.0481833153928551
0.0375317157198995
0.050687039608401
0.0476992577195975
0.0485691950146176
0.0441806898987671
0.0491067533439914
0.0459531155451236
0.0541046701477527
0.0491744048228914
0.0555573014234929
0.0454612300958353
0.0537580671286964
0.0439009302614505
0.0496047146941314
0.0464349135800287
0.0463765198486677
0.0482572789977272
0.0534485831751103
0.0439594405669904
0.0512992710429105
0.0530320737578246
0.0600523071752655
0.0507363795542174
0.0693796917481371
0.0527345261688037
0.0546338664523096
0.0484552142413581
0.0504647063187733
0.058120337746359
0.055029872073406
0.041659602369575
0.0487850517791323
0.0392960762976949
0.0499999947176243
0.0361464632788367
0.0488188340646432
0.0434100199152933
0.0470156001074966
0.047110184833119
0.0619041871466186
0.0619064061280429
0.0517447468964623
0.0500734030414836
0.065003265363348
0.048145796390957
0.0417624519829176
0.042227517301917
0.0595817133091531
0.0551078780137422
0.0552569572563125
0.0431687243166636
0.0499651227087574
0.0494767335954811
0.0549317040026471
0.038947067061898
0.0622979973754886
0.0693853427135069
0.0584162671206616
0.0477410503110078
0.0449221974442276
0.0398795862927367
0.0433930840942444
0.039067806062274
0.0466227209395721
0.0415603654251438
0.0541856200958422
0.0475595647792008
0.0448723967691747
0.0622529693297371
0.0739597589535394
0.0674079247645269
0.0572297439233068
0.0630394868057115
0.0610998315329331
0.0611377591802559
0.0884777602463447
0.0489804077627269
0.050556565789089
0.0390170147734471
0.0468034660186267
0.0489986829863967
0.0558871998687913
0.0531953222806804
0.0659790500918193
0.0553718706801217
0.0417406875855196
0.0475519479877476
0.0468975251222031
0.0459050891896922
0.0824190175207935
0.0624570175707213
0.0461964067481058
0.0562240209889477
0.0444244127996807
0.0565243054931245
0.0716453524855041
0.0541751067097541
0.0454876849791815
0.0474204249139388
0.044709012344346
0.0429082514108232
0.0562907141952004
0.0687581564492408
0.0468571110753416
0.0546520940729431
0.0661526156701488
0.0855541994126163
0.0813267854707225
0.0390001385135682
0.0458161516423745
0.0493498413334834
0.0677645108216443
0.0701464423273624
0.0486073089588048
0.046926229904919
0.0644889271704896
0.0468035068574947
0.0422261857416924
0.0430771804921861
0.0579527298994669
0.062506104707049
0.0530757696614394
0.0576309462747811
0.0862951784745061
0.087762493574173
0.0641473606685069
0.0761535265418719
0.0494869408139976
0.0516030040690302
0.0444760862288572
0.0404478204980642
0.0481485950186728
0.0446451969775402
0.0551386723529625
0.0625063415438063
0.058120866866806
0.0416386747170932
0.0570653759108243
0.0551878321248329
0.0611062081899157
0.0574396707438013
0.0703396228169873
0.0561197965060933
0.0608141505024121
0.0660790738313445
0.05202704900796
0.0478212781037096
0.0654537315272164
0.0622894116956906
0.0405945883916245
0.0428836228406326
0.0433552260335694
0.0512904851195239
0.0619246714076559
0.048908310922232
0.0489700340519176
0.0459938030631197
0.0401452279664295
0.0640336848622487
0.0793854250738421
0.0625199597593098
0.0499529902115588
0.0494476195066068
0.0543728302573759
0.0677337422753497
0.0611631006242706
0.0444749872294587
0.0440648788816673
0.0421067459672679
0.0405609487602263
0.0378540377769273
0.0396738893077041
0.0438413528949744
0.0642698585823524
0.0711830371678006
0.0498183943291872
0.0369661841830001
0.0468232480765695
0.0565846969727729
0.0702895271652895
0.0740402321992004
0.0600653734781687
0.0420561983132252
0.0450988006781255
0.0511405305308693
0.0702100670289076
0.0557347818358284
0.0456203377085467
0.0402072520584702
0.043142695455908
0.0404422555112377
0.0395230943913554
0.0377776345560995
0.0403178709048261
0.0408654556215583
0.0505539713037566
0.0474146044660358
0.0499984257624995
0.0453259281642379
0.0453929754173078
0.0375865435211695
0.0447064322399126
0.0494923986510747
0.057739129818932
0.0553944064425284
0.0461503387084611
0.0363568076100689
0.0389899891887998
0.0393495198517603
0.039260895840062
0.0482526695510896
0.0456361139858314
0.0370636863019017
0.0518146598526953
0.0681933426968746
0.0496895963223802
0.040887908692721
0.0505628636858433
0.0500042051678402
0.0624868077869388
0.0430927734180068
0.0490985858235252
0.0436257245180176
0.0460354774188264
0.0472430543553047
0.0660212632452506
0.0495479531789955
0.0535190300739289
0.0512457374566992
0.0491717639279682
0.0428448816096843
0.0546185243098588
0.06600431622104
0.0884738664307074
0.0620786677877292
0.0793177520759773
0.0794542205326811
0.0624202646648104
0.0494225635419811
0.0576072775489843
0.0589214016347768
0.0975038299391656
0.0659420864077923
0.0565154898167512
0.0542923752773807
0.0591980045047826
0.0480935153383386
0.0530957315039188
0.058420556274254
0.0598828781347012
0.0922866885365972
0.106031308570423
0.0673485038653138
0.0602627369389391
0.0667317268201253
0.0591279425975487
0.0412642299320673
0.0480745304034473
0.0439717973204529
0.0551785026795526
0.0589067018508156
0.0640859968886859
0.0536060715535515
0.0530069809627266
0.0633124191563247
0.0751077452544532
0.0448966837053512
0.0520172311772247
0.0537405168197665
0.0584177727796439
0.0465381694539672
0.0471275105045543
0.051617627837551
0.0542633644878797
0.0519568563007662
0.0661986759305612
0.0696906126282039
0.060921998597977
0.0615869936436564
0.0640312481575774
0.0477214217516102
0.0505694404585611
0.0479896466754147
0.0488014671910604
0.0446746546291584
0.0530694550482648
0.0604114275331636
0.0721803335185158
0.0515901331262867
0.0469999746695006
0.0494734381865185
0.0497140853956091
0.0521663016462197
0.0488234718876233
0.0469116706405482
0.0533054023676325
0.0513343054193488
0.0559739364987619
0.0626268667815062
0.0618600332473771
0.0587725021841586
0.0780164891892352
0.0654156033976316
0.0542663083482123
0.0543164049708099
0.0508277472444526
0.0562527306333301
0.0480176004252271
0.0508738443308341
0.062322342885237
0.063994157283668
0.0682721914741882
0.0574205161829003
0.0609368469487502
0.0723172495102006
0.101357685649261
0.0864203959909099
0.0627063031912617
0.0592936616439976
0.0733965805238852
0.0857955545027128
0.0805790815113801
0.0760054277614475
0.0739584316850087
0.0570918401704982
0.0601969408255213
0.058566917350355
0.0604255757255503
0.0594547100418924
0.063712452777493
0.0580542610168979
0.0644951413461751
0.0698832907297944
0.0607680236073754
0.0677184299687267
0.0860747739118094
0.0887965575936624
0.0742781075868185
0.0656310399137798
0.068646754184522
0.0828374867520095
0.108133791100749
0.104385216017761
0.100551922099318
0.0968253385860654
0.102399815857337
0.10009881149854
0.081155561142372
0.0770898229482308
0.078939639054196
0.0780087128506472
0.0856719798834755
0.0829805420680403
0.0857938635792951
0.0881927589783752
0.0922138751431601
0.0920524522245536
0.0913434673718338
0.0931261209421896
0.103436183993307
0.0985216047767512
0.0879381127518342
0.0940152179163455
0.107755371435259
0.128056993764638
0.146368910238871
0.122945945038415
0.113945456831079
0.115274579059231
0.109505827886851
0.107273370921274
0.108103677895786
0.110095314110911
0.123408897236607
0.125004894172025
0.128469959522817
0.132366668040479
0.132289011731272
0.123708103431029
0.126682069123658
0.145787173289638
0.135368759125947
0.150119138397165
0.156523027417559
0.13192364371963
0.136858347963246
0.153784350269199
0.136161236616158
0.158222280114165
0.145881027107376
0.144099400685317
0.145164255663605
0.141801115427122
0.145679958754325
0.152691548716488
0.159101231471519
0.152668263267612
0.158302590643368
0.158268093063389
0.159984136278586
0.176494022953024
0.166554228033126
0.167205349505119
0.171529152794846
0.172388051798104
0.173880324183582
0.173006496759001
0.181079380571606
0.196398812150037
0.19603085276778
0.215886970110832
0.219305266744046
0.18687534898248
0.193035584028146
0.200098181497097
0.204282200741994
0.199019146604461
0.198465765493714
0.20776071837007
0.207930640872047
0.21189304625375
0.218763300642045
0.215755259189899
0.207417942472391
0.220902915605904
0.218885599166521
0.217302198139513
0.223187876823375
0.227299872789797
0.236184587370337
0.260764367639203
0.261232081211841
0.258998558561478
0.252439919460213
0.248060948457365
0.245651733681599
0.24726657490753
0.252579197536317
0.267654407629353
0.271013079348162
0.274452396016163
0.263562383499406
0.284918632147423
0.2836250251798
0.269968191224939
0.281889812952172
0.290144012862324
0.296409291249275
0.291047777920981
0.284128111130152
0.285289799725912
0.295834924431943
0.314256317600388
0.309492333437954
0.311130227920338
0.323713972719395
0.325603907993566
0.315671869786556
0.323366673823495
0.326377922141709
0.327334615215578
0.329861634439723
0.325746538901611
0.338648163318775
0.351170872191301
0.326319318171614
0.352989448087435
0.360335363768721
0.355664213723387
0.351936055376941
0.366136875021479
0.36729231596394
0.368246333682117
0.371857411732164
0.397489539198898
0.389018246804071
0.390235347336389
0.3923097722708
0.388876724018181
0.387022249233953
0.420866227484674
0.412190897885435
0.410596415031847
0.430034454628275
0.413676093565165
0.408132793538115
0.420924823731316
0.420716969426469
0.42208344216181
0.419635736905259
0.425385475716609
0.435658656809643
0.456855348348809
0.458308391702591
0.486983858659371
0.449866969148265
0.464061673204156
0.466682582562371
0.465724286633394
0.469158702464659
0.488300528224862
0.482954118704588
0.4882285727272
0.482156375035056
0.491570578504791
0.494910899416067
0.484060693395584
0.518376590640808
0.517694517763328
0.492016834975541
0.540842598306893
0.516068048124208
0.514812367131437
0.511520802571821
0.522613924254426
0.527167691680246
0.549775661251755
0.549872262511095
0.535267284914671
0.549228080876445
0.580256794026643
0.553803950555797
0.586725823394289
0.558826810914586
0.56860209280169
0.562475148599383
0.573242039917816
0.555148010598142
0.592152100020576
0.591266441405125
0.591057471810785
0.566586600291822
0.598492977431867
0.572552994129259
0.593879610588177
0.586943735856555
0.611573917457702
0.582672048266227
0.608756068179861
0.599189323278144
0.650673015641999
0.627005330746501
0.654127930079126
0.635189628126096
0.633448356866937
0.637467898455577
0.670316348911627
0.637780527780467
0.655345304307256
0.667489841955428
0.677936392425016
0.650617643884984
0.663430173008337
0.669863884454025
0.686587548811983
0.687519963942354
0.700342628974939
0.663395693437148
0.674568245055951
0.69716818190478
0.704008536006325
0.705924223465998
0.739386606741111
0.700792312707991
0.702786621442192
0.703708633202114
0.695117158731493
0.704306978531232
0.72485252417051
0.712853577194336
0.711016631090759
0.712508019763356
0.765620324274083
0.725330521064653
0.752773438406913
0.737727574035571
0.745209739173485
0.728745079711995
0.746820594113801
0.774390821169693
0.771810180199515
0.750546026599948
0.747224525506275
0.76257022136523
0.800628416307514
0.752072791158748
0.827016082357551
0.763652263291274
0.76184242906717
0.730917793910977
0.80666389342122
0.782398474977806
0.82626550077808
0.790912074124946
0.802941630143651
0.777492158632968
0.80863354088909
0.794963683275992
0.840526552812967
0.768662504542347
0.856060273858678
0.792838606141434
0.816742924960157
0.823743227745722
0.791094940083902
0.805316231667957
0.83861783541877
0.78944774546953
0.792991796178405
0.808091794430506
0.834225369302975
0.818075184372104
0.853354445673596
0.850603757791352
0.92980635719656
0.837072843792663
0.833519745288694
0.821369624372511
0.875129042249778
0.815917027036345
0.83719853767453
0.861528903052104
0.893536631691853
0.846019176474448
0.881568456976213
0.874409658135043
0.905888182290727
0.837339632669298
0.864373308029895
0.859351058628757
0.941329560234569
0.882465545852065
0.870355599274541
0.849962472469541
0.893371406326186
0.8551949582384
0.863954093289167
0.848758568488278
0.881387860852263
0.866600297916054
0.869984020706956
0.855659401776728
0.863034452129158
0.834764430025014
0.897535259820158
0.886186637024384
0.906111054323809
0.924107621347406
0.955042415321586
0.905363366675139
0.918970625319796
0.891188105783446
0.930872708270305
0.931867929448881
0.859175309485131
0.902727208455077
0.906789080782888
0.861682399612043
0.930239059288786
0.868085497444772
0.898985279914105
0.876045830866892
0.888965351043792
0.875383882978322
0.935736200390252
0.917004315010819
0.949550794861605
0.872770358693138
0.951274525824787
0.891230159214321
0.939541330370139
0.918331571336709
0.911158108886009
0.844115448879511
0.919281876099404
0.88749184539111
0.924629076842121
0.895544808896797
0.918758242655717
0.899216628588965
0.969863961865252
0.905099867890072
0.876024347606398
0.888199852239666
0.936589801004303
0.875246766395536
0.93229259756396
0.892489408223125
0.927955104592466
0.860778563567138
0.927223764146008
0.911814937624585
0.921787212706603
0.898616954777802
0.937245783970119
0.871210873419197
0.896144375024969
0.891495262458202
0.911504904708083
0.89167288616523
0.935852607244282
0.882459475933759
0.92888632115193
0.88813641221586
0.922667871469928
0.900066736208337
0.870298273115187
0.874322720892388
0.856788338422647
0.872086222315346
0.922628048391816
0.898896011379314
0.881333031577211
0.849820887608559
0.93459597737165
0.870013591958914
0.892609429460423
0.895478393598219
0.913599850155084
0.878475862206369
0.88967176681176
0.882713975716697
0.895212536623294
0.837281107040922
0.875636583726578
0.871426408023175
0.865051325330348
0.85616079576311
0.910616744265096
0.881856722320292
0.87603570434217
0.850202972156233
0.861149029541888
0.843834398186533
0.890219427417531
0.863124680408208
0.859369671686999
0.848478123851089
0.864451221404568
0.835071306877236
0.871385255771588
0.819348764693554
0.864651299474555
0.835773636960115
0.851916411015899
0.820490888575474
0.851329283403081
0.849656407297612
0.886146107087902
0.843055426427943
0.851926497083154
0.83866181443786
0.852911777988953
0.841147807571669
0.831481278328936
0.821735885626124
0.865725774904928
0.833228177912281
0.832854119451917
0.803536348522939
0.841843345642297
0.818660107819826
0.808061823774527
0.799724620243129
0.821020977446908
0.766533993565975
0.819006158603457
0.787602359612809
0.825402978967162
0.800888104938107
0.813076994436783
0.819582618286695
0.80241651098642
0.821217386196963
0.789714287663175
0.80073612004732
0.796380614588603
0.787654353989488
0.783838777302356
0.78108712548886
0.802421266306587
0.765292616314521
0.801733955356345
0.765317066844676
0.771465174448004
0.763422734776944
0.772268914111487
0.742763992177677
0.753741258949925
0.74519149960992
0.744953322599515
0.777027059551367
0.776391943083818
0.753283526724572
0.760812991537519
0.749022020235326
0.753060737513653
0.729122887880142
0.758298172963545
0.732048060403976
0.739778304707312
0.728926500537067
0.742726008015525
0.723926734309985
0.728647592699949
0.699434371359007
0.70532025420042
0.720534831167487
0.739119357260922
0.706733807309901
0.72019387924581
0.714997921008193
0.709468234835749
0.69121721685608
0.706921641770926
0.684029988399392
0.693059624873507
0.675712200508012
0.685917195769745
0.689501688895099
0.696582426310642
0.675413665054795
0.679377108909582
0.678293343972675
0.678079545585569
0.66464688904571
0.696592896710136
0.640689808982611
0.667017342830371
0.65250540751297
0.661255057926581
0.641242065654979
0.646046594901133
0.647831563914513
0.649469790534841
0.63592240181425
0.643488375964495
0.623305599697998
0.642169182256032
0.631551246797928
0.641628274912907
0.62833386822118
0.625610275027791
0.589923164810625
0.623264105850461
0.619744433189224
0.619045849455627
0.611180562454016
0.614163321367904
0.588233813201381
0.60591233803408
0.591749747515964
0.595485539119469
0.594633496614044
0.585526374855043
0.569371512448701
0.579472773548338
0.571676998493932
0.582567074821708
0.570060180280497
0.568766794741186
0.551853742365139
0.57102709064422
0.555791222220099
0.573587274582264
0.545432622078387
0.539298372335681
0.54685088477027
0.547174515507122
0.543567095332768
0.549322084256102
0.549888812925796
0.532437881127264
0.532076569238447
0.534814503616575
0.51791785200106
0.526619853177002
0.515359733052669
0.527459260674517
0.520867701071344
0.529207048399909
0.504036324792976
0.511886652342287
0.512092717762015
0.511743727381731
0.497181576728044
0.500267761624401
0.494527055008703
0.499676970202853
0.481703511009871
0.486202423903132
0.47621983147011
0.479740471520923
0.490857189814229
0.479229928083436
0.472922225500819
0.471634797357533
0.463711920101144
0.471807668966811
0.463093892172189
0.459353338005664
0.454947582807918
0.462556920591804
0.448474667996587
0.463474584402366
0.444434297513795
0.444492143213103
0.44248910438117
0.446878606979714
0.435748198864328
0.435411615664208
0.43986997749058
0.426826292286952
0.423501647296756
0.42454748229627
0.41935849473034
0.417751044893943
0.426088775326017
0.415987980494379
0.422047584657994
0.418672195365871
0.411503411182687
0.406936727476473
0.404857501211832
0.415265100280659
0.406814846755924
0.410346108687124
0.399480179069472
0.39999826346959
0.392113232026282
0.395612504200598
0.39216877470063
0.386548128141734
0.384674457910804
0.38325025463961
0.377842920423618
0.379768580430801
0.371008818817207
0.368676259224951
0.365755227484361
0.377104166288854
0.368085349553973
0.368647083626491
0.362396640797658
0.363491599081708
0.360510408069845
0.359419177119164
0.351341883601285
0.355988649270654
0.351606630235607
0.355615230685449
0.348173047456983
0.353154938886489
0.343071452195974
0.340540675759112
0.329750964954721
0.344659974435317
0.336303888983419
0.336531770427457
0.339685260304145
0.332138359870388
0.3286212126975
0.331524818877707
0.328951041571134
0.323019567296957
0.328962198627834
0.326802605081974
0.321244913444593
0.323926946996973
0.313621081638378
0.316608660268907
0.315847355679287
0.309832256195364
0.30377387352267
0.307206516654441
0.305192330432667
0.309754488497735
0.298081837334071
0.300179889730979
0.298538881713719
0.302582421733953
0.304345911047296
0.293412364909805
0.290897869261446
0.294424091695756
0.287415501823762
0.291002787819853
0.28467451349686
0.282900866609786
0.279283065946416
0.276258527371397
0.279218940221065
0.276545637323782
0.274472468226358
0.28263179720429
0.275544605800221
0.27366876179204
0.272546111128762
0.275319198511417
0.267681474283084
0.267404623527431
0.257517270878839
0.266413087488202
0.264492058818091
0.264164042570881
0.25795566572967
0.256274262207551
0.253792082271587
0.257348402288315
0.25846066881002
0.251597128037221
0.244138935048372
0.249124207298281
0.2452089074944
0.253216322447158
0.248877239225644
0.241568033723397
0.245567748343993
0.243791809507338
0.245845084507685
0.24334136684118
0.235849549777065
0.243872942620759
0.231646620818151
0.23562140822775
0.233337340272088
0.233273735158871
0.238446927606384
0.236865678271396
0.234654310974638
0.233648721570337
0.232288161263283
0.229300455068126
0.226753172647828
0.228598797769057
0.232863783431374
0.235204858106846
0.225751210382901
0.231794115705746
0.227984975765312
0.225113280493266
0.222948854980768
0.222629904639306
0.224800015622911
0.22699615537231
0.223412650390165
0.226704743094836
0.225621385783523
0.225026518755243
0.22031035552272
0.226407852646009
0.221388383362251
0.223697801732362
0.22812320296656
0.228898715433764
0.221720650874171
0.225692503576159
0.229970773083316
0.2265805127627
0.232266575615857
0.231064849549939
0.23705762499399
0.23616419130869
0.234766962012026
0.233552831298686
0.23320155227187
0.23353007505609
0.236558775478069
0.238972025968989
0.238404793236014
0.238384355097176
0.24395125691913
0.243880287742378
0.238813968345854
0.242562361292206
0.245946812841075
0.247925176942281
0.250641482550933
0.254128642191974
0.253738130451513
0.261460043549606
0.248998656836784
0.261294367529358
0.25667256724079
0.26133741182911
0.265065499701206
0.264369266515545
0.267370674032288
0.266231301333324
0.268383571810984
0.265852925948604
0.270760177160712
0.275917909327901
0.279443393646942
0.280852023272579
0.285425338865693
0.284196918654256
0.284187637500347
0.291546403720901
0.289615734564814
0.299225946921851
0.298443701866788
0.302693877003338
0.294999528194977
0.302108721499811
0.306632909927535
0.318406664607007
0.30801021210883
0.309773488482113
0.313902085683593
0.314603903318464
0.319554642818257
0.323584525257303
0.316871591679221
0.322825987292549
0.320748517383685
0.325594864715262
0.313564734052636
0.331302359848765
0.318253850395808
0.32199074555991
0.319827570056249
0.321555644065738
0.317977500056391
0.319460438918132
0.316981375743666
0.322618904320566
0.323094459062427
0.324373178369492
0.315633253711267
0.319355581863835
0.317135776256309
0.317095910050116
0.317642993966796
0.323904541054142
0.317275584139842
0.323143321105555
0.316916096437125
0.319075483783767
0.325647218709274
0.319076656191855
0.316318420707706
0.319083520449209
0.311576505750716
0.323561620185994
0.315555324816615
0.319778477163493
0.31620454045157
0.321577431773743
0.314591369955866
0.320823788647078
0.319060208663248
0.321043460863458
0.321412837977173
0.321177411559152
0.317552122054752
0.322035297713792
0.317728139729039
0.319438730654496
0.322901020915666
0.319049724624513
0.318841398458182
0.32194935000981
0.313088861966316
0.314562982047079
0.316992586455216
0.31682237640373
0.316478378018383
0.316194743698559
0.316395460045309
0.312827685995921
0.305622757508162
0.314998385658834
0.308444173221084
0.316840509945338
0.308335133331049
0.301137207137511
0.298726940858387
0.300935748523203
0.301294766946856
0.300855386528908
0.304657641962581
0.29862323085225
0.290739625836319
0.291934050611052
0.289444509025348
0.291502522029741
0.282516017973428
0.281458778592027
0.279752277892392
0.274651836283737
0.272376674686736
0.278110976582469
0.264355768289411
0.266428886644954
0.265863800176324
0.262174858384345
0.263368994798291
0.260100308669859
0.252418164516675
0.253889403503439
0.248565301833913
0.247636546739817
0.23963073341551
0.248956604392346
0.242739410991392
0.245914777296312
0.237217146891015
0.230230173271244
0.235458843731234
0.241438744648798
0.228490912688071
0.229479798371121
0.229068035604796
0.22424115896611
0.227941586401145
0.226540956676897
0.220665950157095
0.222801369726315
0.218227086016383
0.218715293530356
0.218551044047592
0.217795989845885
0.216391140212432
0.215208050650758
0.209919651103678
0.209888964494532
0.205856770107607
0.209987231854103
0.210880219050682
0.203150618178596
0.202428049153066
0.200599994635299
0.199611510283056
0.205120604159192
0.199193012502648
0.19972630626497
0.198069620929043
0.202028776276907
0.194240323093693
0.194998534755517
0.192855281799013
0.192074829653282
0.19317516580786
0.193565302673173
0.191038406373522
0.187134600699711
0.189270564041865
0.190440819940387
0.187755026518821
0.183937546789636
0.184903935843609
0.182851348657914
0.183526859173744
0.183560033207682
0.179320028561679
0.184580782859239
0.182607983737444
0.181990975258647
0.178585192832614
0.177555777903687
0.179542278508317
0.173843377132061
0.17703141015773
0.17437336037134
0.17481217890844
0.175137314500232
0.171115584642438
0.171506307470584
0.171016596191878
0.172873586011123
0.172448764966411
0.169050727992582
0.168454940948694
0.167224253903309
0.166622811044667
0.16577906854827
0.170384374179338
0.166059542479932
0.164312622298132
0.163986844330184
0.161112693101621
0.163661131014791
0.161931753674482
0.159266977782413
0.165201807517292
0.164206294557679
0.160616386453363
0.164129858787855
0.161525709803996
0.162623217795394
0.159638224150918
0.15656475116115
0.160873858432354
0.159049863770247
0.157744128538645
0.15755022536724
0.158456338376298
0.156823935872188
0.153913423394265
0.152850981189205
0.155215334013466
0.153021327129947
0.154081303741983
0.154692619063266
0.155408812901293
0.153517352482151
0.150250051500757
0.150250426086541
0.151138292980813
0.149968444395052
0.152712192473082
0.153065967055669
0.152469675432638
0.150221957378054
0.14998520987665
0.151773235026416
0.15094587632275
0.149753262061761
0.153470811994978
0.146982778169082
0.14456770783827
0.147796105205742
0.146804890622506
0.148250720692673
0.14682278269126
0.146779972004797
0.148051395411189
0.146776564596129
0.147665390076924
0.149602879997501
0.14406917525888
0.143489698687029
0.142328413813547
0.145362741109612
0.146454192258686
0.142860563239696
0.144960926085869
0.144521418274806
0.144773251896033
0.144802929900734
0.143042435416874
0.143288362918097
0.148539274366336
0.144826049586553
0.142920994010839
0.143458014895286
0.143363210624498
0.141150409513389
0.14265516974601
0.141696958595634
0.140395489841102
0.140118084733022
0.138573128319711
0.139985182400227
0.143512092617324
0.140693179661539
0.13570067944592
0.138303689558668
0.138594144779216
0.140057879417375
0.137788163983963
0.136661918466726
0.133492305610089
0.133388259278354
0.135119172097937
0.138030313251745
0.134063460154427
0.133484814482736
0.135956947685999
0.134535229545226
0.13603527350797
0.131434661599459
0.129834404198993
0.132226974193362
0.132892617545395
0.128601541723401
0.130064549713232
0.129012421718388
0.128228730901867
0.12535545047522
0.126431031320146
0.128418126182019
0.129549941304045
0.12475604030425
0.125481136115741
0.126272377756526
0.13039731020846
0.125414689279917
0.127714766383489
0.124351363484964
0.124220113304492
0.118689671702212
0.121219926444196
0.124959087273309
0.12369645434224
0.121671981428084
0.122200892275721
0.125667312521606
0.121228657004079
0.118363824558963
0.120460452292394
0.116014296395777
0.121802413474941
0.11955519291785
0.121494824517017
0.116055471379524
0.112791032265138
0.11759222729505
0.118327352145338
0.116921508901711
0.118088407912105
0.114444604521936
0.116987046376064
0.115276961397968
0.11591979231743
0.115448216072566
0.112627513028244
0.110786812090612
0.112699250383093
0.10896137932872
0.112521839912938
0.10906440695632
0.108797074919111
0.109743007271711
0.104856772076742
0.106865556225473
0.108366371894676
0.10667767893691
0.105346088252151
0.102755632120185
0.108129243438746
0.104392208123935
0.10180209475151
0.104474389345736
0.106537305318641
0.103387758047545
0.107349128981543
0.104093771917365
0.0999192978488954
0.0985785465893234
0.101455929229048
0.098679427176353
0.101329364505515
0.101874921907203
0.0997481680237706
0.0992547606135066
0.0983557034905437
0.0986126280082169
0.096939573534425
0.0965250306080868
0.0966459506331127
0.0944772738171401
0.0983862060055247
0.0932141600663062
0.0960741933894375
0.0955099952502376
0.0946041894547554
0.0957838444996715
0.0934912542663664
0.0930478620466682
0.0943390743999285
0.0938492366266491
0.0947522848022143
0.0936293546448743
0.0971130760451315
0.0941491713415433
0.0943139805195002
0.0906781027205413
0.0918618651170479
0.0909985623604428
0.0906638878682781
0.0894672243915243
0.0911344090528009
0.0886698014210805
0.08958135992594
0.0851615456133841
0.0883614456690716
0.0880596811519777
0.0900676674580518
0.0862623279111694
0.0876907627965803
0.0865513501065635
0.0880026436522407
0.0841751877957754
0.0860132605652326
0.0859601921712154
0.0890923304335847
0.0867646677208326
0.084703096570066
0.0872576179595524
0.0858806926258374
0.0816036388840764
0.0867449760451526
0.085779299801208
0.085414885010986
0.0823243134417282
0.0834618080745578
0.081748361447958
0.0816732749829803
0.0809097032331053
0.0843236677964558
0.0832669299590424
0.0847687193662336
0.0822248754387798
0.0835215151662708
0.0817579514145236
0.082281028087896
0.080353482983777
0.0816899806866039
0.0822441339421542
0.0813386430696893
0.0814924735826356
0.0836017644259719
0.0769033401031591
0.0801086526508137
0.0788882318196987
0.0793477378566843
0.0807059313341043
0.0824862251686179
0.0801943300403043
0.0799636694088143
0.0764655951114929
0.0820612686970062
0.0783420018212679
0.0796543382265776
0.078691042645363
0.0795231823767031
0.080050106301312
0.08005873478168
0.0782878754863338
0.0792096632889928
0.0760230864979788
0.0755416203893833
0.0769284496328062
0.0780018594124944
0.0768226214200411
0.0798714274114338
0.0781698923886023
0.078495831315691
0.0789580501809036
0.0775825298068121
0.0763834232115591
0.0775772438658853
0.0734743279555515
0.0746776469647336
0.0727445415868146
0.0769034318098688
0.0755914492497822
0.0764888233769579
0.072639526010425
0.0758945971348332
0.076379425611276
0.0741285972290945
0.0714634353368961
0.0742089446712182
0.0724617877975351
0.0747759291421169
0.0736471870702946
0.0733838896423148
0.071809794576846
0.0727291744074772
0.0730453737925055
0.0729137090100109
0.0722232935565968
0.0762768581746624
0.0714531122601308
0.0714465171816157
0.071680206286397
0.0720333554939085
0.0696762415893784
0.0721639487320778
0.0716862250506325
0.0738250356567974
0.0704737216822423
0.0700340153714819
0.072573805258423
0.0736976649264358
0.0718008369150313
0.0747879850124979
0.0736803159089099
0.0722204534263862
0.0688375439955362
0.0703596941544758
0.0696928678515192
0.0727547247704601
0.0684455857407447
0.071817579583897
0.0674251167285575
0.0667013766795143
0.068317600804206
0.0689332289614759
0.0686642987468297
0.0684602926294005
0.0647289396928275
0.0680044508211333
0.0690447423566117
0.0684655641299063
0.066112959098793
0.0664799680768397
0.0637319081362851
0.0658329234156933
0.0651646770237252
0.0680276992145059
0.0656768366214379
0.0658715313403564
0.0645168039667459
0.065576783746443
0.0636277430492006
0.0662082775490319
0.0629955562499185
0.064815714056817
0.0643793205514261
0.06449679515832
0.0620508003242045
0.0666213308161278
0.0637972260886501
0.0637748116695573
0.0596450656516809
0.0644789108794963
0.0615494751486933
0.0613797752873098
0.060176977535784
0.0632333491935262
0.0603005201806309
0.061505826629092
0.0590207802093879
0.0606640452270352
0.0590156942187407
0.0622469902213043
0.0578805533274343
0.0603554945415938
0.0556142574748841
0.0604523191253111
0.0565422646661254
0.055653203030037
0.0562321504562044
0.0599110516358001
0.0550191841177633
0.0571671680307085
0.0570442783984668
0.0607596883861382
0.0565542461254163
0.0575076225339725
0.0566710598380923
0.0581700728497539
0.0536861278517125
0.0553423264447845
0.0552076988370183
0.0566258308404281
0.0535772940120622
0.0586491379065888
0.0535012032386438
0.0578063338515569
0.0567508300783861
0.0570824969173612
0.0533158665822468
0.0562166792264316
0.0537352897560092
0.055620675985264
0.0549904109771705
0.0553795925221568
0.0504666525408861
0.0525498673738171
0.0484385328539053
0.0547100259585385
0.051626382047096
0.0541235065751692
0.0528859655357217
0.0525955627709737
0.0507686683899597
0.0511681156860664
0.0502204411212144
0.0527830415365961
0.050545286559064
0.0522908936826742
0.0496801851015904
0.0538338734835989
0.0499450045058941
0.0510832602573588
0.0489907597722194
0.0513178416628672
0.0477515979216823
0.0503391187953736
0.0470053587886153
0.0507187559092113
0.05069379247271
0.0510621695540556
0.0487069874273098
0.0507523779586892
0.0465352765732811
0.0503952683435782
0.0491424136760529
0.0484232211237112
0.0469401217121213
0.0491806555981415
0.0475733156463397
0.0500551508970204
0.0456458628451624
0.0497116924410913
0.0477951428568437
0.049186092414665
0.0489505794893249
0.0501661099104209
0.0477786334578381
0.0504998856505429
0.0478180709885132
0.0509291772173747
0.0483451030052057
0.052539016352769
0.0486355924698133
0.0506509323463149
0.0489049619152206
0.050077806967323
0.0471800258365148
0.0469486974773602
0.0425904251986618
0.0447057064763317
0.0391040899141272
0.045240394173517
0.0422649510662807
0.0448079758438767
0.0383798516273346
0.0412118183463392
0.0383842032135851
0.0379643324240915
0.0394271028895957
0.0402792486554723
0.0325421747050492
0.043192478870803
0.0358709128768053
0.0394434493947994
0.0385688798341425
0.0421301491003407
0.0360300454021323
0.0438008712542694
0.0370350874542878
0.0438580254078302
0.0415298366608885
0.0466817493103027
0.0420245620404921
0.0473658126978599
0.0433485546897491
0.0427655626286075
0.0399972425974353
0.0381753390292311
0.0406536602855557
0.0380379587757948
0.0345401204299962
0.0369897948922172
0.0411309996271951
0.0380771566688525
0.0382261794251789
0.035326434989058
0.0434749111204142
0.0338744482994463
0.0450613045760877
0.0314842778723082
0.047714418971132
0.0293511224077852
0.0516848179682173
0.025807356349635
0.0555649041836998
0.0256245923484298
0.0604587029915095
0.0205836813829325
0.0602625317201454
0.0149397854213469
0.0669498520222016
0.0168050112917106
0.0638809169201955
0.0182374071074144
0.0634521423017662
0.0274839070737902
0.059745455969556
0.0328627451605003
0.0533738153724896
0.0363944891973041
0.0433866438371789
0.044490969041948
0.039731437930254
0.0502594276576039
0.0359679716757289
0.0474156907667979
0.0373770260922884
0.0475069216966862
0.0391332291982136
0.0454956687109161
0.0414544776688519
0.0407002276797945
0.044768611637213
0.0416820002769189
0.0449283307057049
0.0432076968936798
0.0426501583377489
0.0444040341594448
0.0407427042979012
0.0422320401140154
0.040269040294035
0.0422105080311234
0.0395421542153129
0.0402305334179905
0.0409993332441733
0.0434645299977792
0.0408919006655436
0.0410568935133232
0.0390114660338052
0.0418842088553748
0.0414302960152037
0.0414632845665381
0.0419639440561738
0.041729716051144
0.0401275168856811
0.0410000783498634
0.0399113775285485
0.0430048919231641
0.0411007271582168
0.0414924726024108
0.0413567842409376
0.0423618502071748
0.039073610902498
0.0405433975980843
0.0397988693557238
0.0428157842567721
0.0397975189049359
0.0432923621677882
0.0400941645306398
0.0411369847805175
0.0415200959285
0.0421339203870865
0.0389422911879205
0.0420530953367508
0.0405033519762639
0.04110559519897
0.0390808103399639
0.0419028216566929
0.0411557903823339
0.0426142862677146
0.041386034658872
0.0431482866408643
0.0394980746862059
0.0429794862002205
0.0413021813221694
0.0433641404709165
0.0409058706425513
0.0429819615175409
0.040982800092369
0.042614954620646
0.0398089595283879
0.044374538084825
0.0414555042954323
0.0434339871897474
0.0399920375699429
0.043348157249211
0.0419918355482941
0.0444390983903902
0.0393109312783376
0.04043228311466
0.0404740704110488
0.0418742094844234
0.0402656091292762
0.0410113978336501
0.0407848868802887
0.041982620243154
0.0375116245137453
0.0427241002397566
0.0394427969994383
0.040163446369165
0.0403958686891298
0.0415128751509798
0.0409575855244058
0.0424669172001101
0.0385794590696492
0.0426874580543331
0.0394633679452806
0.0419409872932108
0.0384447570236399
0.042506952227438
0.0407108345564045
0.0427037863411496
0.0412231032661567
0.0409578689452723
0.0404911053801811
0.0427752177783285
0.0416416439354752
0.042103144356347
0.0395580648580316
0.0433618526936278
0.0395210132536233
0.0440511673796089
0.0418093309051144
0.0429347739339032
0.0392190320170096
0.0426268689903326
0.0421662650994083
0.0429763703392929
0.040706207791743
0.0445075326852544
0.0410651338397547
0.0447240349673346
0.0440560150091332
0.0442667044674816
0.0404156591263067
0.0434564523862884
0.0427797546347922
0.0422036717952247
0.0419271491091437
0.0416123700709897
0.0415144713392816
0.0446267166297027
0.0425030919853961
0.0438191970146479
0.0403989341154827
0.0459334406371349
0.0417897572092305
0.0457623214568779
0.0423855381368207
0.0416396488410414
0.0410842330034397
0.0441567845370797
0.0418602599972511
0.0452794649257198
0.0418970773020439
0.0453433795616265
0.0416990089794258
0.0434796875155277
0.0411135677497535
0.0439055283616676
0.041032175405321
0.0424895203382726
0.0404922197544412
0.0424249895324127
0.0426555171567846
0.0452039729990036
0.0417311051417864
0.044490085556117
0.042487661276422
0.0430769981482768
0.0420869446873338
0.0443501117728293
0.0445041933881522
0.0460859316610293
0.0418284836624064
0.0452565091627636
0.0423192150211849
0.044315771517823
0.0436684154577826
0.04296072195553
0.0430687297407008
0.0449441070166707
0.0416635462204557
0.0463683734819326
0.0443741886288779
0.0465566888306422
0.0403197829868933
0.0437581216641785
0.0427402050758287
0.0448058383487186
0.0408230639907576
0.0425654370044678
0.0419337710735083
0.0460686702139687
0.0436456798637905
0.0446795899021976
0.0412109526086132
0.0436251338861374
0.0442485880967289
0.0449258033055809
0.0401619774150976
0.0434032336260866
0.043109825470925
0.0407787520185686
0.0410181075941339
0.0424828720708625
0.0421585949495442
0.0420335928530194
0.0407226238949223
0.0444326557256874
0.0408433914350369
0.0443279146098183
0.0410440588889892
0.0439116063384935
0.040648666076223
0.0438501698299286
0.0409116063705238
0.0421293198937213
0.0407545235167257
0.0445194807865306
0.0411274886811561
0.0431097163289843
0.0404958368589726
0.0440199666203945
0.0419796920099817
0.0432713545101927
0.0418016331962705
0.0399285931750727
0.0393736778094654
0.0430042998142873
0.0397400357906733
0.0425090430292985
0.040178949225475
0.0418325443918395
0.0389601158058464
0.0427628625242583
0.0386020889368506
0.0407668048655601
0.0406293192186029
0.0422132344132352
0.0409089680479867
0.0402009503360179
0.0386133269743985
0.0438435838128836
0.0376279492066858
0.0402204230781277
0.0402552621720901
0.042808012048241
0.0408919197714251
0.0425011223608504
0.039152861466219
0.0412116201579188
0.0385516367690914
0.0424526960066374
0.0406658807006437
0.0435541730130182
0.0387577406998047
0.039888434920878
0.0386105394975538
0.0419583808414897
0.0376060567245356
0.0406769423525642
0.0380675352482231
0.0408422142898075
0.0385836592544024
0.0427328547749624
0.0402307349035833
0.0420972218203404
0.0394566334919221
0.0407726568721497
0.0377445458500999
0.0401864812444596
0.0387462919468328
0.0420991126574278
0.0395354334343636
0.0426068823536311
0.0401572090646717
0.0422107890659297
0.0383987472465968
0.042037232775073
0.037278709769772
0.0413605960500622
0.0383365092069902
0.0391168735173739
0.0384099518075703
0.0405844365504044
0.0398990247330262
0.0415297579393432
0.0388636003624687
0.0408504879512504
0.0376512192394843
0.0402213011266565
0.0383600012627322
0.0406169209747417
0.0372843634667092
0.0404559594058318
0.037569178256477
0.0384218797315918
0.0370271315638942
0.0387460974381548
0.0386239859942545
0.0434629664455883
0.0389138545145288
0.0389146597962685
0.0376853403498235
0.037984458602413
0.0363149338042498
0.0403527251452261
0.037911402760894
0.0401632710955264
0.0375071617236705
0.0404292178458592
0.036340814416426
0.0385301983156899
0.0354961112849745
0.0401825846066625
0.0355744658275305
0.0376108131270421
0.0359499538230802
0.0401523734635736
0.0345306023141837
0.0386833711452506
0.0360935191460813
0.0368415357548681
0.0365423259121335
0.0380980641650707
0.0320421418122587
0.0418565228487931
0.0400314387096826
0.0381300300061
0.0348897723564515
0.038140605841013
0.034772658917628
0.037385422573148
0.0338377041196066
0.0350945215624718
0.0341238120325749
0.037583754877845
0.032714045828432
0.0367988887961489
0.0335097476863088
0.036043256095574
0.0345702768831978
0.0386967779191179
0.0336281548065501
0.0374357158426335
0.0314804058406299
0.0343321041660335
0.0327765698163035
0.0373075190011016
0.031913621599188
0.0364755515979589
0.0326309663509491
0.0369768773130366
0.0396303150053995
0.0415996348429692
0.0373767377434844
0.0344372385147784
0.0362487248528728
0.0378033673462518
0.0331244832465899
0.0342530781621971
0.0304621575883336
0.0365828229648735
0.0344136980819973
0.0352483515323967
0.0329137846515431
0.0341032025889706
0.0317195714938622
0.0329013850106485
0.031292846156272
0.0344292284715097
0.0339441191709301
0.0368251477359363
0.0329389772564211
0.0361526458539357
0.0310900253877095
0.0329662981706411
0.0302805169398394
0.033998491511747
0.0345008484715168
0.0414574058738732
0.0363104312485487
0.0361353884028151
0.0325532275610136
0.0344720266836034
0.0305457355423518
0.0314078068182166
0.0307435061529329
0.0330480050639254
0.0302069703797583
0.0333255132864091
0.0315550981177023
0.0342997510541541
0.0325218293308928
0.0350823996543592
0.0296959496567151
0.0340210693872699
0.0324185472136078
0.0338078642698017
0.0298923168193706
0.0327385712346051
0.0324038528902765
0.0339090613609181
0.0287026750872679
0.0334379353904804
0.0310684930478335
0.0418319987566341
0.0411686099267565
0.0365851193603143
0.0310096243780441
0.0351495757996158
0.0298668548730267
0.0330972122140365
0.0303919200717822
0.0341964608124137
0.0283025815493969
0.0315222228983099
0.0296833582639325
0.0328048516327593
0.0290883675607866
0.0324131928295854
0.0303942880881285
0.0337362948063249
0.0299060278709873
0.0315138833729764
0.0305527947090107
0.033702998232996
0.0394500168516775
0.0445735969386542
0.0307552890396822
0.0343880227317986
0.028649465228938
0.0378296549217597
0.0427703726686908
0.0360422106886983
0.0287775254971358
0.0344756141335176
0.0290666008818403
0.0314173633141724
0.0276274455919732
0.0330809300926419
0.0352190565810533
0.0355738607055866
0.0313092665558204
0.036249444494894
0.0287627513406015
0.0293195736785712
0.0291514566171129
0.0320548367180968
0.0290264645116977
0.0318867454850284
0.0299774847189609
0.0319675162826582
0.0295106235649413
0.0346162528012343
0.0289905892160716
0.0322012930492185
0.032698885915372
0.0361594078799354
0.0300038693410045
0.0322029684804975
0.0322685526757263
0.0311443377785384
0.0381399016407859
0.0414029971185243
0.029479159204393
0.0321711977176226
0.0297737124434386
0.0322205803507432
0.0305992959498737
0.0304435341737729
0.0288327806989878
0.0333289897832113
0.0286933302869151
0.0322170020796784
0.0295064476782799
0.0345993812711482
0.0283860554585924
0.0291549676173447
0.028993516523636
0.0326027935146222
0.0282462266425687
0.0320114248270683
0.0285123362601448
0.0384782602326217
0.0418903568020389
0.0519849732202063
0.0415108880209972
0.0418131540511716
0.0360934405827421
0.0324841525732043
0.0289952683231969
0.0323249928364031
0.0297921268413493
0.0324405872634566
0.0313477371138902
0.0324949163712558
0.0296370017124276
0.0318700642194274
0.0281209280315656
0.032376655220235
0.0269930257117515
0.0308021306596193
0.0306224010868918
0.0329255362792883
0.0300866718207068
0.032260608272198
0.0301224826172575
0.0390376494903585
0.0343684913487685
0.0332702964910455
0.0393817499257361
0.0654238437938065
0.0398832660208234
0.0382413693011723
0.03310045836972
0.0350804507358933
0.030747046060333
0.0343548322427111
0.032036876987336
0.0361020860903806
0.0310987415429399
0.0330862608488938
0.0315064998164164
0.0333225603529746
0.0291894832445353
0.0365090092456374
0.0414534167404685
0.0518548977794378
0.0369232858279225
0.0348905798309137
0.0311595297596166
0.0480073537299102
0.0439930043720636
0.0368664407172865
0.03221973077269
0.0366210877335555
0.0284455058900051
0.0341925065398153
0.0308454082951487
0.0344425740293638
0.0354930526374194
0.0349337309319628
0.0299355118518233
0.0322678513504485
0.030441261860645
0.0419845123467924
0.0387919102206794
0.0502103641109775
0.0382797175922432
0.0356462538641299
0.0379091433349443
0.036966713679452
0.0311773114479531
0.0366505921115414
0.0308731013998401
0.0354034170695863
0.0431948583043555
0.0460793059713616
0.0384305269764336
0.050878723853566
0.0374765463259936
0.0365280258532097
0.0375869653944664
0.0458324245163071
0.0377670316776077
0.0337411963469209
0.0560299575596901
0.0540972167009006
0.0533310012979582
0.0488359023560184
0.0353799170441376
0.0377136023061788
0.0357135027756864
0.0340300729368922
0.040652923229567
0.0519889199690046
0.0338908690847852
0.0402990639201881
0.0327904722736379
0.0547579624163869
0.0436339829358464
0.0435666031496505
0.0402620446734647
0.0370159667285847
0.0433261410061242
0.0514327092533722
0.0352093155302909
0.0509010373667805
0.0570393321647935
0.0696653991053121
0.0494791366891415
0.0422574088462624
0.0438747240979547
0.0711496410689948
0.0396098096578145
0.0425635749836189
0.0355038678199702
0.0420192950235168
0.037645146790616
0.0542477827440442
0.0555431270554057
0.0448945484593063
0.0431908525761469
0.0455695935464076
0.0425822630290414
0.0600457355868627
0.0454210377947583
0.0450620275054078
0.0395518458479165
0.0477328456140457
0.0488045444540027
0.0846278501611953
0.0514534322773523
0.0667056238501496
0.0637168040897002
0.0624656888137023
0.0520277151246178
0.0553468645938783
0.0496266721174971
0.0671135712869752
0.0618947629301429
0.0504832485047495
0.0484332032871514
0.069626422625125
0.0608108786755887
0.0533901058087377
0.0517475762650396
0.0511915473579984
0.0583060222692035
0.0941160986115378
0.0882567385726218
0.0761236430338579
0.0555494981024069
0.0670896893829571
0.0737413058888398
0.0605724296300598
0.0550432937165716
0.0578268331655955
0.0545439896296738
0.0594291198467837
0.0583710882466669
0.0685740880146095
0.0583360958684119
0.0625509195353595
0.0580388472763641
0.0695105712723517
0.0825016347690777
0.110835941355514
0.0813294582027536
0.0819514728302975
0.100750877724076
0.0867514799067387
0.0723810548612643
0.0658363231255718
0.0710966635855241
0.0827213977514938
0.0677367907804687
0.0690433795898059
0.0707554866296488
0.0989249217543598
0.0818196069148535
0.085846316437893
0.0853664555805361
0.0805993479047099
0.0832225349503838
0.102996191118054
0.176317660326053
0.0983159309241428
0.097796801631619
0.106602503377723
0.109625311359837
0.137925891200359
0.0986088738259817
0.101297820631035
0.0951754330221108
0.100546519297609
0.106613085236264
0.115934699913251
0.112136744217429
0.128841621335871
0.115436518271321
0.125500762465447
0.140825707717976
0.186285404816841
0.165848012774345
0.144472786944731
0.140224909848417
0.160106549460535
0.149413675306265
0.14844798764205
0.149807629129432
0.15597951627723
0.168715941237988
0.189175553879614
0.160437461843074
0.174191796078783
0.179800352884169
0.202191323972124
0.177912285990547
0.22705856393667
0.194251134124194
0.199015581181837
0.188292265110878
0.195089773072487
0.196512801412464
0.206402769520551
0.222792429785733
0.216258201607473
0.208540576438859
0.213208454264534
0.208471466497971
0.220572113547334
0.215066359995057
0.23293771022813
0.228874015631868
0.283376068096879
0.245488109197889
0.339193118721559
0.244078737113371
0.239295282436269
0.234195602134473
0.239727623694552
0.256394430290034
0.258560996479389
0.258036881057656
0.253365011770585
0.227428455036179
0.24434866315571
0.231347310316607
0.234398035986292
0.234039428280477
0.240256095003845
0.228758429103402
0.260841947086325
0.242294770655624
0.276267200801468
0.263918302485505
0.241283311198467
0.236586757481047
0.23402764682754
0.230280936558993
0.233231516115029
0.231103113403388
0.241610766102866
0.243895201616198
0.22541669429616
0.22489244528212
0.228435286373293
0.246636925525094
0.243957745463328
0.221020620633934
0.224990253672906
0.216152384668453
0.220076881407617
0.216051161978465
0.2308673244291
0.238248780828848
0.22002858717124
0.211060894709149
0.214468295317448
0.209938603307692
0.212736048484871
0.203206851826778
0.209823440249074
0.207011414499085
0.205118451848813
0.205259804204565
0.205693385488659
0.197216359923137
0.202931017431461
0.201909391963812
0.205360101422286
0.200874999962972
0.206114490185579
0.196918060236884
0.19996879018523
0.199134299363319
0.20383858759835
0.195793478758325
0.203778104791865
0.199614954444357
0.202105106889284
0.199168549982162
0.201799981943777
0.2000371187849
0.202464310253426
0.194267770484609
0.196436709059795
0.192198793926936
0.194076874759447
0.192760926059944
0.19389490112125
0.188101320249519
0.194934811655823
0.18790608506952
0.190133975984906
0.184651228684556
0.197224424582789
0.193047820113778
0.225815370942706
0.195786478647661
0.190616565651661
0.186384909707609
0.182378062462401
0.181214609855057
0.179378549332427
0.211701902020786
0.196371794305252
0.176754029895805
0.176244151828521
0.17083543834704
0.184182254846463
0.176065592089654
0.170771482764014
0.171837791626794
0.170132026585036
0.214867272989827
0.227910885758474
0.218177508459952
0.220274678572811
0.169329473674192
0.171997703292805
0.16621754227339
0.186545484915293
0.150925301102822
0.162308582682747
0.148935389015401
0.204471954847897
0.156704180267793
0.148922281745452
0.148910530491199
0.151717704741355
0.170471063189065
0.170892304913977
0.164734290967971
0.176753439434195
0.179425210207894
0.169550819710833
0.205592985232634
0.184507648970157
0.160432363603713
0.137768483974164
0.144227296625558
0.141553101344416
0.14706106203388
0.193094840705921
0.138682214848212
0.154500238758258
0.127190123045564
0.133661756069029
0.137315061914407
0.144834012004741
0.146897125049243
0.143649292419712
0.168137218039875
0.124640461813602
0.149911828391722
0.154506872374434
0.166516870707993
0.1664725375428
0.134950372190002
0.127958696122777
0.157279377573345
0.157915748510335
0.130405565812929
0.141841970388417
0.117067384087616
0.129172908156085
0.133547449857738
0.122562699839954
0.141751259227753
0.144648823453621
0.145923625904459
0.181999774457908
0.174446315784035
0.162459330884953
0.125310734572941
0.117501961299607
0.120157982654033
0.121237655571707
0.123441810994506
0.117422345214238
0.141818899847524
0.133873259531299
0.120178156633314
0.168901008540221
0.123424546278127
0.123597316553129
0.123733456676577
0.124904077419037
0.136361598172868
0.154318728756397
0.162598690335351
0.153583968555173
0.145392646946687
0.161840608599892
0.133515021760041
0.149166828538038
0.136120721804259
0.147672796205381
0.144214653343388
0.162179475261931
0.151828183858817
0.161280017892534
0.15715913881844
0.174275003661928
0.178130775908578
0.198479526297005
0.16856717709192
0.221140188826321
0.195141010107461
0.23804931541519
0.198175585244027
0.195386834387559
0.198420041562338
0.201760557540904
0.203125520100592
0.210823304855595
0.209066832437035
0.243811686699624
0.20565186384229
0.226803367337645
0.210371581598439
0.230120816265037
0.22007914876778
0.261782403692338
0.243986870757052
0.276908825043014
0.269525658194611
0.250237248622119
0.244486479521466
0.232316966768969
0.244559266005561
0.243096875330514
0.229574922292591
0.245685065641929
0.237696821119458
0.267001222718274
0.244172551481681
0.249206940481878
0.246045156456587
0.249259348337066
0.245750175465995
0.25257366389027
0.251087205697626
0.257345958841776
0.249587582838946
0.270064867241963
0.254825442626463
0.317283548984539
0.272804501408756
0.276563748788839
0.27240465744527
0.274011166749536
0.275698209477624
0.278106414599452
0.28704939061864
0.283622655754485
0.277331483990661
0.287505675413933
0.279040455419166
0.29171192328338
0.297711202080812
0.319898296179585
0.284221773448767
0.303042361797021
0.296911157517803
0.305239252598603
0.329116855045347
0.305040276529415
0.324628229359265
0.304636933342092
0.310354496450609
0.299310054372943
0.304088527654631
0.303077743907141
0.31097287522951
0.305488789816665
0.304774315643278
0.303816683962879
0.304841528076838
0.304308421074459
0.303363615044268
0.317093653437709
0.302914869532799
0.3050612929973
0.297544536603988
0.304142795620525
0.296566387091579
0.326384029068547
0.316268169101006
0.303663022519023
0.311619467015401
0.311698519789416
0.315830879341949
0.310717796476954
0.295789924360406
0.302643489049162
0.299006180817143
0.301445005393897
0.304543782854163
0.304673269466177
0.324497673075998
0.31080723322814
0.310377506634822
0.305162137630364
0.310791818120404
0.302043939904004
0.311347516307992
0.305340388703211
0.311249961466289
0.312417224108928
0.31315766441858
0.314734371724747
0.316559404223695
0.331539112884621
0.330469395820377
0.322094681923602
0.311042797599278
0.312044131935959
0.308626221676122
0.310790584272799
0.31682257841467
0.304610874303376
0.301804891077278
0.298068435174565
0.302156770811572
0.288700602559137
0.319264572464999
0.294302114860248
0.292805534407145
0.287562425066972
0.278314224273559
0.283380818191957
0.272925027803436
0.278078628189219
0.272948449657203
0.281826713896857
0.268798377379616
0.269442243147425
0.267255021893731
0.266847867816694
0.266333239082379
0.269964485888277
0.26266056515055
0.266149175323077
0.263163357771738
0.264713034957084
0.263938067163667
0.262540572697107
0.264578087447962
0.262994534989721
0.272707372241494
0.279943907372398
0.277920752853931
0.270115694702099
0.262527719296397
0.27009919615236
0.256279559038477
0.266768545737493
0.257116391188353
0.266550379037764
0.257702651206678
0.263330777744463
0.252522784179283
0.260520679622474
0.25465808647488
0.260494323991613
0.259709620781612
0.262994917562132
0.257057504657384
0.262191455745537
0.255638557123726
0.261681303751461
0.259808456920678
0.264140372965356
0.262130326650488
0.259649494834659
0.261491983124585
0.25814233579593
0.2624494848184
0.259314849378587
0.260776946774878
0.258716212975014
0.253593179884367
0.259779021480203
0.255907395339364
0.254729670853311
0.254676906351296
0.256147243114659
0.251627940825114
0.251839342750095
0.248510463645451
0.250465103459764
0.248478255178697
0.24683080948316
0.242214819355494
0.244223278188242
0.238311133776809
0.239746791713427
0.237266015349917
0.235161304091214
0.232209180221061
0.228243854672408
0.227281417495187
0.226781157280583
0.223838412482901
0.224344477039662
0.223979292590431
0.226594904528148
0.221107122525285
0.221204265443831
0.218076407120658
0.221717621571677
0.21726985921642
0.219415001963422
0.219814450395014
0.220851149711566
0.219303454430713
0.220211065811264
0.219002960061038
0.2169719466442
0.221991348334313
0.221404009800502
0.223740175301054
0.224064393549045
0.221494200679811
0.225301171910414
0.226090425709231
0.227249552665164
0.228488778906797
0.230611679676504
0.23075008447954
0.232379503670654
0.234317082260473
0.233346418484081
0.233179293381118
0.236670060826717
0.234474238163644
0.235943048670214
0.233356652777234
0.235730388661014
0.231972582176794
0.235426240409767
0.232225191887734
0.235497273685104
0.232838548667032
0.233836640533367
0.232325813423475
0.233290462896991
0.229189794040293
0.228916869430118
0.231239913483905
0.229123535091716
0.228548122657095
0.227928262590969
0.227259093355053
0.226742471870773
0.22356869747236
0.225973442303927
0.22283078733501
0.223390630091199
0.220982969959259
0.220773128681695
0.222287964118794
0.220177047682983
0.217843876569661
0.218959456320768
0.215275873209083
0.218920395463102
0.215482600351303
0.214301254338811
0.215211565558915
0.215932401212142
0.213634253987768
0.213905169420096
0.21423683940467
0.213487963946616
0.212393941464953
0.21243076769162
0.212592213814101
0.209327854847595
0.206929589665764
0.207616058271642
0.204739925234366
0.204572784906067
0.201553618438249
0.201462277532007
0.199432718984772
0.203514564019155
0.199055480671844
0.195640111620322
0.195826439783485
0.192372319703176
0.193370410919819
0.194539187753667
0.192130452386436
0.192695564202487
0.191095056844174
0.191120572177702
0.191152137251807
0.191341330595244
0.189586378397548
0.191390741572936
0.190701696165277
0.190836026172827
0.188537268397396
0.187011043183389
0.18509376259846
0.18321886151635
0.182756204140225
0.179412571970899
0.178288601450282
0.1757001561266
0.173346165094843
0.173837571982079
0.172539926200136
0.171241769858119
0.171752470316399
0.17347903088901
0.173573561404747
0.177988063071819
0.182707342376659
0.186136137185616
0.189400392908677
0.197523765642284
0.204346100162368
0.212704307541055
0.219425095412666
0.229757501345962
0.238823567993513
0.250215682627893
0.260168762930915
0.268484241181852
0.276723881346628
0.290134205502366
0.298738094228106
0.308054233817614
0.314130563356753
0.325351108685811
0.333837974411095
0.342838076412502
0.353219715701717
0.358554798814607
0.366313849503859
0.376032728939996
0.379356298454908
0.384856960771838
0.387955598690995
0.396013555017737
0.401351754597105
0.404368255170618
0.408295402273055
0.413395403967054
0.415847371993491
0.416336549249639
0.417715410531761
0.419200063666378
0.417151738957376
0.419640061115164
0.419219226067074
0.421023631079255
0.421417452774801
0.421565021614021
0.423139114690387
0.42490613578684
0.425329024672761
0.427332474081598
0.429355771410922
0.429554522239633
0.431388723443229
0.435222865468045
0.437323530126084
0.444249259228782
0.448419868982519
0.452663859129195
0.453705684143423
0.459725003381897
0.461159881439971
0.468620996762999
0.474867295644357
0.480288826660197
0.484705777501945
0.490348412647112
0.499275035169836
0.505254632059702
0.511990604140474
0.517180281898092
0.523704650280246
0.529899127611368
0.530458501566892
0.535886598659576
0.537932970175343
0.546161995908078
0.543295661703154
0.542842465301827
0.542095002935012
0.542838623852172
0.540699782524814
0.534454383451761
0.536342840147876
0.533895670809021
0.528039101177358
0.531282570847111
0.538257904689561
0.538890158007037
0.546403682696639
0.549333644920615
0.558660698796011
0.571563360706534
0.579838254562766
0.589709135302965
0.595925822690916
0.605902734286447
0.615150034971727
0.624819209925658
0.634329000485754
0.643968368147143
0.655526250945846
0.66001088321868
0.664466598435011
0.679631140120577
0.696320368158008
0.703813421764615
0.70901751264543
0.722988079993948
0.735852618494682
0.744145321605018
0.747947531895824
0.763929048342132
0.781101490424149
0.796309687210395
0.809079791804437
0.809707549484847
0.820694786104104
0.829374728776524
0.835944881582122
0.838908362203758
0.848231955151771
0.858100920759914
0.859492672595013
0.863609162271251
0.860568818992016
0.867520043030411
0.863803674649825
0.865462589125463
0.871094717063628
0.863564739898522
0.85174033753816
0.849368654310845
0.851217133116611
0.838724829548935
0.839037578191196
0.843791418567712
0.830235076547481
0.822785366163636
0.836872158565753
0.833349056145277
0.832531469158932
0.837402987416386
0.844642218811755
0.842901925392163
0.851170040756564
0.864271480942729
0.863287265470266
0.868935667405123
0.874170417413014
0.875362991259857
0.878156160738631
0.893378944794747
0.890807908666687
0.879792928310681
0.901207308317895
0.88950977212361
0.893478764577451
0.901489312915811
0.894082131341744
0.883586440782849
0.890667297090784
0.899121922983515
0.89655304335424
0.906599909824192
0.917451051886378
0.896705441182763
0.889321852635464
0.88895738076867
0.876056353924223
0.859009052564083
0.869848117225997
0.873571636750232
0.859651994157609
0.851843386854414
0.848181653393709
0.843226091298026
0.839942477972659
0.833029929291716
0.831157831809204
0.813098795726497
0.805941055211275
0.772523484989285
0.766396814747876
0.764152596811947
0.734086696407743
0.715009419638559
0.698958224700948
0.674874741415523
0.657743157651122
0.627186027011354
0.610345589313805
0.587479208271706
0.563519694439314
0.547329430886693
0.531657739388294
0.516144980726282
0.503841083174947
0.487246554229747
0.482979748365276
0.481080543976604
0.479141775968029
0.469890492567234
0.462674422931013
0.463571943521866
0.461957246004133
0.455078967897252
0.450484790741715
0.448150899155611
0.444046859203988
0.436761494642342
0.430066763119188
0.422374244426271
0.415181253236278
0.407626465147524
0.399926412760332
0.388668273111177
0.381532941997975
0.371392349601739
0.356183837859951
0.347760803456428
0.333896031126654
0.321471240344578
0.308026321337602
0.296246751262708
0.288627137362168
0.274907278522374
0.259892139301595
0.245867888980554
0.238667017992483
0.22667340120151
0.215027680936647
0.207167718741221
0.199649322788693
0.190254346996374
0.182239152514044
0.177084498336951
0.17415616980017
0.165993271218832
0.163416727419352
0.162139686592151
0.157677157621796
0.15575511465124
0.151155741008009
0.149786606271117
0.14876395601269
0.147325859949111
0.145559438216248
0.147717898674046
0.148843468659354
0.15266236198868
0.149661260437285
0.150092269199214
0.150104304517789
0.149599223341019
0.154544555161533
0.156371402676882
0.153657207829127
0.154294949008532
0.153855165641403
0.157917123261678
0.155369962630699
0.151939194897895
0.153686011391453
0.152555012409476
0.15107123100486
0.146595987764639
0.145087104612987
0.14418361507569
0.146948470906137
0.143973945604829
0.144655676981185
0.144419968553799
0.147026094163178
0.145235624452643
0.145884276844697
0.146164078834912
0.14844769921764
0.14965377063298
0.153333677316681
0.151142277179269
0.157736175366653
0.156603719501845
0.154493152022893
0.15924176289758
0.15976914401557
0.158304550738475
0.158753679372926
0.162085024838667
0.164535554578155
0.163955685403444
0.168687413328823
0.165063961422019
0.166631985896757
0.165281541953984
0.16956794156465
0.167982136897933
0.169976559457577
0.169083263814954
0.17121042768034
0.17061887722033
0.177834583681547
0.179416792038719
0.181429038038056
0.18147855358253
0.196776496546258
0.197498132731168
0.195422843333652
0.204713707086987
0.211612574275727
0.214087403341201
0.224781030367331
0.226257865871296
0.230110422739499
0.236063761654482
0.233570503555813
0.235102292610391
0.233392797276499
0.232286743423053
0.224254452650736
0.219551767071408
0.215927027236325
0.209656075472302
0.212810339766813
0.207483729956336
0.206482017689775
0.206860648240191
0.202623978239709
0.2032547619958
0.203518410770565
0.204444255013362
0.206832341123676
0.203654369613826
0.203243877577383
0.20251038793285
0.204697917067857
0.196936706998692
0.196455307842268
0.198884429442112
0.195946887411013
0.190395746029139
0.192907148852767
0.186738627538282
0.184305113774481
0.181505790989973
0.184451563029372
0.179281872917797
0.181930924673744
0.176302816344117
0.173883889653261
0.170755501020894
0.168537081428005
0.170688065565857
0.168670980130474
0.169546982828262
0.171973854013986
0.167769888992667
0.168346925093541
0.164924712299685
0.161701046376915
0.164853800325977
0.158236237046112
0.158763525277448
0.165637765270579
0.164430899959805
0.164793455478007
0.157068486048772
0.161633169233843
0.159504726142733
0.155798631583869
0.156411763792025
0.156496363760287
0.155724408258025
0.149107351313965
0.139254344871682
0.152680524281335
0.153698612806379
0.156511682836358
0.152267056344673
0.151992339025942
0.148997648956475
0.142913542710157
0.131746195698069
0.141975068473789
0.148885301493581
0.144040293033896
0.141228872779747
0.147695624570577
0.153030285378827
0.153748538524685
0.150746785592767
0.152902007630128
0.149998806471048
0.154156573500764
0.150996885327523
0.156986744863337
0.15692642897003
0.157098599136739
0.15662218520866
0.160462627095341
0.15547922203233
0.164043763799616
0.159313044202469
0.155087173659908
0.164567024698975
0.166505144164519
0.165338281215038
0.172574890882874
0.168698571189067
0.170831049945213
0.172151764787151
0.1781428570416
0.181068787065956
0.185120973723551
0.183389614669258
0.197825644261798
0.196948564976883
0.208142524704517
0.200787863175503
0.199498874565516
0.214526402466126
0.237215557741507
0.234231735789961
0.237665909873193
0.241690924881977
0.25717880310775
0.262392224022113
0.277464769062193
0.269171597944293
0.2707689727244
0.285467978889006
0.277460833746037
0.284440783090111
0.299744821310977
0.286203580737095
0.279856824099989
0.270306860607717
0.26983907769361
0.274820046388869
0.27280372999813
0.266376038602579
0.283686418044539
0.260673409044193
0.269412362686488
0.258516807709885
0.264271335184758
0.262339660311174
0.277471824388203
0.266936888612718
0.258732673244082
0.250950372865874
0.257655041207267
0.2585194079438
0.241450985971909
0.246777822200412
0.251843720669333
0.232807059646931
0.239118436031571
0.239058805685967
0.245596125723045
0.236562139774238
0.230781649469402
0.227335095944966
0.242725798192887
0.22801368229099
0.231276498860158
0.241318398452589
0.237973008394078
0.225263141591487
0.225612085482857
0.217058835847317
0.2378330057917
0.231093643521499
0.230571056282881
0.237763801167383
0.251231073292503
0.242695032933469
0.234504081816654
0.23751703568675
0.246172818077977
0.245912866053686
0.246105611014484
0.224642390281942
0.245913512263076
0.254645967090354
0.250477136270691
0.26280823019996
0.247055233465695
0.252313702228656
0.253287634117888
0.24488239370433
0.257959645310584
0.245183892085791
0.256634929771524
0.241822422070804
0.265026800197912
0.264484381862009
0.266488772917775
0.256090491621398
0.272033982692067
0.28095933100454
0.262797789745587
0.252486830030304
0.273257086247907
0.273415853925957
0.314892286792693
0.289499134485022
0.301112686427875
0.29779765274468
0.317993064486419
0.340233095445985
0.321512624985726
0.374541740458283
0.3233638651595
0.326111810208223
0.387572611227316
0.321894014973786
0.343142886451882
0.361386820876656
0.329715199820445
0.30237045993322
0.364429689018156
0.323262656017024
0.345640320066044
0.345797725278975
0.32213038999652
0.309021576244588
0.336646042835788
0.322949441287134
0.345326690353306
0.3013107686183
0.302455847484151
0.325573649307435
0.292965342960159
0.308940445849648
0.311070680244616
0.324766923406537
0.312764497507714
0.332084780553468
0.397312735215288
0.285684172217095
0.290671890675687
0.252076052356239
0.300196670250477
0.304549551492853
0.285519704396172
0.339274123643724
0.382081707905597
0.277547544627414
0.283985886315161
0.348675542072276
0.259594127875375
0.307466802902438
0.328993962478491
0.307725786544641
0.288506970269249
0.313173437072068
0.427509221059408
0.32249375113367
0.35684414198104
0.284617031375846
0.298047383617811
0.24976562228182
0.30311620186499
0.354113774658899
0.400051724659883
0.354370361262327
0.259638682695137
0.301899799912809
0.439738338773261
0.344708596313946
0.452989828482704
0.249415448504327
0.28347263513555
0.321727098554584
0.451891310322851
0.355790689782913
