3596
4000.36533379555
650.420452594757
1
2
2
0.0338247207046176
0.0402544105146075
0.0413623229417713
0.0480060393127433
0.0316037537212095
0.0411944009285559
0.0348879431106406
0.0436826016131774
0.0368742861281303
0.0508789584281903
0.0362517645118778
0.0413674765900575
0.0316057014536962
0.0443577600613628
0.0348534888509094
0.0428031368633791
0.0338475911668648
0.0419691786163656
0.0312421118313751
0.0442295298790068
0.0372146704957766
0.0509631918080043
0.0293834565593665
0.0406413106251927
0.0336441908880537
0.0469490944794065
0.0429974116970624
0.0449565215750661
0.0355533120498668
0.042349531323987
0.0317980688119605
0.0408349477479005
0.0366712298179697
0.0530056993496777
0.039075611756566
0.0386187117677031
0.0360663562384148
0.0454882610698797
0.0332097818242309
0.0491487970094136
0.0390690723969123
0.0454784609943119
0.0384449030155373
0.0437205072375101
0.0366908551806498
0.0410387908702971
0.0317380111627285
0.0411030868778364
0.0407391027196261
0.046293896472555
0.0369574736380505
0.0488126799853943
0.0496857887004812
0.0484046776493442
0.0397147291437054
0.0683537628999516
0.0460042780143215
0.0441801960977836
0.0410111323787755
0.0478224744973284
0.0434314844037767
0.0493483546064614
0.0370717245520953
0.0454447252178119
0.0355020738516358
0.0485860868247668
0.0304541156709892
0.0440778773205666
0.0343894327076376
0.0428439598709389
0.0391000227002452
0.0555282552230457
0.0521252546622577
0.0488398811186329
0.0453417245999244
0.0551233033640003
0.0466508354101162
0.0409084177413373
0.0317787063503628
0.0548617310282766
0.0512770006688879
0.0492852399448237
0.0373995754280439
0.0451756293428411
0.0387749136477488
0.0494429207087979
0.0304430485620102
0.0592881123114235
0.0616137070915082
0.0470765032135074
0.0380605173627327
0.0423703510469597
0.035286528278481
0.0362882901247916
0.0266338044109682
0.0430502011866675
0.0304777753130836
0.0444548075249654
0.0391871015825823
0.045006428379357
0.0591870783953664
0.0605615056516518
0.0627928465925361
0.0501728395276346
0.0703345067323407
0.0638612505047011
0.0535207320841881
0.0925865084634063
0.042373712300407
0.0521546943102736
0.033180410271997
0.0439367932682479
0.0406657457282294
0.053280192903553
0.0442030148317722
0.0627252911015853
0.0508191430684436
0.0402458996815067
0.0422623819816818
0.0419720273886372
0.0460323257741432
0.07696286931768
0.0594512671974091
0.0424491060355994
0.0496749061884258
0.0445286795234483
0.0530462925690607
0.0767546227575278
0.058820496238629
0.0384694803758429
0.0457434851157434
0.0360448184404155
0.0330364704248741
0.0516522365644792
0.0739179478738906
0.047975994456736
0.0461632159029462
0.0529979546895101
0.0758819010324983
0.077905413600634
0.0388726313029736
0.0466060124801661
0.0360430460678093
0.0588527765569064
0.07366224454507
0.0471108193078241
0.040766876099417
0.0667941366369157
0.0438582451231432
0.0385907016832968
0.0439059914269916
0.0475065796159093
0.0514450424825649
0.0495157439265287
0.0532003377510729
0.0797485880154033
0.0963624246857075
0.0568387965269355
0.0703161300460425
0.0369357845625382
0.0449156279893854
0.042538038189653
0.0408115655230963
0.0391864145015942
0.0399018102155484
0.048571123753084
0.0516461785924116
0.0613836439608131
0.0367733340572049
0.0544757991627427
0.0516008199296161
0.059727276258933
0.0585035168251667
0.0822408527117842
0.0541968552869743
0.0481871296963673
0.0636153482550317
0.0485088409388406
0.0404589295167312
0.0570675004937469
0.0518653552092526
0.0342985241284923
0.0407806826336423
0.0459016834302013
0.0500311426691361
0.0585897368573497
0.0466201122150046
0.0422736724118444
0.0455114771918366
0.0389541980329353
0.0625508841096123
0.06718709237284
0.0568399447157251
0.0432514765279907
0.0478449392870029
0.052595783316764
0.0623786472669886
0.0551484615414814
0.0360342358211835
0.0416502142182098
0.0342002344597416
0.0366533935280832
0.0390730947568828
0.0346181062100297
0.041908230434054
0.0526259811662467
0.0661072997052171
0.0534019672289988
0.0359141575093948
0.0413024480202708
0.0469190936741517
0.0645340080827873
0.0757832657354847
0.0634923370796965
0.0429808164641629
0.0457304424615859
0.0419666418362552
0.0639850470523191
0.0528642467563731
0.0427132234787834
0.0347045028968646
0.0361496219732279
0.0307038316942048
0.0391882343721964
0.0393509488964509
0.0417118633450761
0.0361628287301896
0.0421308445949731
0.0407364152713746
0.0450016713331745
0.0445215587187359
0.0431356710216666
0.0317365126028091
0.0378925889145042
0.0460046521693163
0.050736969469293
0.04711714700087
0.040553914318853
0.0309709005678324
0.0340704147555878
0.034419909984705
0.0319821514576651
0.0414173441123506
0.0365069594781115
0.0364563838224441
0.0482005383041332
0.0621344669305883
0.0461194880473358
0.0374188899511925
0.0435454093024544
0.0473905201956783
0.0548952865070266
0.0289405374874669
0.043591048437698
0.0434069447110374
0.044756633712399
0.0439704413254194
0.0652929870851814
0.0467607833408208
0.0536544862908684
0.047515098714363
0.0420680377240371
0.0293433470855859
0.0539030064883499
0.0562340313329837
0.0835628372351031
0.0625030745187054
0.0725073201280324
0.0768967083155759
0.0582174471510169
0.0450701535175325
0.0595240162903289
0.0513071170210781
0.105725462154684
0.0656835110458789
0.0486976270218196
0.0411353281567392
0.0549483746171554
0.0398608954207707
0.046315351814872
0.0532111800553493
0.057587626109261
0.0847329883140696
0.0987745028245872
0.0675110049742605
0.0469973357576369
0.061272245410666
0.0599622308399999
0.0382879899216117
0.0455160420127313
0.0339558706565872
0.0470325830682103
0.0481123664138588
0.0636918537802433
0.0442886339859966
0.0518066936959081
0.053338384152836
0.0642285820451468
0.0408776777207366
0.0465043749277715
0.0463069515924849
0.0544431624906472
0.0410659710720023
0.0430468994682957
0.0434247219627332
0.0491273663664047
0.0466075454729532
0.0617531847273456
0.0679956700469777
0.0555418941880827
0.0491692336138252
0.0614974729910732
0.03613596288655
0.042340340968504
0.042639937871248
0.0442191403924877
0.0336682899409138
0.0421475895280973
0.0482454319659869
0.0652736804289226
0.0387655615052769
0.0365507232180061
0.0425606671810204
0.0420573794137694
0.0365433689021771
0.0378107031506566
0.0379204839035665
0.0415082258206823
0.0364587864494109
0.0465170804651686
0.0557268302357149
0.0505244115851096
0.0457999224049611
0.0754725393802292
0.0580869147239783
0.0394965486956753
0.0433345405461978
0.0378793600066264
0.0371014103504917
0.0405058902176314
0.0418129050833776
0.0470406917938047
0.0481594263392901
0.0537374032294871
0.0449997056883399
0.048382089240451
0.0609214252982636
0.0944899173014485
0.072561168042981
0.0473668804496894
0.0457751483657284
0.0568999567510565
0.0642276748310162
0.0670710550799546
0.051340954227042
0.0561354849030212
0.0397666490567215
0.044971577483225
0.0350187337677427
0.0386749892819515
0.0371093586406641
0.0415428453640138
0.0367223090733724
0.0456267749911717
0.051183183879736
0.0410916659325931
0.0420039432526275
0.0588176744401606
0.0620767052066915
0.0500089512697857
0.0413410309740264
0.0442546916293629
0.0482341195559372
0.0719520433733538
0.0795238377283417
0.0705685912198362
0.0712366702560845
0.0790586371989949
0.0767958131131732
0.0545223053758718
0.0446585765102413
0.0440135175076404
0.0430036565455736
0.0469187940209143
0.0471788394688063
0.0466076589100636
0.0428439733210677
0.0508858944983521
0.0466880202767084
0.0456299370857144
0.045606027810935
0.0540072823017772
0.0609835560570942
0.0495594864053237
0.041487702415883
0.0549477762429953
0.072295983674333
0.108041871294038
0.0768904413241025
0.0689988848630892
0.0574976923009887
0.0551309308736595
0.0514797077754893
0.0542660725922045
0.0455968848291333
0.0613481468779023
0.0640140779107865
0.0766807483825
0.0690969596875755
0.062170574701621
0.063229905452971
0.0646082802323785
0.0719221193823235
0.0682045289490685
0.0764635740526684
0.0863128488513533
0.058238617951718
0.0661344805839559
0.0781131785601721
0.0600250890421753
0.0715527402606236
0.0812919596737762
0.0617253493871983
0.055706174227506
0.0570580344143688
0.0672076604381482
0.0589487070037346
0.0679588773483824
0.0653602532067041
0.0681256265765841
0.0596633368346642
0.0655438212065354
0.0680998972175525
0.075832816658327
0.0699362379426907
0.0691974980519274
0.0701556282212487
0.070297896708852
0.0643773093169669
0.0705892371472392
0.0808770518264171
0.0871246640608036
0.0972515244111026
0.0970452914625214
0.0697765267485346
0.0717826058720407
0.06556618125932
0.0701280857101206
0.0640927140734078
0.0753265418991232
0.075565737154891
0.0678996154090325
0.0693495521391539
0.0800308976122379
0.0749877366156071
0.0784908611734221
0.0780756326871125
0.075398237015931
0.0645115426010374
0.0860730917280143
0.0758017633419608
0.0876540360129916
0.107556359312769
0.114488599646483
0.115879950863195
0.101600996256659
0.0952712805494011
0.0976792700927103
0.0896715839716523
0.0929718605382871
0.0964651323029994
0.100311257080525
0.0904486410282394
0.0823796926766907
0.0899474327738864
0.0950284557263387
0.0853808524297821
0.0918072828792921
0.0952534084580715
0.101416416974433
0.106578369245696
0.0971970023365065
0.0958380397978928
0.0924528731202446
0.104364727748084
0.115007187484548
0.119855284540102
0.116267587685264
0.101483694612705
0.110776049079765
0.110779113340692
0.111112376779947
0.0982523695811085
0.102869089985075
0.10425955813146
0.107659710305529
0.107393370600344
0.112498560636526
0.115314876852852
0.113277462313216
0.11034645284136
0.110594340367317
0.114439479810162
0.12273301354774
0.124988164080241
0.124621914347982
0.127632300291435
0.120865098584675
0.132882402568019
0.123214904149295
0.125291484830767
0.138496224051214
0.132243394244946
0.126877893127774
0.124652639490663
0.127343362035616
0.127230384434881
0.129791340353362
0.119272945394792
0.126093058682336
0.134427436386058
0.130110751160667
0.126516861823287
0.140051168716689
0.137660666415728
0.148446353778274
0.152810350531752
0.134794171893876
0.137198019545623
0.145510232035358
0.148794107492852
0.149549562748624
0.156850472618333
0.147359292505896
0.146320222730406
0.148245575919926
0.138046936600562
0.153596511817387
0.154122613006103
0.153078853177548
0.157991434138379
0.162437606831524
0.163085904764956
0.153056940746446
0.152707039053811
0.159046398956154
0.159097461621688
0.152870096666755
0.172378392762976
0.158253723311248
0.162414237825461
0.163940893750415
0.159452721228596
0.171511352568584
0.175698340402195
0.167177654642412
0.168544707370773
0.179557590148935
0.170142911340229
0.174743657662629
0.177446740453723
0.170029993529086
0.170895905966864
0.177273703273704
0.183533009021649
0.176758662169072
0.181702080563391
0.181637046101275
0.179071867868875
0.18129455962867
0.183004755656808
0.189064036069001
0.188895599567233
0.188862309189926
0.197101859429786
0.187803363420129
0.199121692958438
0.19579470743871
0.190865321547981
0.194233327094344
0.196492132497611
0.194247302387922
0.188245467573159
0.193917722689706
0.198927297584203
0.19621050273985
0.208978280973321
0.208863505545336
0.192025021152068
0.198211489335071
0.196828950976991
0.201726839928797
0.221608363000224
0.204419674542408
0.210496498254589
0.205247467629639
0.210183483058938
0.222602178841006
0.211088301007424
0.202031587985205
0.209017996016115
0.216450192742061
0.214391466042055
0.21891021862039
0.216300324832719
0.213235462859097
0.212042956130002
0.223167097841124
0.223563231774653
0.214391953498035
0.222789206914849
0.228017176687333
0.221639239976841
0.233929601734782
0.229606455123097
0.222866428033226
0.216654512343984
0.216673683255766
0.220893224372218
0.232190761104362
0.231468569807137
0.224862154562769
0.233507614833486
0.230449220811073
0.228824138082236
0.23509993618914
0.22482183053726
0.221478292823077
0.230124045936165
0.235479678316674
0.235809255655393
0.238717658236954
0.239327867189458
0.222542632564499
0.234753590142323
0.22841561630507
0.232931621126249
0.242985678315694
0.239948515718527
0.237440897364197
0.236526942098074
0.230289530931494
0.242654945723013
0.244233013766741
0.239286113054631
0.248183220598775
0.242836361124017
0.233351967220642
0.246742547449427
0.239366915208647
0.247354749479548
0.241731862642471
0.240155715248852
0.239879101754423
0.24780383462243
0.244343093637641
0.24921816477708
0.248625289006147
0.245961123941243
0.251650313324383
0.253807927175878
0.238850706061898
0.248195812091764
0.250547153205104
0.253095242161587
0.25359348731584
0.253222978925123
0.247103547391009
0.25580392197331
0.245562699745938
0.24757091163141
0.23728627367317
0.250491165634921
0.236407236029592
0.249861100366322
0.253781765356571
0.243067934034146
0.242673217030108
0.251556065978448
0.240858645565859
0.260620973031923
0.257433764659547
0.256924351905994
0.251046839203601
0.257462855751542
0.255084583102373
0.25908623871004
0.250518753262655
0.25077183790851
0.247071563822286
0.247909005574056
0.247704424724177
0.258201729512661
0.253229600255113
0.25221925921891
0.247306059854839
0.2517273400444
0.261840214799825
0.2484591282457
0.243977990155149
0.249864790242333
0.255103728579108
0.246840340271433
0.244911090967055
0.249248795085599
0.243485993541208
0.256135258612566
0.242675894521925
0.246420326255186
0.248279680864103
0.249848959529883
0.252465490535807
0.247267376638805
0.242258988464308
0.26095554562325
0.251804414780528
0.244026505390813
0.243770151807258
0.248983301316593
0.250794977999542
0.250460325314657
0.242576620759708
0.244337648892614
0.25441110010435
0.246410383976818
0.249436326025702
0.243056079024938
0.238621470193678
0.241364439417387
0.244279488196298
0.23845891314353
0.241909366101005
0.247388149294337
0.252180467611814
0.245695809313908
0.236649920010694
0.247414742345032
0.246420484692353
0.238631018338086
0.24164143096321
0.243111918340536
0.24018067678396
0.232207047057891
0.235673161411412
0.241430066152746
0.241137092720589
0.241129095607514
0.243485076586213
0.237160382389028
0.241688495399244
0.242278106322278
0.234302091195546
0.236128026145361
0.236789154370738
0.237148533321637
0.230614362822651
0.239257590284732
0.229605915846485
0.23214499740868
0.232504903923446
0.237608513099671
0.230800583752166
0.235143154542921
0.232087439768199
0.23768846743284
0.23002091913657
0.235162087495237
0.230251832628842
0.231213512655883
0.222051011265354
0.225869890129727
0.226415676595083
0.222696303502609
0.220689154810023
0.225400295860484
0.222537250706263
0.225451322548784
0.221733265044976
0.227881132224177
0.222247758782023
0.225066631696829
0.216991178868256
0.217939403564717
0.216986298472402
0.221166273521035
0.214193130481461
0.219688525077071
0.220657430088224
0.221985473630966
0.215527305239235
0.220101286582991
0.210781306722508
0.216336500647302
0.21278925909208
0.215867320911974
0.21473723862288
0.218376330073297
0.20973415423808
0.208291270500239
0.211878962804004
0.213457155952657
0.209724133584337
0.208393807907582
0.203783652738969
0.205588318622853
0.208572900425295
0.204956635375797
0.201301391463433
0.205564834861572
0.205864463185508
0.203843240820775
0.202622280858084
0.198584074620607
0.196978335004035
0.206145838930984
0.194245994891418
0.198535042910973
0.198490578479054
0.198594837591578
0.191053354089843
0.196153501649961
0.1919481331929
0.199163239934023
0.189510514889616
0.194834027676414
0.192045276490798
0.192775266808949
0.187301078349388
0.193613477229798
0.186291454436916
0.190752402413129
0.187625895708944
0.187826730866615
0.18423159930356
0.190467457976928
0.184881162753736
0.179012218304635
0.183967049551891
0.177366992570224
0.179877534745927
0.178890021865936
0.17763387735017
0.179164114725136
0.17850607153104
0.176255399350211
0.17297011452519
0.175328324706953
0.171637557782538
0.177187913690824
0.176555522124673
0.178392321860931
0.165956770338759
0.176798029273189
0.172705212301446
0.16920931014605
0.169439614954874
0.165623453699246
0.169978243845004
0.167813865589314
0.172600390225535
0.165211214803915
0.165533012950451
0.165758782993268
0.155510301586776
0.159629098996506
0.15938492281513
0.165723280100819
0.159366538301799
0.152515406590646
0.154273924392108
0.158381324727608
0.156445761956958
0.161065055958385
0.158902736530581
0.15360086116252
0.154492811633262
0.154275542351014
0.151954017149262
0.157097895576843
0.143509825067706
0.14596698971087
0.151691898876903
0.147357371583304
0.144835238928186
0.147461825436931
0.1491613166555
0.145857617961939
0.141976716985794
0.146800839805026
0.146696453464219
0.14639095593814
0.144826449828773
0.135950704219213
0.135362925753042
0.144710131472515
0.135756941628532
0.139642561639756
0.137721752406195
0.134525361767142
0.130558886455424
0.131486843163107
0.13638206192655
0.13486159460679
0.130576597105525
0.134426369799016
0.137348493828296
0.133861782608106
0.127596412578385
0.132391279294421
0.129245709717624
0.126139993736264
0.127726098985548
0.129500524591211
0.127676354772732
0.124314166051783
0.120751141715179
0.121406648246876
0.123069076656488
0.129492188889095
0.120905641728852
0.122333243742676
0.119192994238189
0.11894043205597
0.11758245662101
0.121153422054728
0.117763510189775
0.115167957400961
0.12354779859412
0.115821616662123
0.114117835118996
0.119446560759194
0.111051862689835
0.115301852856
0.113673228136151
0.111441308549393
0.113007590276371
0.110964566784852
0.10920826808794
0.115781006721371
0.105804755608754
0.110516491454297
0.107170685447788
0.10589839972738
0.101293561580583
0.104437924969638
0.104145127022278
0.107974161388844
0.104625143031599
0.102039323616599
0.107901487252814
0.103083555914405
0.104927796396475
0.101150722498824
0.0982528717502987
0.0980505700736694
0.102465116729834
0.104075186531265
0.106868349838308
0.100792409666465
0.0991531658037475
0.10173065997574
0.102485165066886
0.09667974475819
0.0943844302250447
0.0975126162633928
0.0944959149624139
0.0958347786227773
0.0944216436278601
0.0982890229986891
0.0961850406291242
0.095529253594676
0.0916734719693728
0.0972576204836111
0.0934361864480417
0.09064308549627
0.0878648566196579
0.0912469818552356
0.0913334493286948
0.0897344971026935
0.0884817635376086
0.0874379794040452
0.0854076210136519
0.0876103238954573
0.0905418692365123
0.0897452513266553
0.0897799945320986
0.088044726673349
0.0829420071841376
0.0893377550485367
0.0802325904180682
0.0827378363468845
0.0855526039385711
0.0838440792983213
0.0824879845674623
0.0826560889142379
0.0829097458982583
0.0811454139103794
0.0832065503595689
0.0828184624128939
0.0802525740656392
0.0834514550926631
0.0864071078814272
0.0830643926208339
0.0850358121446202
0.0757725711678838
0.0811234793717079
0.0777029245136564
0.081268867830127
0.0809526690426166
0.078697307944645
0.0756481301878084
0.0756137550189024
0.0829451339695645
0.0794941847133329
0.0743810257663737
0.0752410470541277
0.078411625400802
0.0761913555575748
0.0746552008057638
0.0746741617702067
0.0748606244255838
0.0733093686517763
0.0737138772977581
0.0718706894745117
0.0747008071150547
0.072459627458121
0.0716056201310966
0.0756114527376838
0.07391360401296
0.0715213607413023
0.0725105424707306
0.0743078389771758
0.0685464960583687
0.0706712154079082
0.0727173452990062
0.0726960998970242
0.0699976444497892
0.0677488454830191
0.0739799928797158
0.0675000892631279
0.0668747599041019
0.0711439392551994
0.0678675013004815
0.0676327880842871
0.0681776643867628
0.0686842746414846
0.0648573137196608
0.0679140660201284
0.0651322043532208
0.0623496562738055
0.0641180400404158
0.0649953878063536
0.0683336986485647
0.0653687031830458
0.0678825005878277
0.062602145497205
0.0608360753271561
0.0677823694194415
0.0670358176805398
0.0681953814013217
0.0651308664048657
0.064006265843974
0.0637484415512578
0.0606719654397198
0.0636533722578138
0.0629431760601027
0.0640888151338828
0.0666306808833049
0.0695216758575251
0.0620016956126297
0.0619632756146944
0.0624018333397479
0.0641422835810305
0.0649110015325258
0.0628997678248087
0.0628567449889376
0.0644883320132402
0.0656882498036258
0.0660849091935628
0.0634752350232125
0.0621395244666474
0.0622518714056417
0.0631973589520917
0.0618852232312124
0.0665332514427825
0.0629940686685947
0.0651586253813264
0.0607343159351201
0.0637066038758961
0.0661729325022822
0.0618265998016832
0.0631606322073915
0.064485812085459
0.0661213316886114
0.0654716091092202
0.0676856324641004
0.0667471377423094
0.0682143234650633
0.0661024055496248
0.0671785316937054
0.0678921775224473
0.068518453745533
0.0669105553296196
0.0684110113204016
0.0640398993921117
0.0674978557715936
0.0704190407583827
0.0706932731604232
0.0709363942603429
0.0717007361991175
0.07418717059851
0.0696374417849441
0.0745245258986356
0.0726747630101258
0.0684845377360897
0.0735216664226509
0.0696353439416581
0.0745914471929587
0.0733411222591722
0.0734343374287088
0.0708707142654634
0.0755664473314939
0.0746623787836837
0.0760507891676938
0.0755417164266222
0.0783847504086374
0.0773145840681128
0.077643660319813
0.0764628495331325
0.0788239833017173
0.0810518245658711
0.0800276424619712
0.0826975787711669
0.0793951754338742
0.0765783783607387
0.0799760614708736
0.085905334587346
0.0868518152728659
0.0860069875931681
0.0814112468239747
0.0806720976945675
0.0846491658476951
0.0816793494274844
0.0864682537682414
0.0848462589740964
0.0857374883479007
0.0885448677306572
0.0836141497611164
0.0806922614226921
0.0870624536265591
0.0861022168039966
0.0879510689732523
0.0858160536866859
0.0874084640806158
0.0810561879791
0.0868838452639914
0.0885585558991942
0.085819936064118
0.0829964282462625
0.0818985808872184
0.0825928038159833
0.0784928488219111
0.0820978700464217
0.0832246893643585
0.0801973385188708
0.082314782721928
0.0859233846265358
0.082808555955136
0.0851194911001522
0.0834749629915991
0.0819597771833947
0.0858688309174882
0.0863711477854919
0.0828624397102473
0.0823866018029387
0.0817321168049048
0.0808038043230295
0.0824315085897687
0.0837987584714637
0.0814182714038369
0.082862781214598
0.0799321441815584
0.0843854933263114
0.0796571818356724
0.0815342954244638
0.0848616777365148
0.0821859044920333
0.0860772362479977
0.0857064831989786
0.0813772015898567
0.0809119664571103
0.0819479879417047
0.0858449129368385
0.0841265528134003
0.0820207459599938
0.082611121445198
0.0802607002879296
0.0842815223811879
0.0866755911400654
0.0808424085522384
0.0797658092880528
0.0837623828173968
0.0817430158250644
0.080096755781642
0.0785996530969353
0.0847227591737137
0.0808760070569694
0.0776451020149581
0.0797950670066086
0.0790422813468025
0.0779878996447994
0.0802399711446976
0.0760018246674987
0.0738216509203165
0.0735159601898257
0.0749409574755349
0.0790626955631444
0.0731472673689067
0.0768811125353927
0.0757205715800536
0.077774156832029
0.073125356211616
0.0734000006369127
0.0730873655942619
0.0733008039607063
0.0683416578020939
0.0670864426518063
0.066615498442616
0.0685147928911463
0.068456173523933
0.0701815732984932
0.0664192774320403
0.0647692404839408
0.0651437075423186
0.060792049978861
0.0648869439837019
0.0641686483827726
0.0636673995207956
0.0631823425397917
0.0642661659218565
0.0614075664715898
0.0626730608238819
0.0644706796449502
0.0592679818597097
0.0608770588006298
0.0596816230460692
0.058813160915191
0.0635221099939658
0.0611027851633697
0.0612011334257222
0.0617880627380501
0.0595663161998409
0.0587095383590034
0.0623351212963889
0.0626435242975366
0.0586867334555245
0.0590117756849848
0.0579782147097028
0.0548245439807023
0.0545140141213399
0.0589867745016397
0.0608587653074215
0.0562089467895126
0.0563345988531256
0.0555144354184287
0.0574662077642647
0.0547759896327635
0.0546234733697548
0.0537118810147505
0.0545084263896665
0.0576534165060852
0.0525598051799993
0.0540470758859016
0.0541013158856518
0.0535293492527055
0.0520730150230788
0.0505573462403526
0.0563387334488311
0.0513414296324421
0.0533845102732253
0.0523307561800561
0.054581722764538
0.0513838089452129
0.0499771573405757
0.050890860369305
0.0517547441525094
0.0485182616878587
0.0491895927125197
0.0490429850219633
0.0517095727515937
0.0515838614686962
0.0498538716390851
0.0503191265596643
0.0492586843510657
0.0472016736024257
0.0497850284261321
0.0492258302458306
0.0470371267066937
0.0485673870965841
0.0474249254135573
0.0468583961374371
0.0454950653288074
0.0517707943183155
0.0496581605242206
0.0494181732241542
0.04645065834511
0.0476067903394644
0.0520682000434431
0.0456594101312278
0.0496508534322469
0.0497466743813402
0.0470866546807416
0.0467088482477049
0.0459789269036706
0.0470805154323745
0.050288432316005
0.0441085503442849
0.048556765796969
0.0468479512269972
0.0487612230265909
0.0462894882518669
0.0454774896450252
0.0448366888490412
0.048588032136957
0.0465260158861978
0.0458786929880825
0.0422855879650742
0.0474645157406132
0.0455105830519895
0.048518968661564
0.0442275759585604
0.0469438682886244
0.0468254668311332
0.0431567559278289
0.0449185576590513
0.0468206537674826
0.0459710077048835
0.0460555119833325
0.0439508944326392
0.0407459225303656
0.0446753108004346
0.0441972341778958
0.0446379959174031
0.0442266754055229
0.0411080706377181
0.0468499328687759
0.0425877973396022
0.0446822214954005
0.0453979960224361
0.0409277287062223
0.0412647617830397
0.0453642251694824
0.0434939447014364
0.0447280283974529
0.0408149399263978
0.043091296473247
0.0428020605876205
0.0444708169607799
0.0423325398728339
0.0427841024313763
0.0421079886164695
0.0455120923052312
0.0430354525844543
0.0436394622172499
0.0419883545830126
0.0401434736353431
0.0404989878849615
0.0454558160206355
0.0408014577338891
0.0442838315978857
0.04279400470557
0.0413732063316625
0.0417451679944806
0.0458119982191926
0.0419838153575111
0.0440251122964298
0.0429593174849628
0.0432546143475289
0.0398995234154887
0.0415305484908465
0.0424980226012898
0.0414901025129556
0.0435981919253702
0.0426595372449259
0.0403609381273313
0.0405991155977924
0.0411978650339572
0.0422636465634785
0.0422539179743103
0.0423982722975929
0.0395735504483228
0.0417362277668807
0.0415360117196186
0.0422133350720681
0.0444659800437624
0.0407668832213595
0.0369884234733072
0.0400747492285634
0.0396357274874313
0.0416795936630236
0.0375077109781653
0.0396322609045383
0.0383470888440458
0.0405519682248934
0.0355865910876377
0.0356182969319055
0.0421029067041537
0.041765352517921
0.0387408559698432
0.037862866732068
0.0397343303613186
0.0381065311741261
0.0363677542851699
0.0375073681173136
0.0403282051321727
0.042474652264222
0.0384937152330424
0.0386407487748664
0.0393619777705318
0.0384363825627385
0.0390911087794755
0.04130068334693
0.041023067425
0.037980770690216
0.0351317642011121
0.0406567407490046
0.0397753859358042
0.0373323638309023
0.0356811586441548
0.0381066806472366
0.0400452014943427
0.0391053346431904
0.0354350619887703
0.0380034821097572
0.0374896056857704
0.0394563400720586
0.0354967877523545
0.036279357409149
0.0357845170542247
0.0344015401186679
0.0381004129836567
0.0388781980578651
0.0381945408783006
0.0387362378366455
0.0369457292860154
0.0380068008181654
0.0391571706708549
0.0368504819771321
0.0355036478697169
0.0359859592021529
0.0356973752318334
0.0367984653962239
0.0350541029029914
0.0391782108024053
0.0335157954063672
0.0332780869531182
0.0341909147267857
0.0331935643356958
0.0352127837042611
0.0357205412957181
0.0341559837925289
0.0360922679970223
0.0335275230847661
0.0335383696568194
0.0325975207854707
0.0329629668401166
0.0314996620580292
0.0341331628170256
0.0317974068028675
0.0349126204633567
0.0348840908541746
0.0353027270214096
0.0310559251620849
0.0330814688326225
0.0309599567822398
0.0330516194902071
0.0320062995343103
0.0343501698701952
0.0330357575127788
0.0334176578141779
0.0324507018673784
0.0334642754995597
0.0310829022883891
0.0346270231463421
0.033421697647095
0.0355510865145601
0.0323908004391115
0.0315565267897919
0.0301440864373148
0.0307836801434109
0.0313526810358867
0.0324189126942713
0.034070180234619
0.0319001090502711
0.0309234012855583
0.0336511899886714
0.0325794683855319
0.0349524769805436
0.0337674839538809
0.035135531850812
0.0303603096675186
0.0301477118356693
0.029628222492437
0.033500729629542
0.0304337803169846
0.0303897556024057
0.0314379818503562
0.0308783265891348
0.0289094139330545
0.0299567908287326
0.0309441650418844
0.0300464131492598
0.0283684587779713
0.0338853162398102
0.0329631305322062
0.0320675668514982
0.028006885886016
0.0285082145045839
0.029250031380322
0.0310199422609357
0.0308031681457651
0.0311033102851731
0.0305232799729372
0.0292430491499354
0.0276492060376015
0.0330992755985122
0.0302557748975983
0.0294917233422912
0.0273697457537833
0.0299265785946403
0.0260001077981867
0.0288249732893959
0.0282997955680168
0.0273935721969917
0.0291470433535527
0.0315689598972656
0.0305051291673727
0.0303482074511293
0.0295304168668473
0.0331371696628776
0.0274203258771359
0.0294631108609876
0.0284222691818657
0.0289093172391332
0.0287161115436741
0.0280586478936195
0.0254631164118708
0.0317113299669219
0.0286214034468022
0.0293833340426156
0.0292717487162432
0.0303566910622831
0.02856384925373
0.0276521538782651
0.0248848484355318
0.0299526933759606
0.0296934762739784
0.0310092123940863
0.0304671787931024
0.0293914656608269
0.0289853649500927
0.028987977918525
0.026739958658205
0.0299989236735485
0.029912175562295
0.0271410829277355
0.0283048627649278
0.029909074999895
0.029047443811216
0.0287654447062063
0.0258915111209887
0.0284635107431173
0.0278432617504632
0.0285285220485279
0.0271817534581078
0.0285367010542569
0.028746825902261
0.0305639004807987
0.02532045668915
0.0293439409312853
0.0255583928832163
0.0282041452046033
0.0275592755598547
0.028383208361313
0.0272837227633776
0.0272970087609824
0.0251757443338403
0.0265278045171169
0.0274497288623227
0.0296309198142835
0.0265574586049671
0.0299237388402231
0.0254048478802768
0.0261127447737987
0.0261306480930871
0.0280242238725012
0.0275587394996224
0.0304919134397081
0.0259300869650116
0.0272383942267109
0.028072743978366
0.0279749174978054
0.0261575985733489
0.0256737342760348
0.0266222083804516
0.0274274899727912
0.0267492434573215
0.026612497955451
0.0259157957605813
0.0264565019440648
0.0272963201315767
0.0280022169107306
0.0245467562943325
0.0274358971173314
0.0265097506685527
0.0272937714249426
0.0247950800175609
0.0277923917858901
0.0248185749077319
0.0293588315154908
0.0254175319558286
0.0263856547952332
0.0255594073393977
0.0286442772588245
0.0263397509045007
0.0271757244451412
0.0274475794298819
0.0268997577013957
0.0257528379107564
0.0269586665774938
0.0256345399456574
0.0258633118675099
0.0242410028533411
0.0263939051565246
0.0254878175800908
0.0265262846347352
0.0240096871364006
0.0261321499712835
0.0216026049115705
0.02484326064526
0.026115284991184
0.0258396804504733
0.0230299230978564
0.0251735120361281
0.0239765017387122
0.0276020339060316
0.024478459311574
0.0260425047810014
0.0232712185620973
0.026218895788664
0.0243900180853038
0.0271376135293535
0.0260268393501145
0.0257421797721561
0.0222238478173196
0.0270749149078097
0.0215919228443714
0.0243433690652394
0.0235761300186126
0.026172387116806
0.0251298759869503
0.0268316080344141
0.0222558634352636
0.0236095298516478
0.0193412319077064
0.0242897931294717
0.0218699778383173
0.0234282692999908
0.0221878190587585
0.0263415147464228
0.0233180460160498
0.0253235208262874
0.0226619902050482
0.0240032343439961
0.022073319486979
0.0236410459331711
0.0225243044712466
0.0258625898218304
0.0213768634325827
0.0224037382107502
0.022780178064967
0.0254966844321661
0.0216026546685658
0.0249510460153172
0.0220704522168673
0.0254372613134873
0.0243424246674689
0.0258233335596569
0.0224170586534197
0.0251559970629424
0.0233950264917171
0.0243637088079994
0.0203053720450276
0.0227866698506827
0.0205778619850326
0.0223092130001622
0.0195710543549021
0.0240998276286758
0.0227909611329217
0.0242078508100244
0.0215881234821109
0.0218548010119648
0.019882870441639
0.023310244424335
0.0213920246579903
0.0215422218430706
0.0215382992037523
0.0256056599762889
0.020892443503382
0.0237187553230136
0.0220297018147666
0.0237261483217935
0.0195907148874946
0.0231083219013611
0.0182574517144425
0.0214452384728475
0.0197127017015803
0.0239865358875243
0.0222280937259703
0.0238933948500199
0.0218318918552116
0.0227957973243169
0.0194285255877067
0.0237640559975267
0.0206065820642832
0.0213968711342997
0.019820033476245
0.0233071431712714
0.021848623372678
0.0237090523935827
0.0187403472185272
0.0230257958028664
0.0210670047742789
0.0227030873018299
0.0210953852777953
0.0246136640582851
0.0211577762036284
0.0223037009147358
0.020725098079601
0.0262291565382969
0.0202466952592041
0.0246897201883372
0.0230431852276065
0.020753770898979
0.0224256026680453
0.0271134862618162
0.0223919460965564
0.0254327879083696
0.0191675040080729
0.018116380946058
0.0134323809424027
0.0218932976210703
0.0149155198890079
0.0200873642953472
0.0146834121853449
0.0154454467690778
0.0116570308544457
0.0153759241287412
0.0110683695724203
0.0121950607705715
0.00815276476240404
0.0198090288864863
0.0105539037325552
0.0126450935108274
0.0160965743295968
0.0175497652545379
0.0101463787907989
0.0179121490353599
0.0115538300227217
0.0212786086746746
0.0158027437156614
0.0233495890517178
0.0182039696943151
0.0250861223612901
0.0164116172956312
0.0180007680464663
0.0166928797911801
0.0184184239612326
0.0154200950255756
0.0154050348263909
0.01183975741577
0.0154123325190391
0.015857012482411
0.0138161429127781
0.0127213784797802
0.010274654530391
0.0161059992264882
0.0100453218003464
0.018177363358552
0.00941857496181449
0.0275307516777775
0.0106423878435456
0.0275364171836924
0.00224233227587957
0.029948557004069
0.000681259254635509
0.0396674771150639
-0.00120208698513239
0.0366247932658111
-0.00543254573906359
0.0463779070984767
-0.0074307664324813
0.0440569730011651
-0.00837133351145309
0.0469479264263863
-0.00167800448982542
0.0389815473970653
0.00794512934281988
0.0336973375385302
0.012713972713627
0.022467459659858
0.0194708595870725
0.019807562957878
0.0256748813148356
0.0145156995421514
0.0260507006403141
0.0146891190196435
0.0265038426713397
0.0199646322200699
0.0223870692294136
0.0201127139304875
0.0189655319673806
0.0225812077922811
0.0198545169125352
0.0238298577840401
0.0203156324630383
0.0211753827303348
0.0204721160842266
0.0185376617039827
0.0206842860386065
0.0189469067346095
0.0199762627432702
0.019348828247074
0.0199701962786766
0.0198937842344393
0.0194100722103918
0.0186223099649607
0.0191443190960963
0.0187215174005159
0.0198064867809652
0.0196499577338658
0.018178790623302
0.0187266464303083
0.0190116506859004
0.0180216169322007
0.0181429792292814
0.0201206492741838
0.0220240299638824
0.0179409479238336
0.0180206556037895
0.0186884938552643
0.0191300759499602
0.0181260761708893
0.0204652637697002
0.0184254944996254
0.0205316936270093
0.0185896957137872
0.0204299467308182
0.0185884645410936
0.0186389332537862
0.0184379414661473
0.0190039422972592
0.0180985165318291
0.0198899017275815
0.0180444059118727
0.0195342975914383
0.0181176392983044
0.0204402162506808
0.0185231298388212
0.0201374232214071
0.0192210449964961
0.0208685341859598
0.0185998538179173
0.0187905212143579
0.018580580269045
0.0206915854793179
0.0168385474245579
0.0185992171003521
0.0177708721475612
0.0199352954122
0.0179571440989886
0.0198278777630279
0.0185683211500822
0.0220152990258655
0.0171548685302144
0.0203611543960469
0.0197246167161124
0.0204612860596524
0.0174664680504756
0.0188407903163413
0.0175510354011871
0.0189001232744767
0.0187993492024781
0.0178962735038177
0.0172710837528454
0.0207257974808543
0.01875896072213
0.0204492503364923
0.0156065730485144
0.0176221220618864
0.018758951757832
0.0192622120818328
0.0190796842167027
0.019376615807097
0.0165950463775561
0.0205731893762848
0.0165947564176276
0.0183304437777047
0.0167421109927826
0.0186631830576488
0.0169642052562641
0.0210147859518753
0.0184927187292031
0.0177461837540072
0.0181637675602693
0.020309440142077
0.0173277662137731
0.0193792803331354
0.0178548874212873
0.0215056549242209
0.0178018229321418
0.019580749119071
0.0183051397017359
0.0205989964446961
0.01842487329106
0.0190676983045221
0.0176932977693611
0.0192508192957623
0.0188691619842417
0.0198746297546193
0.0170682671621479
0.0189151931999982
0.0184200554846306
0.0212885287396559
0.0178997062171891
0.0199681680071733
0.0205070737084009
0.0186017288195779
0.0172331435190415
0.0186228053451944
0.0188010153504323
0.020518706540684
0.0181491222777022
0.0197231425504524
0.0159099436582359
0.0194994735145415
0.016497642514036
0.0205775052250486
0.0182335208501656
0.0182202358511715
0.0172021020465081
0.0192935773948294
0.0180336183483729
0.0199011198065427
0.0161286207122304
0.0193805990968672
0.0182689230405251
0.0185869283823337
0.0171432733793713
0.019642391542461
0.0150205159479696
0.0190759340603695
0.0183764192999173
0.0174145681861407
0.0184255084939171
0.0193195979656577
0.0155674430754342
0.0193653448654687
0.0167339290563242
0.0183996796103452
0.0179688818469253
0.0193896827624804
0.0179955244219844
0.0186958581476403
0.0166031338245945
0.0195310801774412
0.0175933634142226
0.0195671089348982
0.0182211967922558
0.0192403518577589
0.0187700672192034
0.0196599779949139
0.0158383354153313
0.0187617802458924
0.0162322232821777
0.0213662743479478
0.0160569983769822
0.0196860563526268
0.0176217000180176
0.0188170311296655
0.0170462319718155
0.0175141536794141
0.0175957795622607
0.0207099512813011
0.0189259842553441
0.0180261357966592
0.0163111489376652
0.0190923795608158
0.0171482844945545
0.0187478787003789
0.0168986917665836
0.0196397238036465
0.018628092624515
0.0172568447577932
0.0169405650998243
0.0170546356483183
0.0172694919462716
0.0190256569204152
0.0170873540904955
0.0184061646473116
0.0154335026041828
0.0206376452560981
0.0186816941680243
0.0206934868907389
0.017309512550624
0.0196266534729872
0.0172234885614028
0.0186688912737125
0.0169354714835753
0.0195716294389242
0.0166832516396768
0.0186252805244786
0.0155813183094904
0.0199274267934689
0.0182365239752068
0.0194534487924478
0.0186054479611695
0.0177873845441799
0.015360916441068
0.017750505263585
0.0169039231775991
0.0197167437487459
0.0182920765780303
0.0189471750882334
0.0134618767076721
0.0174849409217547
0.0170338947425716
0.0169403794719235
0.0164763852034744
0.0191499460412361
0.0159639053732615
0.0168638829386474
0.0164195535212881
0.0196462253755571
0.0152728490212856
0.0173248620225431
0.0181705663870115
0.0198347288016348
0.0177213593672249
0.0212268999906974
0.0158297563631863
0.0178495861222176
0.0170192173168877
0.0187106240455084
0.0168616983340503
0.0182127460032276
0.0164850365700461
0.0173555984396428
0.0160793364194977
0.0192483544073172
0.0169957813859641
0.0197268610262349
0.0166970721285558
0.0183183569352775
0.0158041023108312
0.0187201968440411
0.0158020454015625
0.0199491121490033
0.0185795268846474
0.0169729617314704
0.0147061977892485
0.0173900596478211
0.0154259120681931
0.0181766984249663
0.0151718223289262
0.0176659148436519
0.016314119690922
0.01862235870972
0.0155688461859804
0.0195931655240513
0.0154410293899996
0.0192223272551656
0.0154121664360524
0.0171038673434291
0.0159086570207101
0.0166609040100475
0.016987959295038
0.0187120740261597
0.0153487611984846
0.0172780407748965
0.0172129176827896
0.017745589244666
0.0163330741900367
0.0164583928908662
0.0143986066516578
0.0187164179556461
0.0149577722112259
0.0167716671182897
0.0149761876786537
0.017840047575848
0.016071097286691
0.0203539644111669
0.0175671577987078
0.0176680960797082
0.0156746557728484
0.018899801978659
0.0143570363786428
0.0165560793768249
0.0147918527272472
0.0201757183221946
0.0178317866847422
0.0188421354008846
0.0154037219489594
0.0185614952122322
0.0149186857638771
0.0192058855082167
0.0150060735856202
0.0169220089813372
0.0147176152463554
0.0189749919284287
0.014619760010161
0.0165076881847121
0.0151755601803207
0.0154308628652128
0.0157786412632647
0.0187369217326549
0.0133503454709622
0.0204932911785487
0.0195837084251062
0.0195362868093147
0.0164799498940995
0.0176635279898354
0.0118905115916427
0.016364094484856
0.0152106336769623
0.0165465940935546
0.0139251342536147
0.0195120925909347
0.0142179874777558
0.0168045705277093
0.0144793872556388
0.0170649744832801
0.0151870710066999
0.0176499965217813
0.0138159770735833
0.0188944573679482
0.0130949016411331
0.0169628514414042
0.0144802403673092
0.0170088626692842
0.0131189472595222
0.0180761860373907
0.0129072947303728
0.0162823287463636
0.0204648916171046
0.0232642283653652
0.0169783725259287
0.0177710717509159
0.0191814901854374
0.0196669041853359
0.0149400333452431
0.0166730544856186
0.014724205169109
0.0153968474995658
0.0137690245137383
0.0177287660076338
0.0146853869478389
0.0161467490112355
0.0152555662162676
0.0140096991855497
0.0132247744912411
0.0164927968022604
0.0164624229077496
0.0166915518660155
0.0128566410578309
0.0174393285159656
0.0155492027801055
0.016014907490517
0.0141980846480985
0.0154229060845259
0.0187306460532422
0.0216407718841232
0.0184355695165346
0.0169288959635121
0.0137604932353191
0.016213428998337
0.0134966423958347
0.0156569623171169
0.0144724021589219
0.0140941646001045
0.0121124402876329
0.0159764109582142
0.0124953200811314
0.0160580240010511
0.0164227161594065
0.0183982210632754
0.0142252774030986
0.0164034596649876
0.0149018834237922
0.016506975445501
0.0119625273422425
0.0168274059916506
0.0140916236003805
0.016647433847823
0.0138451040787112
0.0159953198585848
0.01312895942595
0.0254599539424598
0.0260249721170776
0.0213343816848518
0.0128921478630295
0.0170274764756315
0.0124950484118113
0.0170730131198916
0.0129560853393702
0.0156700330918257
0.0116651011872346
0.0177809496600181
0.0140960858055818
0.0173630597377174
0.0144753382199444
0.0149549592268751
0.0114987129350802
0.016766225659256
0.0126286012760772
0.0159592351998651
0.0148082253548224
0.0156090940654884
0.0207686908827141
0.0263199066070512
0.0155298286501118
0.0188960110674612
0.0110474566213211
0.0212066621455222
0.0251323655903628
0.0215248356052545
0.0121969846300667
0.0172035498658511
0.0117013127254179
0.0153366122895254
0.0118345180631295
0.0154723484147712
0.018565145062409
0.0203314086322089
0.0160551671100651
0.0175731501210524
0.0135268195362938
0.0139131247068386
0.0122239457263765
0.017563269595558
0.0136878892764835
0.0161711844398042
0.0142474348165895
0.0157185594578091
0.0116135129628878
0.0183624354803691
0.0125485298795237
0.0153959567020482
0.0155257555864177
0.0197199160126413
0.0133257839362535
0.0151003900351673
0.0158361882188093
0.0148933026187895
0.0234641629707033
0.0250907772654678
0.0151533330321711
0.0151505062588762
0.015182128770944
0.0135182725929209
0.0138901579759036
0.0150116740339978
0.0136858148044744
0.0177606829325782
0.0108452295042903
0.0158011912590592
0.0125667425717221
0.016266377854991
0.0121464342725338
0.0133155181172831
0.0126762479767335
0.0163366885077986
0.0132162107700823
0.0161283649619205
0.010311824818094
0.0210219821625468
0.0264423431037946
0.0366489812213134
0.0267377636527263
0.0258728739772446
0.0199810477386711
0.0157730654972973
0.0127346452923719
0.0155329610122429
0.0131669271281254
0.0164843300208364
0.0141417941991523
0.0145912485681033
0.0149279367992881
0.0140593037107243
0.012636332610214
0.0148632313400528
0.0100246292763551
0.0154780427550487
0.0140504764399607
0.0133381833650629
0.0148119671652119
0.0133756270978805
0.0139948742789591
0.0223295228730438
0.0201489744462702
0.0154949988600948
0.0241981480439609
0.0467806021172566
0.0264302603459084
0.021619593178889
0.0156635874698504
0.0188603733939247
0.0141316626397568
0.01566901138123
0.0147562951152592
0.0203319658652441
0.0154555118958538
0.0158220497216313
0.0127438449227654
0.0154073472149336
0.0131901529056126
0.0184369511883322
0.0238581187535475
0.0373447093549108
0.021724719662891
0.016753072574091
0.0121677611118104
0.0309649821094039
0.0257663600604075
0.0200442140296163
0.0137801961822906
0.0176609892489983
0.011307575440811
0.0151377975018358
0.0124894554579642
0.0151606153355298
0.0177705436278123
0.0172426994233128
0.0140142868826533
0.0164556683183771
0.0141141799544776
0.0209066121212547
0.019157703176533
0.029685243233023
0.0212474433324745
0.016922964030183
0.0193644460052409
0.0191327237224939
0.0136245116418003
0.0161553304222819
0.0112630389060689
0.0174522152664518
0.0236967187760918
0.0263137330179917
0.0216858658794727
0.0319131656135291
0.0164727337531343
0.0163383875020892
0.0168414023032173
0.0261159574100316
0.0188763199119842
0.0167020812016677
0.0358726499179884
0.0349247040410041
0.032986735406162
0.0279569513038583
0.0178926158003211
0.0160441200437084
0.0155302394695571
0.0152788218261701
0.0216213582448523
0.0293763498425493
0.0158538520295604
0.018078070166078
0.012619100273662
0.0338309140749606
0.0234619492754292
0.0210139985755724
0.0172226441502695
0.0160254647243328
0.0208327989895619
0.0290925166568813
0.0141235649852179
0.0275958811577729
0.0370319777498293
0.0479386805130729
0.0277790274437498
0.0184988794577408
0.0231542241601865
0.0444450540499249
0.0186844562388646
0.0159432387537519
0.0147240824355545
0.0186794190163926
0.0149885937709895
0.0301589084743258
0.0340868304319557
0.020862978939055
0.0174223892571349
0.0209557825148635
0.0207065164244499
0.0362718303022842
0.0225752846864465
0.0186193044177394
0.0168503024055136
0.0202134807678997
0.0257356485710793
0.0572342090298811
0.0282677007900896
0.0408727703796384
0.033061340649622
0.0378483191818636
0.0249724227645589
0.0279845386898017
0.020805923891647
0.0393790203907391
0.0346288137453649
0.0212543389072921
0.0184765990936894
0.0434016596562223
0.0297032355537923
0.0254783920049982
0.0205986818343364
0.018772524951884
0.0297795387588755
0.0679960694519975
0.0582979040702473
0.0408797562143713
0.0191407900437198
0.0333300402645088
0.0386072895992978
0.0265030260000303
0.0200983409917304
0.0198298280687034
0.0179055661296246
0.019449311079224
0.0212589164415114
0.0288306770423697
0.0203978998980563
0.0227291861215445
0.0184283348954521
0.0295877672938283
0.0458265030302968
0.0737524085494336
0.0396003181701809
0.0410030301086878
0.0574285545823955
0.0427517606715669
0.0268345020828679
0.0228053456707003
0.0241044450425648
0.0356512559750875
0.0234256445603171
0.022836506740138
0.0264098737772217
0.051900783214694
0.0365175228124682
0.0395120451318248
0.0343405762282704
0.0293108468563499
0.0338037458887616
0.0603822397767255
0.115099813437906
0.0479067350130093
0.0362794799639082
0.0448712272107024
0.0644579061164121
0.0724795514052078
0.0299246374450104
0.0335652651872041
0.0295673241443571
0.0326447283651446
0.0364167628270287
0.0408151951502283
0.0381681381421225
0.050113267715099
0.0354852495147798
0.0450783882133537
0.0659367697969251
0.113380138276867
0.0769227577683746
0.0508831802816881
0.0424080785815159
0.0606044960495695
0.0513105650203572
0.0448927251227361
0.0427546486857524
0.0438213873874748
0.0643404120209695
0.0760329579508317
0.0467564566846678
0.0503598655092652
0.0591020471242757
0.0753393837602994
0.0482383383873306
0.0992159116127338
0.0604591974093996
0.0613305439868712
0.0487871173553505
0.0557441313244685
0.0490312984250813
0.0607914481500049
0.0821274218332794
0.0660340689660746
0.0549745144310861
0.0604177265679435
0.0532462815018242
0.0611283783015872
0.0556893018975628
0.0661584808716697
0.0630993345939379
0.113390696341841
0.0946837054540428
0.17000709964807
0.0734506564248452
0.0704054414711566
0.0629672626996957
0.0759601875012117
0.0913509792485636
0.0929128715038772
0.0936098428834154
0.0765688562526242
0.0571109019049663
0.0658075877554666
0.0593576986773353
0.0622210120049112
0.0596204206652491
0.0672111460350062
0.0569728196886887
0.0918074892884015
0.0687754237414913
0.113008824809184
0.0892782877248116
0.0634708021350728
0.0606050631638736
0.0601926356663861
0.0543981665669164
0.0589569984652041
0.0562685401685952
0.0730488721577954
0.0708128679701258
0.0556755739662894
0.0564919871194026
0.061359745903719
0.0795705111801503
0.0737650987898477
0.0561907216296329
0.0621604879924363
0.0521547861107474
0.0579965404560617
0.0540588912976785
0.078219055623772
0.0704072828351988
0.0578648215239293
0.0539408373957446
0.0554598993521631
0.0481846210127855
0.051947955402035
0.0463747887332053
0.0528095694969723
0.0489198034762123
0.0506008131109223
0.0510262600226774
0.0495843527013547
0.0444399130594458
0.0483529218331714
0.0510899863937908
0.0496456149983314
0.047245312054304
0.0519829171710331
0.0436411714577927
0.0499576373077235
0.0443795339216283
0.0504480576952604
0.0471417558574678
0.0522637168227729
0.0487375365063003
0.0496246346836777
0.0466075494428577
0.044315191997733
0.0461732892925717
0.0480043770856284
0.0435019586582921
0.0484734371611183
0.0427110443713748
0.048991535533273
0.0456285826714958
0.0478841783177426
0.0430478836218117
0.0471193157644199
0.0432016674495155
0.046951437353958
0.0429414286768789
0.0537000826752547
0.0538260878817512
0.0954707398413407
0.0578384137945934
0.049224871325503
0.0482396254095832
0.0450519053719363
0.0438305060699666
0.0499819060746566
0.0823207687627287
0.0626008270619226
0.0461512607196146
0.0447390385932125
0.0438675690148934
0.060682775569522
0.0492778191175179
0.0432476764778056
0.0465986021637291
0.0466670305947686
0.0989811360142241
0.108329658217388
0.110801760083829
0.102250721472332
0.0494782837343699
0.0532235849091396
0.0600658719020844
0.070046398861496
0.0406504191953963
0.0471903801321068
0.0411690321243507
0.0971736778642364
0.0476072456624897
0.0417595611846663
0.0406155211186819
0.0467244870627127
0.0713119632442343
0.0692061239830825
0.0581416446224365
0.0757987884757018
0.0790988831695172
0.0722899823610508
0.105233463790414
0.0883412712006144
0.0603772810362958
0.042912022300549
0.0473568380561578
0.0467446010323646
0.0533610786237939
0.0939028379139764
0.0456049670040846
0.0614244729478005
0.0353760380270809
0.0411665597184685
0.0441700183493323
0.0597375185752676
0.0551673520248811
0.0594486450879909
0.0768916082633783
0.0376670522966538
0.0636955364183886
0.0663641487147191
0.0848634634684683
0.0797941666851716
0.046537644916166
0.0430491867271831
0.0781438991711273
0.0747298034947041
0.0468933633703309
0.056987449576211
0.032795089754716
0.0477528005707098
0.0548998787508484
0.0402610313036005
0.0606285554623257
0.061368079955975
0.0733493243899914
0.107164143049065
0.102276048313934
0.0758014026254253
0.0399846503760164
0.030912675134364
0.0372532585577783
0.037282568638893
0.0375845662447231
0.0301992403029399
0.0621559109803153
0.0424525833211138
0.0378520918153036
0.0838881087120089
0.035739408525271
0.0327549454969703
0.0317250931295808
0.0320413921211645
0.0420445314159071
0.0621674638699938
0.0705303882143996
0.0521502151900174
0.0527116935467874
0.0615355853171907
0.0328373955035811
0.0436197810843883
0.0302435660119698
0.0360104810740043
0.0369616063800513
0.0509807700907338
0.0359711463513564
0.0406375094140821
0.0359887193241152
0.0484572807649766
0.06458767518413
0.0667374781629058
0.0375210552464067
0.0907824381263546
0.062582131014404
0.106852915415904
0.053770672001553
0.047738219453269
0.0478113953364037
0.0489524194757093
0.0492849200255465
0.0519607965809346
0.0608833751789654
0.0815439420794574
0.0419637904490193
0.0594134239026381
0.0453763083785886
0.0590975019831204
0.0556703151406284
0.0957483911154748
0.0756277005448014
0.119411408789936
0.0898733438609837
0.0727820369778897
0.0666412175706547
0.0539145663124205
0.0687976476424408
0.0601148236416475
0.0510611792748019
0.0590759127040056
0.0580790510143409
0.0805381186939926
0.0547549422973055
0.0613041564722688
0.0562411253340138
0.059529373538942
0.0529943344474485
0.0591136339761494
0.0565171775100965
0.0607486383867568
0.0549904316843979
0.0701594112741767
0.0638333025487954
0.116328060719765
0.0687472626325045
0.066090611349209
0.0651818197032665
0.0664254544111824
0.0636696383238537
0.068312305844302
0.0789115444467698
0.0716881427888904
0.0661664661375124
0.0699550551818777
0.0611667573338771
0.0717988371354547
0.078669521339769
0.0948161450338924
0.0598171958939964
0.0756134437178811
0.0676886073909035
0.101848318162326
0.101036775812559
0.0799206158500459
0.0933834183908683
0.0696622566361446
0.0750780419557225
0.0650731872795346
0.0692108072855968
0.0705735508499379
0.0756553566803186
0.071391523065117
0.0713235879444662
0.0683894579199613
0.0676640862421797
0.0702443670230107
0.069834787805901
0.0896143639785662
0.0683501536570428
0.0691949870463835
0.0654299773435341
0.0711757455453918
0.0715906350155948
0.0928748937796383
0.0843801356503367
0.0710989403738163
0.0824184882108528
0.0838834921302787
0.0869388833798264
0.0782505262921131
0.0645746627093736
0.0728188747506863
0.0665704392855491
0.0647078402202289
0.067149094772335
0.0777399560445293
0.0949046663186515
0.0716038494778354
0.073654673167541
0.0664614500901183
0.0697458626521194
0.0668772269267878
0.071037430613987
0.0664986193447571
0.0729771617929285
0.0701793513828947
0.0742112493022251
0.0699002698675915
0.0732136651447277
0.0861225911323726
0.0847177067775875
0.0786838744081598
0.0688246713387045
0.0697915572492641
0.0668775406087314
0.067897244999936
0.0773008508158671
0.0678514579191669
0.0666508137493797
0.064334069950816
0.0681715864024673
0.0653991847644035
0.0938075640811757
0.0694896990990976
0.0747991254814906
0.063904514459943
0.0616109961337521
0.0685868250634467
0.0599131354906249
0.0617251362989142
0.0590175601246516
0.0665642289060994
0.057557104726226
0.0626414188945821
0.0592568006850772
0.0567178174987354
0.0589747299187104
0.0587377609595556
0.0561251666759365
0.0586404225173332
0.0539410476482757
0.0584215638210242
0.0575065429682941
0.056640189336077
0.0585815863612801
0.0584083539793614
0.0713868542339278
0.0756538147138656
0.0726467589436975
0.064899155487141
0.0586823127453378
0.065185489143377
0.0530854818040945
0.0612978061968758
0.0529133542395163
0.0603682682175161
0.055510938674886
0.0583094125940938
0.0525358733940648
0.058226075103301
0.0532592868213845
0.0585031968188264
0.054027806584704
0.0592376426391086
0.053140025528229
0.060189953131718
0.0549741287688961
0.0581654772593984
0.0594027739932193
0.0647078147307478
0.0605235877992589
0.0590591325828478
0.0603189389561306
0.0566501147840552
0.058759452261587
0.060805235754336
0.0612275069307359
0.0583773326851508
0.0549008390609202
0.0580053157800661
0.0568607417514031
0.0564222072135298
0.0558425052849927
0.0558408156854575
0.0541284768403649
0.0559122925863326
0.0530279676215763
0.0537396398818733
0.05444719031728
0.0539698095799863
0.0530425881549059
0.0549994416025115
0.0520151465918268
0.0541402713596887
0.0512240910799681
0.0501138500332787
0.0517899699221943
0.0498432071319433
0.0495060016294608
0.0508030957609916
0.0475347254336302
0.0476346307639127
0.0511854961930258
0.0523763748542581
0.0480244527784616
0.0496147594304924
0.0468181244018755
0.0479717157927923
0.045837698882837
0.0484845081925262
0.0463509848544759
0.0488653059893514
0.0492658146827069
0.0487030839479195
0.0477234456791306
0.0477550367648294
0.0482777609529152
0.0484271416079174
0.0498405937809345
0.0484372451468734
0.0499655795581816
0.0498174830503097
0.0502140832505781
0.0503111036053463
0.049613495875469
0.0516708347606816
0.0505413047537722
0.0493114259942312
0.0506900322744592
0.0502598291547161
0.0499725026667944
0.0522828271389374
0.0491495979303612
0.0521686023458358
0.0485764010397958
0.054416225786051
0.0504090800782936
0.0520329889714066
0.0507366212418433
0.050994370830043
0.0489510013049316
0.0511536883895116
0.0505257218679589
0.0526500136157238
0.0481442973706654
0.050233195829167
0.0498022487007198
0.0495125886603809
0.0489641410836643
0.0496258515560755
0.0503162856997516
0.049125149426686
0.0490455853559167
0.0490382382566437
0.0478786793611616
0.0489690069431053
0.0480807893272162
0.047156614649369
0.0477236951664664
0.0462905531698591
0.0465699318666167
0.0478772612542106
0.0461723791802421
0.0480519713772923
0.0475198422428561
0.0473133335111137
0.0466876998411196
0.0474433687234119
0.0465777401235399
0.0474571196841973
0.0483803041070458
0.0458340343530226
0.0455377744929585
0.0470086603627011
0.0459277358156311
0.0458397736900598
0.0446936907174158
0.0457354360391284
0.0439826965294192
0.0456250497869165
0.0444011009738309
0.0440844277641137
0.0426773616957759
0.0430823777627504
0.0418855039627025
0.0429771026444855
0.0429889052934006
0.0413729467078851
0.0413631280809281
0.0440913781222623
0.0411409860660942
0.0428091162313427
0.041667138403497
0.0416019766617236
0.0420877792639014
0.0426633006974296
0.0413916460817029
0.0423472675559508
0.0408604060175255
0.0426067232726005
0.0430127454557897
0.0420147372718341
0.0423921324369869
0.0424089650168337
0.0404676497850477
0.0393266863878644
0.039685353999178
0.040515917494519
0.0392685584116856
0.0389377619302365
0.0398060303348963
0.0395665535536671
0.0387530890628613
0.0397101843790917
0.0401842315974851
0.0409254991488914
0.0403477153560066
0.0427181814882789
0.0414901744089506
0.0456108928668119
0.0470477022656615
0.0496104463810687
0.05073068063694
0.0537980592370399
0.054800995685939
0.0579907698781316
0.05937614349979
0.061082872877614
0.0628376225157906
0.0658946781093741
0.0679040712106982
0.0719508447346285
0.0737501058945895
0.0755657144423696
0.0774314390781915
0.0802510995142881
0.0805148111218029
0.0829074028846778
0.0832344610771037
0.0869142862390868
0.0891219622313284
0.0893113107665151
0.0876487574492273
0.0908680268444258
0.0926556288422818
0.093273622509967
0.0940100136869035
0.0930937604163482
0.0933055155704985
0.095895527438347
0.0941873901912903
0.096210690313537
0.0948355676817288
0.0946390389639575
0.0965255996966251
0.0977367176096027
0.0966726580879825
0.095707074530951
0.09686324185984
0.0979649185653217
0.0974274432520676
0.0981190633718744
0.0970958845535472
0.0995877996531536
0.0992212055592269
0.100977939533573
0.101660822263491
0.102321045028596
0.101890421912722
0.104133720435116
0.10371295480067
0.106830262894587
0.106084630233557
0.10835039239146
0.109157668545434
0.110481798266567
0.112336287407076
0.114501309645337
0.11443981638241
0.117901423988277
0.118924406531898
0.121014178682715
0.121802561252407
0.123374052879384
0.12156692172727
0.12419575551102
0.124465981068886
0.126008891487213
0.12630966504989
0.124869774092612
0.125553865754295
0.125690343975506
0.123085765438314
0.123275772574579
0.124531018339989
0.12208934462547
0.122219182675901
0.123525864383893
0.124354164284778
0.127217528130483
0.1262320734907
0.130255920482035
0.131228037334194
0.132903880074574
0.136036117508291
0.139800818136636
0.141345020772856
0.145272258092122
0.146995927516794
0.14934004343328
0.151982298064301
0.155034829618828
0.154963253111625
0.159826407960919
0.160624498561126
0.161355387891528
0.164916261738408
0.166994348149253
0.170401995164703
0.173409381737015
0.176423128492754
0.177958421513578
0.180830417236495
0.184581553644901
0.187565306095998
0.189755651194064
0.192286359518287
0.194548837878952
0.195857541865435
0.19658591172229
0.198096856263087
0.201375444346974
0.200243799647884
0.2032486134217
0.202541298259433
0.204833129509244
0.203669140096438
0.204925998716
0.204294533633345
0.202758133794437
0.203304909681108
0.202164357029277
0.200182185606395
0.199861236080638
0.199174944900502
0.197329799369522
0.195966512751472
0.196173408686125
0.194248122048021
0.193659567957897
0.192958592011123
0.193646515008423
0.194290132512555
0.199087643232575
0.198087111013155
0.196465474471142
0.19772258196901
0.198703708449735
0.20040469485268
0.201754736146675
0.203024390312425
0.204215780298621
0.202106442643334
0.203113012887197
0.203903926367877
0.203981559073178
0.205134622206057
0.203516728373016
0.201287937274114
0.199091303409371
0.200177308175886
0.199990537227512
0.198026755407556
0.196110910024591
0.19833750206021
0.20549257430564
0.212258345282791
0.201818681777247
0.198848520237872
0.197533031439744
0.191281632715134
0.189893470844148
0.189968571127131
0.186045241538486
0.185714775500007
0.180598471284306
0.179371443374719
0.180112238434281
0.176504739001694
0.175236030519127
0.172241307303509
0.170094957781517
0.167601619381989
0.162679770517543
0.15779968149739
0.155436480129895
0.14938707752669
0.146440616555144
0.14119472746216
0.13486147798109
0.130935772873976
0.123824324472934
0.121998604115367
0.115433063943247
0.112714024020989
0.106990494213056
0.106941138710771
0.103826116785768
0.0991274454363182
0.0977420106952686
0.0956352170288623
0.0926594112759307
0.0957392717813556
0.0907752926865233
0.0906543170012489
0.0915634853460574
0.0908822136526595
0.0889493509387975
0.0867755471792937
0.0864191053048885
0.0832144986020597
0.0834856383332496
0.081256127627838
0.0819209521866799
0.0798757886730274
0.076378824475238
0.0764688755824855
0.074725876785259
0.0710008103287505
0.0692293887270592
0.0662924403019974
0.0670590164061866
0.0633610265231517
0.0608486859572213
0.0576856336856177
0.05632726730639
0.056644427189857
0.0533204851819921
0.0501884627370983
0.0453590568880234
0.0469822142227277
0.0423445857319959
0.0413948803212274
0.0415426890936317
0.0376326748280087
0.0348531480869711
0.0356827023502703
0.036394054225128
0.0355181480567639
0.0325920613744719
0.0312742819786648
0.0328605944012537
0.0301380497504071
0.0298240785631533
0.0300734593165133
0.0309209515832997
0.0312528867561276
0.0306807066384288
0.0291836733472307
0.0304452593645912
0.03164177656605
0.0306236474024665
0.0284672397927357
0.0294749987615016
0.0302726727796943
0.0294873601331484
0.0304001270988627
0.0345611334042908
0.0284451836081255
0.0292976051521939
0.0319436691880036
0.0297212679098865
0.029832360401226
0.0299458313987052
0.0326544290012318
0.0312004116248898
0.0295282576106428
0.0291410276379626
0.0297895519842184
0.0283387450191249
0.0300119219382115
0.0284601100014247
0.029530332973834
0.0284839803239641
0.0315749126852176
0.0311107288020167
0.0285505295553301
0.0255537937079155
0.0282208088671439
0.0317442414170139
0.0297675475494163
0.030233215990027
0.0341230581432015
0.0312187146158088
0.0316602383617621
0.032157925515428
0.0342974626208784
0.0331639791185479
0.0276986585510297
0.0328588861099529
0.0330529974785483
0.0314383909276088
0.0351794104777665
0.0329715113896425
0.0374257614605674
0.0345896943251078
0.0354303095091196
0.032136881009072
0.0339348897922209
0.0354312436077173
0.0371549414678049
0.0333460843662746
0.0387590057284457
0.0347994380203215
0.0390166343933215
0.0371989983051888
0.0392512953031931
0.0386921840595129
0.0379187269240239
0.0407175985739207
0.0410773316637844
0.0399210989582596
0.0449560683027838
0.0427924336618134
0.0449617238046119
0.0482086470232406
0.0459029825470214
0.0436619921675099
0.045343595400128
0.0450424108715847
0.04340836262697
0.042006749077881
0.0401771589672089
0.0386908365250495
0.0389923986818674
0.0387971407548055
0.0385390078180742
0.0373456028046394
0.0379757263099053
0.0387624602335871
0.0395276742541935
0.0381023433397319
0.0372743022219102
0.0396556942345933
0.0396782529055825
0.0375870431560139
0.0411592112771445
0.0362033892101375
0.0381339278110494
0.035477153137912
0.034653853017489
0.0342472076069902
0.0381253100160886
0.0361749697638921
0.0343361254438676
0.0321605295618111
0.0377331258773803
0.0361628559685109
0.039030143505746
0.0337498215585026
0.0356297424613333
0.0334973712613311
0.0319166378300183
0.0345855209276958
0.0310447099016125
0.0279683559453444
0.0331985095135266
0.0283155477922827
0.030743523755479
0.0336546161434467
0.032706292184452
0.0321353487534697
0.0298663042764488
0.0329378487305019
0.0346058149437695
0.0343850223705487
0.0369377666446005
0.0334329358181809
0.0351853500273797
0.0361122287929793
0.0274911892988443
0.0285570535936598
0.03110206609375
0.0305497241011072
0.0322500230979431
0.0255861920308967
0.0328166014622082
0.0296462151000299
0.0286567486843832
0.0254497998355434
0.0307627473256971
0.031391030506674
0.026215516382999
0.0245133506283602
0.0312122223243815
0.0267392092021662
0.0296084893520481
0.0229578449908706
0.0240077704442393
0.0300351620341681
0.0324854716822011
0.027350383212679
0.0262480214156425
0.0268948467995447
0.0318443140131564
0.0271425412428413
0.029799958976073
0.0358266679405308
0.0398550084916216
0.0349108501333191
0.0303858016436788
0.0251093814002271
0.0316598414929933
0.0297384062414879
0.0295747008197427
0.0356483247562288
0.0350793940404435
0.0317724151915624
0.0370084054189577
0.0335716040666038
0.038930362131496
0.035828205505341
0.0333229942392664
0.0409263562410841
0.0451329844910026
0.0390911765315715
0.0370963870080926
0.0277613915623922
0.0438246765400866
0.0375235806039512
0.0349900619058817
0.0400169824641304
0.0438665732576952
0.0394754250515212
0.0527995005513817
0.0448702522657728
0.0465254614236649
0.0446614341370803
0.0497014894038877
0.0478518323368299
0.0506600123108062
0.0558256538148127
0.0537424945380897
0.0513173833006581
0.0661332822205165
0.0653067395446654
0.0471102106781927
0.0437088910730825
0.0602485258456093
0.0511341874218949
0.0617889443500433
0.0520974911570579
0.0622515483697781
0.0477070831693824
0.0549677866854323
0.047223724113903
0.0510505067039093
0.048188277350724
0.0538821228578675
0.0542242679387005
0.0599833473882017
0.0383164122783984
0.0504736976482225
0.0578029931217918
0.0379113491614867
0.047276471847919
0.0617502796515141
0.0416235524408412
0.047416196144329
0.0382159388731076
0.0477409225156635
0.0510740965247131
0.0455447095733689
0.0413068878248021
0.0588461464772684
0.0434789850932366
0.0448262362080086
0.0501655838367607
0.0530489648050277
0.0376251246700933
0.0465141219099421
0.0437712044860167
0.0539296280409296
0.050220720960295
0.0397408678430181
0.0465263487348496
0.0498073779248387
0.0384224350284848
0.0436150353652689
0.0393932403548321
0.0554034027523936
0.0461240616243271
0.041448669612113
0.0460540246055011
0.0568993052745509
0.0530259249689343
0.0544490835994984
0.0557081500467306
0.0508572735153857
0.0488361334661772
0.0561999424233039
0.0315704566923569
0.0410429012944407
0.0341240007857662
0.0487337907346755
0.0552840111742743
0.0719206820778339
0.0457814481882289
0.0635240266913189
0.0644014105865677
0.0699272896853164
0.055797784147434
0.0453391066021857
0.0558587870115624
0.0588405410249751
0.0408243953916912
0.0748602807517989
0.085143804363828
0.0611256120061463
0.0310070366117272
0.0536791897715034
0.0780813814063624
0.0577951091556852
0.0589371043400676
0.0556087032362413
0.0402753815688856
0.0761425614767179
0.0551503493520352
0.0948607182767555
0.0739794139832652
0.061289678321957
0.0498631679270131
0.0825793112592993
0.0517504122274416
0.0682405039072722
0.0683223578046316
0.0891809874232123
0.0654361357668805
0.0907412581439775
0.0645438592243783
0.056547748659468
0.0539370535464495
0.0716013307984896
0.0459967156332829
0.049589138898992
0.0881604271877704
0.0596037152753964
0.0599190827805659
0.0762739207012986
0.0548921508304595
0.0851974520679235
0.057797074817738
0.077570311462466
0.044036585491543
0.0589537770742369
0.0597583501691046
0.0939393880311727
0.0640460832807927
0.0734699307997458
0.0601584557983566
0.011227371418745
0.0182542164882651
0.0164922186444633
0.0453630331238994
0.102819620486404
0.0692542511580146
0.0945979664131862
0.0416266717538044
0.135003822113356
0.0429241092609017
0.063183590266993
0.0373522090918012
0.00557099134031055
0.013845701025444
0.133858194065707
0.056565943088868
0.0857803945090976
0.00886240967646011
0.0798808290598542
0.0649541314775775
0.203389402696331
0.161338469925912
0.154261872446273
-0.0581139059881075
0.0806750374236404
0.0485488462613211
0.153451101509067
0.0831830974815381
