3596
4000.36533379555
650.420452594757
1
2
2
0.0800374670451408
0.0803073777692463
0.079912015460963
0.0871706589676349
0.0720494464785896
0.0838959144619554
0.0681452182282929
0.0817191262221235
0.0709898608134673
0.0886616601291442
0.0761583336598141
0.0867974077693822
0.0761838426161052
0.0874981969766139
0.0737698404249199
0.0835022609095045
0.069780339379561
0.0813664538334626
0.0721779953548934
0.0817896395309365
0.0759276504462319
0.0837056276061477
0.0757595756438149
0.0871781443906732
0.0760426003099283
0.0951735090005054
0.0776693563841436
0.092252034834046
0.0761353128592122
0.0820482886829755
0.0734241296040201
0.0847933390684297
0.0766507976057669
0.0891578014744488
0.0777275908784561
0.0801453100277001
0.0716361993539777
0.0831565658116468
0.0748918912285024
0.0901886633447071
0.0763627832461458
0.0869035511090769
0.0773008970774878
0.0906039473260057
0.0771224228054941
0.0869085252286869
0.0803828451670482
0.0865756312595995
0.0813185615519961
0.0832816152219581
0.0735542857231108
0.0879205218439604
0.0864166783105244
0.0914750451513681
0.0829513397602333
0.108200811045142
0.0839388622544336
0.0872256127870764
0.081003419293792
0.0853423742194488
0.0900645282435285
0.0926580344055741
0.0760284155663295
0.0934795019646811
0.0763619324110252
0.0857284971348732
0.0643305045127359
0.08671819938065
0.0760343131840504
0.0871093545658743
0.0825577689317434
0.0969181824755236
0.0945899447314297
0.0886099345238636
0.0753174993841062
0.0963373685750604
0.08336721024776
0.0815627007858875
0.0803919967661954
0.0990874687995952
0.0748896056102128
0.0940774500291658
0.0737686878455037
0.0919073796897411
0.0855611987883277
0.0922542998726271
0.0749669627505484
0.10062526036804
0.101422260361587
0.0833993664876562
0.0725652975369455
0.0902312698903897
0.0691106442402644
0.0813058951431544
0.0766340968060185
0.0851681614656289
0.0683762288511411
0.0852358222824008
0.0807026290925391
0.0833839989861876
0.100121550729606
0.105112921458563
0.104531448429283
0.090644252793236
0.109035905321043
0.0892199370688301
0.0952887450849266
0.134043050994525
0.0766298206370521
0.0929656935235872
0.0780770710839173
0.0917659546365801
0.0772812409005039
0.0956036771230314
0.0900499690122609
0.11409314621415
0.0803851397383353
0.0802001983975356
0.0824591853632017
0.0822675576568191
0.0805869560053447
0.12667341811908
0.106550971678444
0.084878397424144
0.0897228021715475
0.0796210969046701
0.0998259377410504
0.118830310092212
0.0872713398224636
0.0752552810105297
0.0768917027200792
0.078163442841505
0.0780415338054293
0.0948364679859457
0.109836468602798
0.0863027883923856
0.0907928451918755
0.104141353112735
0.113494399713112
0.115713108763409
0.0744826635785269
0.0801975860884772
0.0799661133300542
0.103472301664104
0.104190274669121
0.0872948253092009
0.080289080774597
0.106557922887369
0.0821558676543347
0.0751312085170654
0.0828919789316877
0.0918901015849905
0.0892856528381747
0.0865171753649839
0.0944737916935936
0.131857815042646
0.128101187931163
0.0961229695401752
0.113707929101258
0.0772638073638037
0.0963530683318261
0.0831940895289328
0.076413600770878
0.0790757644187241
0.0789853907703052
0.0902561163380204
0.0986450647413174
0.0976217215976225
0.0772982237363474
0.106938120511668
0.0914133814117323
0.103998490790102
0.096596576064417
0.119177496260791
0.082443910788701
0.0950481614436779
0.109370048953063
0.0849061104260521
0.077446152858069
0.107028803305083
0.0956058489395438
0.0745559187537714
0.0826308569474428
0.0815608253302438
0.0908809956787185
0.102341089450484
0.0846783289721231
0.0842871317393878
0.0832833643922077
0.0787933757328111
0.112136177423895
0.119216180168869
0.0959176357098103
0.0784660145514198
0.0860865241175319
0.0939070118954885
0.115653448713894
0.0879049353331056
0.0749616057149736
0.0810522165862511
0.0751177333901161
0.0830899462162538
0.0786462776217726
0.0768488866749846
0.0860733556656575
0.0988697189178227
0.107255019075509
0.0867057166696842
0.073981961911283
0.0830190536728243
0.0937762395822156
0.111137758698901
0.12069810015216
0.0907914571546631
0.0741525163738147
0.0872603858071642
0.0831580863078562
0.102195941552982
0.0896417399093644
0.0822599735713701
0.0743156854237946
0.0815547057811446
0.0786285016721618
0.0766745237884788
0.0772271952518362
0.0820598212367867
0.0767674504087934
0.0846680057557558
0.0797887290336349
0.0873533087532903
0.08568491252247
0.0815609453166588
0.0681463389190676
0.0796366388460147
0.082555498251689
0.0982583455220842
0.0898723388830619
0.0777289301567456
0.0778993549057878
0.0769196039888303
0.0765641699221774
0.0712315644732984
0.0779039379859148
0.0778574448823229
0.0805001449222714
0.0908979400515475
0.109349010765382
0.0872402278094729
0.082192174621746
0.0863190234759163
0.0893560086560775
0.0855348931418087
0.0738425146062614
0.087810980445497
0.0772181270060212
0.0876517202977703
0.0854570083159846
0.109061278656731
0.0860372092023502
0.0938206605077067
0.0906632627708348
0.0897572638192968
0.083781983188523
0.104034993934021
0.0986658683242718
0.131366780425971
0.0994775940605925
0.114722602346832
0.124952983600936
0.102995152239174
0.0801746963962108
0.10079344012459
0.0954699562473979
0.149189374671566
0.0933742854341191
0.0965485098263766
0.0941098404666051
0.0995503690490305
0.0866149326370355
0.098467875046193
0.0992151336241648
0.10799350526068
0.13498322932968
0.138588130044115
0.121474155385611
0.0990027077271966
0.115562030420703
0.10914389233336
0.0806052351743815
0.0886948662880645
0.082758902658512
0.100633062546505
0.102318279851277
0.110382140629473
0.0978409470993477
0.103323780328381
0.094780195022367
0.11618719708274
0.0848090957704835
0.0967651961741395
0.0985161104467143
0.109375036083457
0.0924396719151028
0.0960430784736415
0.0951773708680782
0.106474214566798
0.101548392247668
0.118070160392308
0.117324417634579
0.114716691887563
0.110439711664884
0.119678448854428
0.0880843362912167
0.099897842652956
0.0978352211045485
0.106847358559501
0.10029469632939
0.109778379068829
0.112201494531431
0.134233542320911
0.108000781779321
0.106750428263468
0.109478920437515
0.109776894626733
0.110958430201434
0.11358666230266
0.112350743233528
0.116997524678638
0.112204000030794
0.127256620654133
0.135549998034808
0.137934145434169
0.130460771631012
0.153037598287589
0.139138366803344
0.125845845538021
0.133179003767589
0.135543825106646
0.136421143257204
0.131353476769981
0.135322847762897
0.149608055036913
0.149955653187052
0.159874062360898
0.150208822934612
0.163108438351229
0.18914245280205
0.214090602247226
0.191029820128282
0.163198999026534
0.172033701486498
0.188544176450506
0.203768689886408
0.217246758304234
0.189508554900369
0.202731681801482
0.180196643986817
0.192852834767676
0.184557661456699
0.197928092285773
0.197961494573448
0.205064546566243
0.201875953295301
0.215503235678852
0.22235428934016
0.221509560991737
0.233093417088024
0.259104042701965
0.256064219255832
0.232606778384686
0.230393282684558
0.251361329529551
0.261961656563816
0.294773376047425
0.311801324779249
0.299200816972892
0.298362588422604
0.305353387872361
0.314114362816922
0.286559000318241
0.284030439304113
0.286512342305288
0.297858374087868
0.308011429418575
0.307528037779982
0.307549227111271
0.317293347139286
0.323144213014208
0.324803437287774
0.331342395642159
0.34240592557955
0.350014014056351
0.358098090083064
0.363566725190632
0.358399428459407
0.3717413804293
0.420928743730768
0.46323407685346
0.394465605825171
0.390895445410341
0.384384698015757
0.380783840314969
0.373319608280895
0.397773859288869
0.393114675729822
0.412352782734101
0.433280172259457
0.468347225885835
0.439694553812747
0.445451649475324
0.454229040264898
0.44168308982677
0.453899208128862
0.460413727776605
0.486344279772479
0.492769679625751
0.453756865333754
0.473434797412033
0.491540940645617
0.485201735270447
0.491420901722744
0.498155110948772
0.482860769187118
0.489003592995309
0.483340178223424
0.513448795757094
0.521760637432455
0.515973411278223
0.527615269676568
0.535541644484965
0.534436644309474
0.529251631062257
0.545337644858095
0.57481014817067
0.554642264112384
0.536810349203582
0.563095305023574
0.568536174439241
0.560115361623566
0.572692205610293
0.583856437886772
0.603619984551472
0.623082219871305
0.643656722993018
0.58450695191033
0.587318888170393
0.610226512880189
0.615023344520449
0.606931225145713
0.618481318135819
0.627156310758589
0.662435558812873
0.664249640272396
0.655620571116122
0.670453304964247
0.64311149798514
0.648619995850006
0.673444937314064
0.670067897103904
0.691454992418124
0.692299180429121
0.696342946357404
0.723246820818862
0.727929026239859
0.807179546214339
0.786608003451871
0.733973502129117
0.749246094258116
0.721849892201442
0.734558630362868
0.746772932564188
0.746784791830957
0.778550209518411
0.747402591704871
0.767329305728989
0.758254816212855
0.764092587390138
0.765191584554656
0.78049326470254
0.758915649224719
0.803382216312244
0.777390375383053
0.812020412720474
0.791200667925969
0.778305175597552
0.819133088689161
0.830332552831096
0.856836349872793
0.866991685074257
0.828550581984901
0.84948790018382
0.855191864387291
0.881465339520149
0.840646641477064
0.870610080258965
0.900404307223656
0.882398549324111
0.93231770313448
0.981788542834451
0.876294367828384
0.844720711498406
0.892701929170943
0.939185587888932
0.91133733845482
0.938716680725657
0.939496128992012
0.983328753145724
0.967578094360197
0.975971268835923
0.924903664564893
0.939572053177935
0.959665387210555
0.986929342878129
0.946046762453016
0.964192759296831
0.976125588069536
1.01363704857423
0.9806910989317
1.01538361454712
1.03900837567819
1.00826929818262
0.973312414564616
1.03155256541211
1.03296003416438
1.03870187620857
1.01199590714507
1.13346067942981
1.06626493088032
1.05563699672223
1.05906338784651
1.01615192504858
1.01005723608255
1.07176788341456
1.05629511650933
1.17933420514733
1.12899338196548
1.13968147920427
1.09734121187212
1.09800242984708
1.10782371230139
1.1092886215685
1.10310356488403
1.18453762594065
1.13342951703086
1.18280035280617
1.10048749196194
1.21217095867937
1.19274323706884
1.17859914267512
1.07126505463198
1.16454441677101
1.17512706575975
1.20793729565584
1.15910702134577
1.21486838251739
1.20920449000801
1.16760539403155
1.15503427061839
1.27992513282578
1.1689359150649
1.31043022419169
1.19007793923117
1.39345493385419
1.22684789213113
1.11820488333891
1.24742441017441
1.42518765506128
1.1973360780564
1.17715875335731
1.2188802122754
1.27165721095911
1.2131988046558
1.35468691419398
1.35294684519596
1.27944096187994
1.19683141135567
1.49551589143273
1.31756582758051
1.30106214278438
1.40985693915863
1.43565860907211
1.36080399055765
1.30734745046931
1.32945849972638
1.34296886008164
1.31873743709246
1.48105036382462
1.33518449578029
1.41459872585754
1.35500363504584
1.47791384255641
1.39822001381953
1.46578387777975
1.37579166902629
1.35037371022529
1.33220759402907
1.49498576489815
1.26517724657292
1.39419287116095
1.39396424153035
1.37012068393865
1.41197057193755
1.45221070280592
1.30557756786532
1.5081766150074
1.498504200196
1.46937735253475
1.46208397736718
1.45417981449923
1.40771714102989
1.57759207640673
1.50239399534678
1.65239365847968
1.44111462008572
1.50764056484004
1.47360057569755
1.84796629724951
1.49614963773698
1.50445263859935
1.44479901389996
1.60016606612919
1.40717455819143
1.73746270736361
1.51105224530375
1.46934943004388
1.4679845278395
1.59790299050097
1.48123980690264
1.69252147273015
1.58529446027489
1.71612196934092
1.50384482571681
1.67215397411338
1.50168524493688
1.96388426670068
1.61891803447806
1.61632866669557
1.63928328584964
1.59040226656391
1.43020693082249
1.42099320629467
1.48737841646241
1.62427605532568
1.58675895057691
2.34850632809894
1.54113429450037
1.78817341175811
1.62124109980817
2.0371659036617
1.73054204804821
1.6334089054038
1.57311126703877
1.97539229934517
1.5595845149269
1.63172045209228
1.56131757745648
1.93540265505047
1.60017744181367
1.70432212719757
1.59756508682888
1.59789364696288
1.6908946807665
1.91667815536946
1.57421061406628
1.79620058671962
1.80970585297152
1.69635162735849
1.75888368958947
2.07264985846959
1.66995902721161
1.71714304935749
1.5265547470402
2.9795353850055
1.79969276383882
1.65624216802051
1.55935686475124
1.79827065542773
1.48610524128637
1.62479904046994
1.5988055850616
1.66626391076966
1.596049141578
1.91164735484519
2.04286272890158
1.66833620526957
1.59836274509167
1.91083961712181
1.70671308297488
1.74818403326247
1.9867157874899
2.01276943200288
1.76307512653483
1.82922282458141
1.67552823949456
1.56567064374577
1.5504866163677
1.82302082758368
1.63367378325256
1.913906857154
1.67007158232863
1.98637168776416
1.69843789864907
1.94943166372329
1.62315116085396
1.83845784673195
1.81087480219421
1.78973193551161
1.6031258048262
1.73132283695377
1.57696258718532
1.86862759891086
1.67858239963027
2.07752485800781
1.67140910969733
2.01704495146029
1.95865009581651
1.94139518759403
1.67366361818302
1.83283341331015
1.7103655551837
1.91549986524599
1.70607371755617
1.66060657611222
1.80457179676734
1.82442569365509
1.66174163796366
1.96767789271068
1.81075970230141
1.65755609692449
1.61553219160592
1.94469933880502
1.63260328487069
1.87189937001995
1.7325554120941
1.94958290655354
1.70586118417465
1.88156727747646
1.73057472425864
1.88807339325856
1.65975314322854
1.79231740315061
1.77638502242041
1.87120340576437
1.62613513364498
1.75818458121229
1.6114441155193
1.86139138436963
1.68728869508349
1.84223653794845
1.67865272909569
1.79914423159465
1.98086588647211
2.10213969649894
1.69214571659657
1.93853291576056
1.79776689696826
2.15195137794735
1.75677618840512
1.83638035748044
1.83709365742901
2.12184022285854
1.80455291324132
1.75130697942708
1.83485639862731
1.83171349298255
1.70122577379966
1.89592836442367
1.6893024790894
1.74758318249679
1.69882702297048
1.70067023470056
1.90380683633302
1.87951315758126
1.59073777829311
1.90862306269683
1.68506131522031
2.17840101143256
1.93260616678971
1.94685810963357
1.76873800268144
1.84739763822185
1.63201935024795
1.73228926452964
1.73080011309987
1.97300235215581
1.71244554200157
1.74231706596382
1.59164016545606
1.89282730229556
1.6288373892473
1.93070730634746
2.15418136196348
2.20887350016313
1.51973757362995
1.88581378588749
1.71982252568561
2.00453046164214
1.76372339983547
1.85545338907543
1.73316653267332
1.80893521519258
1.83794817072218
1.82429283518479
1.8861692428985
2.16004240441144
1.58939278992659
1.73348595264811
1.63506489661208
1.71942002614239
1.77557057496439
1.78093971484955
1.65422509786842
1.89804735414192
1.71961061171411
1.78644470811619
1.66001457691227
1.75453419865627
1.63865929596747
1.84460239989768
1.61804884930039
1.81907206187928
1.57450919395147
1.87581070611378
1.67823526122267
1.98341955663061
1.66471948495153
1.66443346705133
1.55966625579529
1.7651427786208
1.82423574864498
1.89242378959046
1.59538118558984
1.56259483511758
1.62925835258352
1.80014120697136
1.58052986964353
1.76019999326551
1.65813363313783
1.81101601986015
1.69902356239458
1.78125119870031
1.78122382234674
1.62879144978076
1.56191430838545
1.70757227705339
1.68007482146713
1.75371978179621
1.63728015470449
1.80891439641136
1.68654987879594
1.57281141121811
1.59455473316015
1.60520089852158
1.70082406740299
1.71091477400028
1.74111708027242
1.70068662069112
1.50826170954806
1.56164391302533
1.50148108707017
1.6429164177585
1.65175140673751
1.70032609087903
1.4819431452186
1.70679941010857
1.51512432666417
1.59589494937126
1.43716978884682
1.80885801863841
1.4729093083229
1.67478672164497
1.51467115372347
1.74554525485616
1.59252489682047
1.58841793829738
1.54019374139295
1.68811111231663
1.63162980936015
1.58585174864763
1.43438975084581
1.65601602094859
1.4236213294996
1.61941469571047
1.47180026109217
1.62183753406492
1.51244847804948
1.51310868899343
1.50243935926283
1.46958710955565
1.45325839032998
1.51064408457998
1.42482588748638
1.47950292787034
1.42695916418826
1.4465174113345
1.40669634789126
1.46151651114558
1.36262145290521
1.49458156161503
1.34582588720518
1.44053809526064
1.37911539177967
1.46449778951846
1.40743636581967
1.43839702677444
1.3364333968094
1.3531317894225
1.37403032238818
1.38746147732628
1.3466583162837
1.43192182856569
1.37317727514349
1.37891342183275
1.3270404665903
1.42038436944604
1.28427070472818
1.37500251372349
1.30661323013032
1.34565995723374
1.23297243819046
1.26716991917888
1.23836171805203
1.30553306857932
1.22345877645357
1.27825767662847
1.2948407258479
1.34153286600781
1.24126062360229
1.27326949498509
1.17727161761509
1.23413004525488
1.23163061480218
1.26610570038939
1.15172379620313
1.21097145310665
1.22464059699721
1.21112610563236
1.14899544646924
1.21756747422405
1.13989583875862
1.17158192283616
1.13011567608269
1.14312450997536
1.10661611130418
1.18444876197474
1.0673534920545
1.13405307621026
1.09734889933543
1.15032609236323
1.11526870302724
1.11674421089366
1.05625665662147
1.12114528797612
1.04636501594787
1.07686743043451
1.03774302031456
1.10395759896762
1.05870525908888
1.08023718250909
1.03247203955695
1.06670241802685
1.01364023901219
1.06154656516307
0.999801954692051
1.01334847270296
1.0034471986624
1.02322008646682
0.994992596404601
1.00408012726963
0.9772259481468
1.02136752283016
0.992623073788859
0.960198142646871
0.958915966287316
0.984007946957937
0.933579115750256
0.974337025448407
0.949784482964674
0.960413028502144
0.934887348647924
0.956515300197432
0.888968203174689
0.937001462148131
0.892465513003803
0.928767736811138
0.901557506924313
0.915185840213668
0.883477878930285
0.919440511176756
0.872950553703435
0.869370511307982
0.889331462839189
0.907323402772506
0.855763632729605
0.873560046447074
0.848916470786476
0.84920412639719
0.821893482739562
0.848706862194384
0.825996029005446
0.835967408723247
0.819949328613368
0.842657827597543
0.836167580138587
0.833038904279689
0.807954588655127
0.804340111947125
0.801743292265465
0.802552923421483
0.78690752965516
0.778576718895462
0.789414268715693
0.785669761536337
0.778492153024584
0.783472847714166
0.759556856060308
0.770850137714285
0.744256295404508
0.762266330439294
0.743029731386014
0.74709738958212
0.736442012225707
0.725402016060331
0.713199071610477
0.726492438701459
0.713587620670689
0.729921186252928
0.720563262999744
0.718943481148973
0.705487990818822
0.706463933419005
0.689823629815363
0.704313058821802
0.674314937922822
0.679099286463201
0.667176468276413
0.68649479054649
0.688722695482751
0.679571176307268
0.662142514048383
0.666921524083633
0.658072236125842
0.652931416742903
0.639043799335398
0.652063827113429
0.643658376496165
0.63530964394594
0.639074367281273
0.639239542317753
0.625305580988351
0.640580299987643
0.622986720380422
0.615297416155985
0.593433549224237
0.617097031438593
0.595753034826555
0.606849708410998
0.602315137026666
0.601294815943026
0.604129767759023
0.590115596744272
0.584632083934962
0.594427749647025
0.590201339843961
0.583567438371355
0.571256374511862
0.584066479671494
0.576230870929522
0.573296962250657
0.555309768111108
0.569061712109603
0.552839805825021
0.557194434776683
0.555411196014498
0.54794294420005
0.547312866140174
0.557366245225741
0.544173141212667
0.544019439753401
0.538744023232482
0.541929364125326
0.539540918839112
0.547257073201422
0.532550131856153
0.538979891304053
0.540315184671394
0.547851760679277
0.517358148749317
0.533754789381329
0.523927064507068
0.53597456499852
0.531619976021554
0.525996816515839
0.525289133966214
0.526941772805584
0.519371045109479
0.523677210578094
0.509791400534474
0.517467960412358
0.521134312706205
0.523675782062824
0.515532731263853
0.521436830853836
0.523672206134987
0.523009904157151
0.517282498926609
0.523804742198738
0.512935826897519
0.528809769604366
0.50707996579774
0.523846704933545
0.507435991897685
0.5313526919268
0.513172883496575
0.514770535474419
0.513202798407707
0.515707153852667
0.52098855335738
0.521505033355223
0.516505211458569
0.521921409535096
0.5241997656127
0.524688371422618
0.515873063573006
0.527367782200386
0.516958585585157
0.534806435262615
0.515194565440326
0.529870741397136
0.524383580769306
0.53070438093556
0.532762220443339
0.534235374020744
0.52629942330176
0.536466467061837
0.528349350314662
0.536611890915652
0.538733154700216
0.543305688086727
0.530057256973058
0.545415537409727
0.536520176948616
0.538139136833943
0.536214775959689
0.53772170390232
0.540672744778831
0.53428429656021
0.53331829646044
0.537602927905645
0.53464470521147
0.534177138070031
0.51884678112076
0.5399665680114
0.522841707351406
0.520808722325582
0.517337441741808
0.51643139680738
0.515330872268992
0.531349821709327
0.50903290768533
0.530893357224308
0.514119936230348
0.520788550974936
0.523226081208228
0.513279564997236
0.512521083009237
0.51000074810528
0.507661303248462
0.513278209242693
0.509456938609136
0.513919355045933
0.514767297413157
0.509459283495174
0.500518453976946
0.517668314862996
0.496448654771276
0.507567656941784
0.499634300640159
0.506369491748495
0.494493384703621
0.49643280073081
0.497048331802992
0.503267312336795
0.493180557799199
0.506543797391847
0.505390628892262
0.506570501272498
0.503871190069611
0.500523836160397
0.491085711662815
0.505141993572122
0.499115432776844
0.502432150720403
0.492272662605385
0.490055527610475
0.497417468739905
0.492792730618424
0.495211489654148
0.49579505650121
0.48417129506866
0.491562925592781
0.483979560304047
0.482631060420288
0.484575757638243
0.482214124471657
0.481758098773886
0.486822921988411
0.469528493231212
0.480707115732431
0.471333986589281
0.462932686320726
0.473164561292218
0.460209745045496
0.459288503808368
0.460907104651985
0.456568988671975
0.460211830237796
0.453993785507354
0.447555337616422
0.443079242241124
0.449878215869315
0.441661886782545
0.442138656552322
0.43325231787588
0.437939273884712
0.428639745646444
0.42583974315053
0.420368022109075
0.423709755847841
0.422700305135208
0.424609743781416
0.412360433424321
0.411678350169058
0.409427549111395
0.402852727360923
0.411354246476924
0.399169289265192
0.396423166987236
0.401416273847567
0.393455536681799
0.385306064634653
0.388268633955101
0.385822434967883
0.383090242236654
0.384192402980982
0.379982728203535
0.382086131344181
0.375140013150456
0.374059657125167
0.368127726753835
0.369628413517713
0.358227878894733
0.368724099230341
0.359459624209423
0.360362312345366
0.353464698663922
0.356443314911579
0.353219589503447
0.350137536424948
0.352257924043032
0.346305722029265
0.348744408737442
0.346978844097478
0.337461436292987
0.339107511553062
0.340593557388044
0.342099460110803
0.341926991123102
0.339946345934537
0.337394081836592
0.339199185204728
0.326374002423021
0.33444085136154
0.330193042684822
0.324203452276712
0.322163393626791
0.322858757146792
0.322637026991771
0.323070156693139
0.319919973502114
0.319461329901769
0.315483558081248
0.315794929854668
0.314694268385773
0.309445766090412
0.310639425576946
0.307066424551184
0.306911743446734
0.304479147579319
0.305325040219432
0.305368365688975
0.304678034571451
0.297423274134179
0.30358606568658
0.299709214647411
0.299245225141224
0.299089603350036
0.296634418031669
0.291843740819899
0.288137297738562
0.291747685155268
0.29214613624367
0.292059967908904
0.288723756271145
0.288848195041666
0.288467959990608
0.285185587484403
0.282827045657607
0.2800540898122
0.28214563260762
0.279171563562211
0.276108434813456
0.280104076544787
0.275870817924329
0.277329765885397
0.271358824887808
0.271443031191373
0.27530865492111
0.277997408183006
0.276158862561017
0.269988854854408
0.272144045107166
0.265428617782934
0.268885079732
0.270795662075853
0.268391855501929
0.268835294227704
0.26362705278472
0.263983685104921
0.26495610632797
0.261541529343304
0.259431686007108
0.264529157969386
0.259841039638722
0.256644470929722
0.258752047101772
0.258033386823126
0.257389018643887
0.258976456054377
0.251841228994917
0.258101524725048
0.253480477914874
0.254709087334808
0.251484579408233
0.254637055500918
0.247926770247523
0.24984443677499
0.251866822752206
0.248787870343602
0.243475198053412
0.25035368121069
0.246435498509484
0.244439444225361
0.245689833516169
0.251647949644044
0.246408204239596
0.246462162302277
0.242933177828957
0.245705302227347
0.241422215323146
0.242451517233107
0.243932322638328
0.245125489238671
0.241578593838721
0.238070136256187
0.23841817850599
0.239544604303821
0.240860135105563
0.234844514941855
0.237580657286984
0.236701678598198
0.237867980351128
0.236571589382337
0.235843094072937
0.236854580015506
0.233990526908404
0.234571358481834
0.23263566728287
0.234564955552475
0.229580270740958
0.230066252441741
0.22868146790221
0.23090652377873
0.233762439906477
0.228403213269614
0.226583948536824
0.22872485378075
0.226155646845168
0.221508421812389
0.224330249193965
0.223062868516965
0.221042295286219
0.224299309870879
0.222104841523425
0.222285189225584
0.219638801359954
0.21797307796815
0.218793973841602
0.222102267679544
0.214089370885407
0.214386303619175
0.216267936420967
0.216595668272944
0.212207299230913
0.212641839705633
0.210012498099214
0.21761679534272
0.213888537447642
0.210901114625141
0.208302191383578
0.210536379225691
0.20832472921078
0.20522185033475
0.204433602501501
0.206086411719255
0.202789288137603
0.202657737873828
0.202569976699947
0.205414478678879
0.204330384484321
0.20466233259386
0.203343297009576
0.20035715782428
0.198483952746205
0.197651434833092
0.195749011624454
0.199222256262457
0.200407908003417
0.200030358742106
0.19929469016034
0.19867641996132
0.196666336210057
0.190535206358807
0.190774230921945
0.191904300371141
0.191259307133359
0.190280165054539
0.190697989014111
0.190907382157684
0.183331317420273
0.186841768730781
0.187800071146359
0.183766648686042
0.184529223316819
0.181464346837059
0.184287928236577
0.182619629063221
0.184888662534863
0.183068846680467
0.179667309644207
0.179484538842968
0.17594702892102
0.180286729402083
0.179874744523574
0.174370122021386
0.172929003622434
0.174523981786502
0.173333449822487
0.173498157632628
0.170167924486145
0.17112538592302
0.170700572864765
0.170266547268051
0.167836316860086
0.167409847236494
0.167505829634167
0.164787249207202
0.168415402902903
0.167787569269552
0.166224825750792
0.166112095957053
0.161151337372111
0.164964539822107
0.163936770455218
0.161815617873344
0.163153336111097
0.16445242490285
0.161729968842422
0.159355854646545
0.158709779909358
0.161164738348796
0.160524907962957
0.157517182849571
0.155981634924488
0.156829664082813
0.157150486801773
0.154420950302804
0.152210866023972
0.151321190884941
0.155386964035373
0.157682750956508
0.154064670344785
0.155623757257046
0.15645543577861
0.152853514177915
0.151591342083244
0.152508589580774
0.153646532703159
0.152248418164001
0.156240777210555
0.151175141665299
0.146820494878521
0.150983143715051
0.150628828302372
0.14855964460262
0.14944480433594
0.150468191812626
0.146027080143915
0.147560972849424
0.147254965575944
0.145601856081969
0.144393017447323
0.144403013276773
0.14455769232271
0.146377060157245
0.144440604569813
0.146150324269358
0.142196027008575
0.143708352768113
0.145520909394238
0.145520764675501
0.142491711003316
0.145667731538001
0.144170335208588
0.139923076831227
0.143456479524822
0.145723520201819
0.142734776500119
0.137850179056585
0.141465374275924
0.141660139784168
0.139125908708468
0.140441400817088
0.143646530312574
0.140577680773266
0.143882532871602
0.140851096927809
0.141050907890036
0.141633783146518
0.141419455569396
0.139123970110976
0.14031860820611
0.139991168164318
0.139380234380458
0.139388896423853
0.141303473446999
0.136643979498253
0.141512935044638
0.139184029971788
0.137568739611168
0.134354607296123
0.138200617258806
0.136093207007722
0.137865159132061
0.13538257517585
0.136967237084015
0.138180615276489
0.13928300012433
0.135957413845176
0.136800650390179
0.136576006162386
0.136925821142736
0.139079989629482
0.136413284769095
0.137456387223279
0.134544183835208
0.132405204022391
0.134965068929812
0.137449638850589
0.136160512726334
0.134105159398753
0.134586790425786
0.136558481064752
0.135595089220774
0.134124286224686
0.135015561378529
0.134904054932768
0.13150418280717
0.131131728079271
0.137673977905789
0.131431724319472
0.131647454196005
0.130263625344499
0.132323558522388
0.134257784414788
0.132307045337451
0.130602149451305
0.132523470448788
0.131451516152021
0.130085764330986
0.12854393790158
0.132158044522842
0.132404105168079
0.130715738240508
0.128687065984078
0.128897882774277
0.129751345276645
0.131785760849522
0.130076028915342
0.131349541537896
0.130811479937946
0.131876854979959
0.129626660658066
0.131177140234491
0.129111289513379
0.132567388711634
0.12938296376034
0.128000160705702
0.128988083590272
0.131600417150617
0.130213941190589
0.130187002627372
0.129025006816952
0.128800537979679
0.128093111435326
0.130364679741094
0.128081401741446
0.130400640159026
0.1246905580842
0.127667388167562
0.125606548351135
0.126150563938147
0.127235902321861
0.129338067303112
0.128183431593233
0.126428393885083
0.12722629386134
0.127552446434839
0.125184495123526
0.127558849819148
0.12799415138331
0.125392024242254
0.12268221047577
0.125988224246122
0.124807263856519
0.125521275425768
0.123130264292818
0.126503909357597
0.121927947952969
0.123134674676958
0.122522679365388
0.124733003407551
0.121368406637232
0.120693212801494
0.124734380452986
0.127514372581454
0.121900503013538
0.12306029333328
0.121762518851978
0.125161510241349
0.120437813711281
0.122157807912659
0.120498102638302
0.119938339252876
0.118116987157744
0.124022910851086
0.121172083250496
0.121389442105525
0.121564932094969
0.121459749892725
0.118875015389131
0.120214519615191
0.117463436670919
0.120894297099314
0.116935932453195
0.122140868733399
0.117754394858025
0.117364764371442
0.116029344895181
0.120002949960995
0.117689666154349
0.120393100970522
0.117111581099267
0.119857775342957
0.117992804183332
0.119402486481253
0.117558191923904
0.120856941987566
0.114738924549102
0.115639033190172
0.117822279787499
0.121032779588893
0.11377778286702
0.119379856950167
0.11645883028971
0.119958525878138
0.119341497884315
0.118438940649535
0.116760136967159
0.119313727124331
0.115430769152875
0.119182394179775
0.116152644102488
0.118523676434984
0.114820643124815
0.11715438843963
0.113715126149859
0.116694792003516
0.117345846586234
0.119476729327377
0.114886156889807
0.115679818411728
0.116517360429182
0.119041939405901
0.115656927997165
0.119784074082541
0.11606490114371
0.117455883131939
0.114599598421144
0.117059674620636
0.114990928239518
0.117350994645329
0.116207592620002
0.11813728820182
0.112519387957507
0.115030705637885
0.114800156012416
0.118435072591304
0.116602865209816
0.117943059050677
0.117737735423677
0.118471709649509
0.112275418086306
0.116360288597925
0.11559784569609
0.119784417727749
0.115385825209883
0.118493247064376
0.116986358053036
0.118771888572166
0.114791617872577
0.118701300546523
0.116674601075174
0.117777183888124
0.115210115474778
0.120036555096451
0.11889301909046
0.121946784891326
0.116395544473404
0.120374881631073
0.117575332918063
0.12030297866014
0.118067190856065
0.11997809692227
0.120326625305229
0.123961260230432
0.117217492503853
0.119642037068376
0.116690677369727
0.117656661411872
0.108806348927358
0.116496644249338
0.110651362806929
0.115798527717915
0.109496619232037
0.112169593520468
0.108628087542096
0.110108109642825
0.109350401050081
0.113267202084956
0.104897996396269
0.11805635574219
0.109457801522579
0.109043162478402
0.108989311537013
0.115007293916153
0.105791957697989
0.117136721574918
0.110834876196079
0.119671829564091
0.111070901020741
0.12154243333855
0.114765961999794
0.125142692891527
0.114581489201973
0.117694438662945
0.114283509644025
0.118225577374484
0.113338662534482
0.114371946340228
0.110171899377417
0.116448718938132
0.112195185874779
0.114992285729997
0.113595528276457
0.111277525856463
0.111656677976114
0.113470698984149
0.119364360778118
0.111210753563145
0.12481987282633
0.11182792496459
0.127558262951925
0.105521510604976
0.130578875307159
0.105625554145689
0.14150461816793
0.0999528861653184
0.140024343731809
0.0921958544683109
0.148248757163669
0.0932506005318757
0.146492159643574
0.0927407177292031
0.15134254449842
0.102598534294157
0.147662240095389
0.110424799867302
0.143411885316854
0.112213496188183
0.131890051746143
0.122310968471911
0.124813813108324
0.130241855787155
0.123778066774645
0.129928890739714
0.123138498241637
0.131763578848402
0.125007575596846
0.127806733219657
0.126690971701147
0.127459287462849
0.130787702850525
0.126198374588438
0.133109190362941
0.126816687919708
0.129069770624258
0.128644198139617
0.128602831108581
0.129280466670108
0.126550635051635
0.12764812258299
0.130223212265322
0.127944260396379
0.129561518828521
0.130889288645075
0.12854080416746
0.128741187881865
0.129924622719436
0.12983132366485
0.130043246909733
0.13006427790628
0.131837531818166
0.133491313601037
0.133653990674023
0.129044242541017
0.132262597035313
0.134253033020179
0.134060856205162
0.132931303758944
0.132421802398913
0.133383479650314
0.133018894119245
0.135193159916541
0.133149846029616
0.13506153416564
0.134380921603806
0.134728019496546
0.133820391414183
0.135565245642548
0.135551038822177
0.134771189104386
0.134850323050781
0.136736122356002
0.136730982709209
0.136927844884578
0.136903227119673
0.138471618370715
0.138346896151919
0.137352123008596
0.13699729113893
0.140089776700241
0.138612005855504
0.139967167615958
0.138994817003381
0.140031449266058
0.141145475770523
0.140867937916861
0.138855870794443
0.140911919717197
0.140413661620662
0.142049164829686
0.140863011036744
0.142740393274958
0.140242668824257
0.142564691277222
0.142460207130122
0.14308682463943
0.141373481617214
0.142909558609799
0.142932727072972
0.144636893317174
0.144403319660784
0.145079936552794
0.145711350528901
0.147457988932269
0.14247889962929
0.14476176227502
0.144685624538739
0.146861683975119
0.146363238342238
0.145763672908912
0.146876898286315
0.147394275649778
0.145194366092768
0.149115588387961
0.145481864761401
0.148630718598002
0.148060362348114
0.150176203997347
0.147427812768991
0.151340885565506
0.150771920526354
0.149199027898334
0.150263116075445
0.153146698919068
0.151621231711574
0.151839522480066
0.148398802389625
0.15140144336593
0.150536817260687
0.152582098182794
0.151693242614917
0.153573070857697
0.151214169242552
0.154448809861463
0.155460552575776
0.156956687306695
0.155593149632564
0.156133210543329
0.154539423025279
0.157420508270514
0.157333718328387
0.157237842277975
0.155012862065737
0.157086753629299
0.156247312803653
0.157206593548659
0.157011574642029
0.156321291030461
0.156009654952179
0.160983660532478
0.159388652648204
0.160233094984448
0.159691174516505
0.161784795307855
0.158593828564191
0.160824537996887
0.15841307692867
0.157854278227185
0.157962859509895
0.161586962563005
0.159015771026034
0.163506457742142
0.158927847339243
0.160349206029989
0.161939284287002
0.165055713894454
0.161835498948607
0.163311944469164
0.162766503303663
0.163080580431354
0.161978374055316
0.164558702467348
0.164820596131197
0.165389523710388
0.163595305305075
0.16530686642431
0.162653483875294
0.166077785080522
0.164422535030368
0.165873949672848
0.166422146658123
0.16750541455607
0.16672725116795
0.167746389976346
0.164469339197805
0.166729989379307
0.169098965135653
0.167969134963666
0.166040340754017
0.170250537131716
0.166696174802581
0.169502311903115
0.167507045689607
0.170250795140153
0.166626027933819
0.170592208920271
0.16706243867684
0.168335249910164
0.166095648708293
0.167448147306512
0.16696317156682
0.170583308198724
0.16910454919978
0.167064414410571
0.166157466368728
0.170210060177124
0.170483148572258
0.170473653953599
0.166390255540829
0.169809492028311
0.169976836787508
0.169664932315452
0.16641942656429
0.168772068454069
0.170291687911742
0.165997242506095
0.165611745935515
0.170817184361684
0.165627774545204
0.167979764093958
0.167094545060899
0.169998780723689
0.167647353882747
0.171044284670984
0.168222036186764
0.170045814633501
0.16674058999571
0.167778578326366
0.165652374169868
0.167923613488363
0.165142037862866
0.16921978914376
0.167608266750566
0.170272606131937
0.167760326135466
0.165684357882199
0.164686429361062
0.168918227976842
0.169299717622007
0.169926955109514
0.166893171678499
0.169439229196405
0.16567845933445
0.169248588017748
0.166032370065534
0.165434047788177
0.165784928017928
0.168667849949953
0.165081981333302
0.164683715989386
0.163906489529498
0.166344125463783
0.164359402460205
0.164692717262378
0.163333258902163
0.164621861773835
0.163521805935289
0.166865572226485
0.161743475025257
0.164164990044978
0.1631295338569
0.165879688848426
0.165016513297225
0.165403023244522
0.160470222949718
0.163055996703857
0.162460775841259
0.163871961900016
0.160932773805693
0.164652717980725
0.162284023089028
0.165519013846676
0.161928910660287
0.161765840849988
0.159270613629189
0.164409674422753
0.161589579840944
0.162021026586023
0.159035143191941
0.161076133309688
0.160322609457175
0.163416669937163
0.159251455970068
0.16205852636391
0.160670725462023
0.164186330359754
0.160383449675388
0.160393786472805
0.155922549338882
0.161528841427883
0.157560801862683
0.156879977396855
0.156803412859782
0.157484799246312
0.154822174102385
0.158702264553743
0.157261946698451
0.15766159642745
0.156219439121445
0.157722503650774
0.153379393088838
0.157333859465952
0.153940459254099
0.155028986023759
0.152123166209296
0.155327447714368
0.15429640033663
0.1538405169078
0.152774515858359
0.156140724573704
0.151741071081442
0.153472147408053
0.150911763430263
0.15398878159701
0.150406814930055
0.150897549798893
0.148311526790783
0.151907765418659
0.150642206387572
0.151358069544074
0.146862316848867
0.150439755531793
0.146361135228052
0.148542088168709
0.145092777287894
0.146645548224453
0.145568781954903
0.149315900603523
0.144253838132729
0.146376508156239
0.144538023020821
0.144366886274204
0.1421050195679
0.146218277178803
0.141398864458213
0.149464139184164
0.145816809297924
0.145199572538065
0.139618267820511
0.143400876225088
0.139957698533719
0.143887425357055
0.140990492107403
0.140891147439165
0.137152959431327
0.141879769118343
0.137745709216564
0.140779766348676
0.136227648508786
0.138876616609674
0.135733126884796
0.138152935211263
0.134492847671349
0.139183555831963
0.13370526605332
0.136941176877628
0.134142228663457
0.13627650398861
0.133159001512465
0.135885013891142
0.131632136652306
0.134858926644258
0.139837206625246
0.144164500005554
0.13476477788692
0.134192782687061
0.137708514966401
0.136276150381952
0.131759561839614
0.132895655565462
0.129967239233587
0.132602935368359
0.131169779770109
0.132360648460983
0.130090105949024
0.130935677990367
0.12913692142488
0.127474114064585
0.127661172986513
0.131418255102837
0.129794628347583
0.131078875580843
0.127597628884789
0.130479209427739
0.126493412706411
0.13001118110794
0.12521029387107
0.126610857284145
0.131300002438768
0.138116830926335
0.129919489175169
0.127583664389245
0.126595689794286
0.126029596907141
0.123920889586812
0.124904318148625
0.122025563193154
0.125101422491071
0.12221425270523
0.124997782991114
0.123192627410497
0.124940023160289
0.121852839845866
0.124712168804011
0.12060138487925
0.123133320852745
0.122828874618564
0.121884459337523
0.117634010695465
0.12315900456141
0.120745654211709
0.123988073375234
0.122617087501542
0.122826536874449
0.11902831944493
0.132371405049652
0.129920877160223
0.125395272590365
0.116383626397746
0.12115748683286
0.116369436510562
0.118826730023939
0.118252333072624
0.12118210126645
0.11462430948595
0.120383551685172
0.11982262573855
0.11879165623204
0.116281623208643
0.11824931882602
0.1145945532875
0.120518097805097
0.114850997658408
0.118708288571921
0.115534505534542
0.117032261255438
0.125370034845204
0.131911989571404
0.117691810984236
0.119786310932015
0.113663810295925
0.125372038403843
0.126374604998514
0.123471584996644
0.112700087336576
0.121293145476615
0.112993809396479
0.118000492896263
0.114709336384159
0.117147027516139
0.117652353695095
0.121205930908691
0.115825880497128
0.119246938959978
0.115185067740649
0.112627602545145
0.112652825388603
0.120127633819328
0.114975505803134
0.1147303124119
0.113758674734812
0.116330162422574
0.110629329888615
0.117597592225913
0.111515402284955
0.115233293542865
0.115544374499466
0.120054510413505
0.111236574956088
0.113449848767157
0.114229072951844
0.115543805002627
0.122305755378946
0.126446296697941
0.114565507920985
0.115086748197061
0.114991162425297
0.114699334262061
0.11403249471589
0.113441550074734
0.111116226466543
0.113788703127794
0.110943480077064
0.114890967389136
0.111707373550045
0.115063746673091
0.111620590779165
0.113388668314991
0.110492244280145
0.114209503273413
0.10996719685727
0.114732877338573
0.110542102040437
0.121789709290741
0.127478781951206
0.136008717661946
0.124723237204346
0.123656540181847
0.1201799410348
0.114445682779734
0.112448715384382
0.11449106885884
0.112450664972151
0.114358173921644
0.114648267019611
0.11434048695714
0.114610766712965
0.116001568563108
0.112678297109273
0.112093464518383
0.109995735826661
0.113608468606492
0.11260644820078
0.115538635755072
0.113979267343447
0.110411174774731
0.115972444416412
0.121180109699272
0.120470706863868
0.11375105805943
0.125833848944988
0.147377083588261
0.131459611166071
0.123017360701393
0.1159460954454
0.119682499548442
0.113942618263295
0.119196181721098
0.114447849020076
0.121056880451127
0.117180960586718
0.1161374143941
0.115148203606971
0.120166896276796
0.112668635189713
0.119847146993052
0.131182356380212
0.142742927224122
0.124050967935301
0.119837531752378
0.114675993078235
0.137433573441161
0.13057477490205
0.124360735848078
0.119023117282962
0.122755373007098
0.115560539660246
0.121908943351343
0.117098528515639
0.122865497995608
0.123423133068398
0.123329098984902
0.118203678164524
0.122126377778898
0.119870816863599
0.126217121091364
0.125295352026013
0.139396114529389
0.128547165507146
0.123870449345293
0.124516468365987
0.128492664769228
0.121607131747203
0.125682356688238
0.119376336522321
0.128088112434158
0.135187590704089
0.139301516445612
0.132252083233755
0.145169797183799
0.129910168511635
0.128204299867119
0.130454168499012
0.141282660612777
0.131092643755745
0.130241039485954
0.152845049308507
0.148168254369094
0.148874915740835
0.139400572551018
0.136514765901571
0.133359972098536
0.131041484228449
0.129290553597283
0.140252088016483
0.149027661863158
0.136065655953876
0.135968712033891
0.13368388434582
0.153744649669782
0.145267124703031
0.140312429334632
0.137981147030778
0.136598153378898
0.147376050101929
0.154415846041731
0.137132193768695
0.15455087562762
0.161806832579526
0.179151416500812
0.156777337398139
0.145718782529896
0.151910164937335
0.173007455349455
0.150153120581792
0.148671701554884
0.145623294501118
0.149819526209763
0.147425857323145
0.169057865373691
0.168674106954045
0.156790232847816
0.153767311208844
0.159118507232761
0.16017572119467
0.177760338625807
0.16279765808753
0.159331386625484
0.160450816948093
0.164512759076034
0.173862239620171
0.207015719648926
0.176008040068547
0.193948558016596
0.187604979026888
0.191601535898002
0.179849792160427
0.186021176411675
0.177417326611142
0.198686803555959
0.192505783938884
0.182957464754694
0.182997956888627
0.212239451020938
0.198758511504754
0.196558013253571
0.187604365800054
0.19176908416826
0.200236624889011
0.249741041840962
0.238122232318272
0.228168416201496
0.201672843846598
0.221894159280214
0.227360981758189
0.217742215295797
0.210612273131328
0.216553648151168
0.215412478879948
0.222668503075159
0.224272835572639
0.236550879217887
0.227863188936934
0.235818049358268
0.23254239686492
0.247332786960337
0.270307245934417
0.303496136057759
0.270835268726579
0.276377503868695
0.288959255534369
0.281141144050279
0.266521334801171
0.272326659809233
0.276070948264302
0.295215593772495
0.282150619649776
0.286483330955733
0.292566448084422
0.326725583713211
0.313323135258692
0.327781523559347
0.323279180716125
0.32448074514083
0.326372453402546
0.369561935915633
0.460675394334921
0.366126107678599
0.359127846743282
0.376586871485064
0.38649153344095
0.429704799176219
0.384291184149687
0.393444457860994
0.396337667610276
0.404811796634564
0.418035893062901
0.435402367767651
0.43519926390821
0.461107812472775
0.445373319349745
0.463756511212204
0.492825641219483
0.57602027790566
0.5229215169043
0.511738935969117
0.501241891247472
0.540231254291184
0.540331452579383
0.540519499739386
0.546376269989075
0.555032886866481
0.580664163655875
0.617952407641672
0.583084139115261
0.596113539564557
0.618228532066673
0.649007940280951
0.618960859959136
0.681189520413765
0.667687834376107
0.664709973925733
0.658604336363107
0.669944278620424
0.673666952010744
0.699583480227708
0.7345309485228
0.730955543596654
0.703874039345378
0.727066000969864
0.736311418452803
0.75792667677934
0.756137417625576
0.768534291195266
0.770060875780494
0.843989803338168
0.804849067612435
0.992120411942696
0.823203905388581
0.800690168579255
0.79989899423126
0.839594452379696
0.853892301587897
0.878952675078944
0.904362849815732
0.892321364606
0.812370860683507
0.848957934665775
0.842745003770191
0.861016743886651
0.845618535582564
0.874026475173958
0.860015071146374
0.909022426837839
0.863472548633849
0.928285177624757
0.949004508148435
0.859945085972278
0.857633762324367
0.864584141913997
0.831772543413168
0.857718774737676
0.841580967333687
0.843913568741764
0.864839705493753
0.814802095815919
0.817169482119532
0.816936009598989
0.844536692195397
0.848851658415063
0.7971810025807
0.792779390544177
0.774672040512711
0.780496479967067
0.728501451083148
0.806424309714274
0.801368873305611
0.737505529512018
0.724455841122065
0.719174123223769
0.69920781797033
0.710027430148321
0.691811389562818
0.692227479476126
0.664258734465579
0.67633175104604
0.660708407211566
0.66427588709556
0.638227620742245
0.636818155141745
0.639706549620388
0.637547455390481
0.621757239622881
0.619069084681787
0.601252609599177
0.608962812577293
0.585691900733536
0.602725697610848
0.578890683632761
0.596250830999808
0.585868006342493
0.576515135794745
0.57726632670868
0.569158706086655
0.569704408261958
0.56831901252721
0.551970401218248
0.557054382879317
0.548382546376412
0.553289152551476
0.546648143021904
0.542578622701027
0.528182288905302
0.53966787372726
0.525764300370748
0.535793951918274
0.514561093198391
0.535002823001113
0.517337930698669
0.596600724047443
0.531042734746977
0.516568864067909
0.510274008215702
0.514139165638329
0.509534553623342
0.506474439665482
0.554044022951718
0.524547655748007
0.495310438547615
0.495428293731774
0.486339374041496
0.5083106800531
0.494437133349123
0.481851430645912
0.484190428630526
0.476837220846359
0.533176032691643
0.543003897179469
0.586476381125072
0.562022456354939
0.477881010887415
0.463086140919485
0.477954367703689
0.49450258884706
0.449516522255978
0.448942200576818
0.440264796568796
0.500776389800508
0.449542541920969
0.432989896986234
0.433143040362543
0.43228260723258
0.457499284452833
0.461327846382451
0.442934444936848
0.457447595576277
0.460536350031079
0.444283460116591
0.505924795975137
0.476666898059462
0.42555156284835
0.399583417479006
0.405316135336749
0.401186688337211
0.407301623971152
0.458292319261742
0.393542635107042
0.416558941951328
0.381967851175326
0.383321154088153
0.390401526838057
0.408923866169864
0.397302913647019
0.396427384451015
0.419539970666681
0.369711848154616
0.397689639700446
0.403026396712618
0.421687869371137
0.422031308416804
0.373864155447645
0.36880174461018
0.399247694620415
0.408385989910992
0.364739417514822
0.382001332823368
0.350927966980857
0.368798821053922
0.377620191909971
0.356757603025254
0.375919374781181
0.376013967300263
0.384410340606164
0.433137467316249
0.42138910198939
0.401387118212837
0.348068695924836
0.339494093634321
0.342807343254487
0.34310308015953
0.342928295863873
0.335485272294157
0.3737673728111
0.351509846360622
0.342652099579003
0.398491354631485
0.343704891276731
0.342011797981968
0.337901688576772
0.342441365932297
0.348718326823586
0.383007907158627
0.389651275258944
0.36847700321617
0.369118654161382
0.379127974389874
0.35176817057802
0.362913840667714
0.3558252338985
0.364151433954602
0.363279575540095
0.377856728214113
0.370488262604964
0.383016997739366
0.373322930372011
0.389665817130998
0.404565683537178
0.421744212166151
0.391331550622257
0.45380547421316
0.422083774514112
0.476270702108437
0.43039939313617
0.423159779428325
0.424704996177148
0.435746164514234
0.441294989232788
0.442991923264625
0.454999150087665
0.489685040067743
0.439419800194808
0.465459796853171
0.448684548844573
0.469080829876001
0.467953267660748
0.51304461809128
0.492770265462001
0.549441447645561
0.517949660496271
0.496044951793973
0.487957280571703
0.4803313668746
0.484089780817779
0.48738601003695
0.47422194363863
0.483338305933405
0.485490278070663
0.513757698106024
0.48309265082185
0.495415726282815
0.480705531836972
0.49660357878324
0.487746793853424
0.491342108254847
0.502736692551143
0.503416166686616
0.502345268896477
0.512498538726435
0.50680502154318
0.588310976508317
0.517936575184819
0.521903417528641
0.525990624270815
0.522583213150122
0.519977672490699
0.535647374220256
0.543541615450868
0.541481914597554
0.534011389758741
0.5451986994901
0.537146514459474
0.544469312582013
0.558837701459733
0.57245410199095
0.536004579512016
0.563439759860326
0.54524113940349
0.584234347020085
0.599450376641676
0.569809526456568
0.580511212838078
0.557914149142875
0.557072519042629
0.556599118155759
0.559385614480247
0.563742644991404
0.565456644355564
0.564989798079436
0.566470506166819
0.568304760563871
0.56094526448079
0.563058080394062
0.567312190624265
0.58684019934723
0.570968582983458
0.564974961762616
0.551371301711782
0.565081730587039
0.557125732683997
0.591645493684919
0.573354319372446
0.557107823250514
0.569136250595214
0.580268445802178
0.583473093153716
0.56868057105669
0.554341201152586
0.554033730281182
0.550871517136997
0.559619707565814
0.555392901626831
0.573927373560892
0.592459146167452
0.567070026351997
0.561748821420461
0.576096627749951
0.57520801466422
0.579677203207068
0.576990872740212
0.574492671321091
0.588474823068714
0.588748295232064
0.589786543210465
0.588718037510949
0.596434701931446
0.611366960763152
0.616996898750854
0.610015629724031
0.591070571266366
0.591790583913064
0.593314768326299
0.58356000696967
0.592918892134601
0.580880809261174
0.577980424975641
0.580503755601892
0.575260893786414
0.570191967741711
0.597320520262218
0.559663525929364
0.57143323793098
0.562132146428408
0.549656224230746
0.552031141412557
0.547363666095701
0.540923717729407
0.540337432548233
0.551818778747051
0.537828150340209
0.532504569347761
0.533954052701429
0.532931492954096
0.532233936222824
0.530212502166374
0.529489487662797
0.534428146482935
0.52274218050323
0.52660639976306
0.525275372323215
0.526472638003126
0.52537085553858
0.518918179916047
0.538170910535879
0.543969354415908
0.543747752862657
0.536236719198483
0.524061654760973
0.52686056203266
0.517507732599837
0.527102287353335
0.519737234365582
0.524480523583538
0.519510716986653
0.521979490561265
0.512383672225863
0.522726943536828
0.51755710817453
0.518021045247992
0.513272130759707
0.520067358242883
0.50932131403536
0.514148228462229
0.514569563969379
0.514258995890505
0.510995361279949
0.520326906914099
0.521318525841151
0.515600711893751
0.51139241647299
0.510327388109437
0.515324829895733
0.515451984929108
0.521512362149536
0.514078401156879
0.509757584220472
0.512466973653645
0.50843316439728
0.512989073305323
0.505821824887189
0.50910255558711
0.503024314187578
0.501969489480736
0.499694767004036
0.49981517604637
0.494293759229022
0.497711879668602
0.488485044724529
0.492655387591075
0.482466994981555
0.486056611594402
0.479190814533139
0.482143073536721
0.479354609818933
0.472754403743297
0.473797740063113
0.469181035086261
0.470723616127257
0.465885071017768
0.464777814870728
0.47125450543554
0.466997216236322
0.468782342553794
0.465770191998845
0.462017304657592
0.466667030880795
0.463950116495626
0.462093465092213
0.464979554671555
0.462580382503219
0.464259939771886
0.464100929011882
0.463489929095901
0.466898317765793
0.471573775463305
0.471347394368638
0.472724418331984
0.470204206633875
0.475799179323809
0.472866030773542
0.479248298409784
0.478816796553608
0.483053429872856
0.478399927275259
0.4802553747393
0.479492022902056
0.48395609683622
0.481821505424803
0.482794865011291
0.485448840905673
0.485183693904385
0.482724881687858
0.486769014861891
0.481302131561096
0.481702820474859
0.480385481177299
0.482915766003094
0.48409408735526
0.482696128274317
0.475253751954553
0.478892757412242
0.475885510907178
0.472098037847744
0.470090308477124
0.473605171915921
0.470005155347821
0.468891210393344
0.46892942791112
0.468097274287232
0.462990820745069
0.462816679221683
0.46156146385116
0.463446060632107
0.458571272776913
0.460942417555137
0.457995215957204
0.454461835465443
0.454352445077007
0.450835640504387
0.45218818857824
0.455566417183415
0.453101133492722
0.45181394717701
0.447913574235448
0.449032637907965
0.449663550744486
0.450263606127755
0.449308745084773
0.448198317351934
0.446917777743705
0.449556864636952
0.445162261340448
0.445097354218398
0.437095337408323
0.436832926727974
0.436166962825528
0.435208710558219
0.428139738274718
0.426278825719699
0.425667524621328
0.425857613416084
0.418630049473656
0.417457788741582
0.419491395125713
0.414343902056091
0.412100437822146
0.413040481817671
0.410386490186258
0.411069828267967
0.409877399922713
0.409872357163158
0.410008555658759
0.407675336135966
0.409131248773006
0.404862879453648
0.404430117851718
0.405525920073264
0.401499248918597
0.39829299780836
0.398010646353188
0.395561316363287
0.38638561340998
0.385263253595449
0.380843371302919
0.379946862218622
0.375703045849472
0.375237951349466
0.373145005242619
0.372398485687369
0.37103698870582
0.373045847893058
0.376118450981411
0.381335663528506
0.384223594887452
0.388576138886631
0.391511265817266
0.400290617593815
0.407507836852103
0.41924470360897
0.426042388261096
0.438567836573985
0.449057592550456
0.462962450091383
0.477382180955263
0.491803119917709
0.499268752242525
0.519311851683301
0.530887285535548
0.550091782112336
0.557571246139752
0.579443368716981
0.592539178476772
0.606911292979022
0.625646648562778
0.637234872357894
0.643866602115045
0.664537215248038
0.67161074164745
0.67319771245822
0.683934527043258
0.695041484085366
0.699884369108222
0.712520746297895
0.715288414140913
0.713669239093694
0.717551942007933
0.717865729583984
0.717000099122069
0.711219863388419
0.718426897629745
0.714519503441095
0.710540426709802
0.708600304360773
0.70167726112319
0.70420590217643
0.706749413206079
0.705372652875443
0.704611232393341
0.71094989674995
0.713069300690322
0.713675675970612
0.714904571193446
0.71274566776382
0.719976569890302
0.71491603748065
0.728975794037968
0.735129261230155
0.742076950484936
0.746364337737907
0.757643143035775
0.769509027325676
0.770777981567664
0.783576314611257
0.792642293968901
0.810252312072356
0.819511447416794
0.830562399597778
0.847436052797494
0.867047551995809
0.874520797626995
0.878656015003843
0.877548402106219
0.879269481968545
0.893182017513294
0.894669529374455
0.888477160206853
0.886678038441924
0.883808671748005
0.881302875912291
0.872317270824299
0.861975156464598
0.862852344936577
0.847826990086312
0.851908489223439
0.859280059481024
0.854431316033051
0.862470741441854
0.873763293875139
0.879681108876159
0.889424948785272
0.900440743120186
0.903736778216651
0.93536028114654
0.952798462546459
0.954689165013545
0.976606258954623
0.980506541459341
0.99602428059854
1.00284506506957
1.01402448043712
1.02084396105492
1.05190322199519
1.03724964778979
1.05349112238862
1.06850157714321
1.08526421328946
1.10668021993455
1.12730293351318
1.14309530527328
1.16485437653574
1.1640197195671
1.21958071873334
1.2274376191128
1.24121436092834
1.27044153776792
1.29154256816725
1.29949706322423
1.33813286101401
1.3448984186299
1.32141169554642
1.34664722415076
1.36960633954219
1.34902050504984
1.39403878047092
1.37095086934856
1.35857807416085
1.37185136920364
1.39773672303011
1.35705081182671
1.3508073065257
1.3354198568204
1.3105170189652
1.33343262895027
1.31466050607709
1.30938742673064
1.31040880912544
1.30278201582524
1.31782777371575
1.31598495023975
1.32167014377968
1.31116345766335
1.35131071593679
1.31775485375677
1.34280358271194
1.33677045995562
1.36861750933245
1.35670115349971
1.40504407600685
1.37537645790366
1.43056983245797
1.42900427401541
1.44807365823096
1.44740237697816
1.41043084926343
1.48718999468872
1.49653758670167
1.44850551813291
1.48878988809532
1.4663691013699
1.48488971234515
1.46920880617854
1.48400278757445
1.51174998997408
1.48690470563818
1.45976647123279
1.52435758661388
1.4975739184706
1.50216005250162
1.46049392189668
1.4777189844849
1.44977713140869
1.47248732602973
1.47376147444995
1.48417120835294
1.44363039951908
1.45163396994495
1.4298377983778
1.48696888045042
1.45217134608719
1.41851015565596
1.35082504010475
1.3610954242735
1.33306642669321
1.3366838832669
1.27705073798655
1.24868821125355
1.20361291098141
1.17452047828336
1.11407216873565
1.09431542466102
1.06767087564881
1.05871562905823
1.00649329342666
0.978346886078938
0.977312506431164
0.959702286904597
0.95630626243626
0.946202055292385
0.937035859919362
0.931714315279233
0.929045743450469
0.942652345293348
0.936356318013861
0.935621366360149
0.91909016967471
0.927030517552558
0.911449271676416
0.906309862317905
0.904182113765572
0.886197247316894
0.871296154508583
0.875005500918263
0.849048751354088
0.833303767004023
0.816414103738687
0.792353897698084
0.789821760165103
0.783586260472852
0.759937557501559
0.736122337695637
0.713927545236414
0.706633650908103
0.685418799352321
0.671671425432949
0.655817171840958
0.639431218184233
0.615899507247191
0.60398372141517
0.589088228088569
0.583178977078008
0.575476395105021
0.564342448632141
0.558492675680061
0.54655800734433
0.545435465229332
0.540354845365711
0.523988652480489
0.521609610827575
0.521333532396938
0.514301986645908
0.513006357192227
0.512064515209935
0.51058460635002
0.517437029725867
0.508324637654068
0.509745047555966
0.512958867239131
0.522158581754559
0.517612167028392
0.519741235384694
0.518689356747146
0.518741147223303
0.522625628533288
0.53304670205834
0.531001221718599
0.521448599200792
0.535925233902921
0.539182975502731
0.530758653832603
0.539068949757362
0.530516333081843
0.528971541177602
0.53398088953026
0.530509633476226
0.528189589697814
0.528606624410723
0.521136659442569
0.527932371674848
0.525126065131855
0.532068769126943
0.524785977174559
0.528946457028258
0.539063916475815
0.531057955912274
0.529524952508471
0.539108161920394
0.546689144480417
0.542901268169957
0.544200752872271
0.565520677895883
0.560903254854371
0.556057449865076
0.563271850910179
0.566534246867558
0.567627792278339
0.575948619947477
0.579595282860419
0.58096140513408
0.575168884716094
0.591375962724211
0.583616087871937
0.587303566334499
0.588428872880163
0.586193963202741
0.592245417758169
0.59595813716022
0.59161549416442
0.600950480014559
0.59692116952066
0.610904832093506
0.610002181951118
0.616531612863653
0.627353423925978
0.636465607917352
0.631228845515692
0.646326108916725
0.668843429855769
0.674693427159375
0.674197175874866
0.701413500944032
0.702031685259816
0.713421262780175
0.711421792922254
0.717091415123082
0.72886100831294
0.717998541959006
0.712910436896434
0.721021833121169
0.713848643152481
0.712464038338416
0.709351053513233
0.715581004730328
0.715259066718477
0.717875589900125
0.721898760427165
0.723547899348207
0.708231862094627
0.724711615006985
0.721636694872961
0.727739593770295
0.725141073421492
0.726806688878074
0.732650529080833
0.754268530451653
0.739047550250285
0.725499687655423
0.727859666711018
0.733913443782215
0.726187548966997
0.734974815166549
0.735326981665348
0.750256150993065
0.748412980683123
0.742424220702992
0.750081785143515
0.757136282872026
0.753625077429428
0.76995095079716
0.750411215252128
0.755817547718776
0.7750962262488
0.765951537838165
0.760502368051794
0.775970105871446
0.780533690847104
0.765745756808734
0.773848150564699
0.790730374670204
0.774036136164929
0.796636764976805
0.787310772718073
0.788298425162517
0.798348864508058
0.794338547383542
0.785457826621653
0.817605930024263
0.822763273286012
0.829524390080278
0.8274787398982
0.793674531701566
0.799223593984056
0.822227983394913
0.786261790686296
0.817900016202979
0.838196706836281
0.819849226471424
0.822832453292475
0.838277767060725
0.837013654138548
0.83854295641358
0.814480592832356
0.836124225165045
0.84871777775192
0.871630720986337
0.853017520338773
0.849553678853488
0.871621451063783
0.889884861196784
0.857635608650122
0.888087970231631
0.897657596513732
0.892458414467185
0.878311069892339
0.891232194247321
0.909531809153078
0.906699962616729
0.913170327404142
0.948596448915132
0.93946041948451
0.927158864870539
0.92854173826558
0.889511723568303
0.906217307034872
0.947506219876077
0.931202295339898
0.957786793818764
0.957575662936964
0.946472394181923
0.949457729890513
0.961238607757369
0.955575452732067
0.973083160039071
1.04063308455896
1.06083657642238
1.02415071252717
1.00941095864769
0.991637747575981
1.04741634649797
1.03844135522424
1.03947822712524
1.09898561781218
1.12096171161796
1.09057341604421
1.08264657564978
1.03478874559715
1.16912826796704
1.09986182628338
1.1153270898247
1.15852918747847
1.13411059057239
1.19959768581463
1.19015355753085
1.20960239908997
1.17974304868963
1.16938866922879
1.1539169186524
1.15896035760899
1.12382299017475
1.16753654944749
1.26668916696976
1.14813513982886
1.20486167806747
1.14434313535748
1.24559841712637
1.44200210765205
1.2447974218943
1.21965929278677
1.410064256109
1.13833115662252
1.18065363441638
1.32310871220493
1.14600391005433
1.28550772922546
1.42164785201938
1.25584117130602
1.28772665898049
1.31085190464152
1.27689661298149
1.28217569989146
1.21824516285908
1.1725204958569
1.37205991848948
1.20301983598416
1.14069217154369
1.27188049234624
1.36928407876127
1.28414647122643
1.19040824807901
1.16735588668386
1.25386369302575
1.4019320489191
1.51979769898788
1.2878481913328
1.1998950466813
1.39660096743278
1.33914558123803
1.28475262204522
1.4561896408457
1.51766674235091
1.54130444001204
1.33905505794159
1.25789671214579
1.31350548045878
1.37303909951046
1.66062097359686
1.48736841061858
1.36910729590443
1.49237667950681
1.29354648896931
1.28915532512411
1.55473306148184
1.8339472844298
1.58696129960018
1.32573154954732
1.2537232674503
1.26838785961795
1.1416869083953
1.31016462964621
1.8401963480894
1.33903683407238
1.22027693077544
1.41799225363179
1.74964726144137
1.91233163559612
1.7685939054059
1.37596928519568
1.48020396239465
1.38104399382961
1.22754407529331
1.51212585509539
1.63721158934954
1.574214316466
1.56991745696694
1.22145111551477
1.51233530910678
1.88461680943772
1.37139185584904
1.80891472127139
2.18135013602276
1.57980589461486
1.54130762926396
1.43621319694969
1.2945975467445
1.68915496519958
5
5
1.50568700357644
1.62757316255532
5
1.5041601235647
2.07708135311582
5
1.63962469190903
1.4302427487337
1.73082817550232
1.54251149852254
1.39168628699717
5
5
5
1.67458372758615
1.46286278387289
1.49569858881559
2.27797765755435
5
1.42102289447557
5
2.13110588881244
1.3242659051419
1.70456177702105
5
2.0021901439453
1.23120410996969
1.12097901861519
0.922697645288102
1.61596329717303
1.08443272997288
1.17887446314973
2.15985513378717
5
5
1.14316591424945
5
5
1.6471675630349
5
5
5
5
5
1.57594297152467
1.04994444521271
0.625637483549787
1.05800498516165
1.51140736610637
