3596
4000.36533379555
650.420452594757
1
2
2
0.034336641800398
0.0415707398763922
0.044099662294651
0.0521328770171085
0.0402136127607231
0.0432961252506143
0.0378553488630083
0.0474058326630478
0.034451571714431
0.0482258917489242
0.035731605821983
0.0416281580433709
0.0385399164249069
0.0552773787690526
0.0352566047629344
0.0468500021868822
0.0308648465595622
0.0478638772408341
0.0351774132253275
0.0454026951744325
0.0403279967056263
0.050222013404285
0.0352319834089817
0.0501544599015135
0.0400036698095836
0.0557940527106167
0.0402858539746421
0.0489811236420634
0.0394064744851
0.038645329448721
0.0273269082040075
0.0489299374157791
0.0425948471904062
0.050601187285424
0.034446998836621
0.0449162877553616
0.0336644740356354
0.0486148010406079
0.0373268433686327
0.0550208129858976
0.0393504236414669
0.0464671455527248
0.0356677140527303
0.0537357662377007
0.0333306432327252
0.0391284981830334
0.0398224944078037
0.0512082441628898
0.0420171485176677
0.0467310166061507
0.0355775962327305
0.0442857335580926
0.047365229525542
0.052549741075309
0.0453553467105515
0.0661819899653764
0.0450101515478227
0.0484511075443659
0.0462661963898535
0.0509837583747267
0.0510153276077762
0.0568608354405395
0.0354090742735886
0.04725957468231
0.0318672184075345
0.0536833475067045
0.0289637540591427
0.0518270871335881
0.0330151930392528
0.0474368477672542
0.0443518024924774
0.0611233944540672
0.0507636607323922
0.0520073383048906
0.0434079596390344
0.0570897078900204
0.0450114000049817
0.052317412622193
0.0380006883030714
0.0627167928986494
0.0511420574891575
0.0597696686610312
0.0372563430118998
0.0503266840254266
0.0434005342502232
0.0581756077627764
0.0263458636976624
0.0642781876005699
0.0622925379395462
0.0498635897069465
0.0338364866462581
0.0424753000710421
0.0315610742830862
0.0436852493367349
0.0306008620063781
0.0480748332906788
0.0352710883433962
0.0531805960926983
0.0417506527059854
0.0468753499040727
0.0709022154224753
0.063327964017335
0.0699958364816923
0.0470655216570445
0.0783514809688274
0.056639896497545
0.0483448504652897
0.0884441895365174
0.040934647596185
0.059115078720475
0.0339654559105124
0.0506405327992058
0.0367053489428003
0.0588538552193005
0.041285018225244
0.0756898747775858
0.0515807343356214
0.0520639375750649
0.0421828176882949
0.0471442107977903
0.0447498363296651
0.0883941625972052
0.0654183286667241
0.0424577064992001
0.0478471890801906
0.047296152945357
0.0463551931835546
0.0685922905193021
0.0539040073553209
0.0417778904187707
0.0471699426346689
0.0418078782673593
0.0362206144090313
0.0521028883079952
0.0803778237182122
0.0406404235669988
0.0448424285238502
0.0573141583794989
0.0705424028326823
0.0890076515624569
0.0407403926668774
0.0440936221530721
0.038290114596594
0.0648539964617246
0.0670784583793693
0.0589728276730731
0.0435998314068015
0.0613631391923568
0.0440239977129855
0.0402865735924582
0.0460798798072626
0.0513124941452371
0.0552129642283319
0.0583003485115723
0.0540611588332785
0.102047844475865
0.102135798438901
0.0646788827307557
0.0847683374254111
0.0385982921128518
0.0577353442643192
0.0449186129998021
0.0422526113387001
0.0395602102959331
0.0425225293188614
0.050565026459971
0.0536315972162601
0.0633083594736101
0.0369140588084584
0.0609907285834295
0.0523621942015674
0.0591210131744295
0.0440061821873441
0.0808647577775674
0.0496798136557765
0.0536294894838977
0.0683095408299551
0.0486128811022184
0.0426630369291007
0.0656207613670087
0.0615452459365248
0.0371370247787965
0.0438361744917146
0.0445265091422203
0.0472338104781076
0.063172377483601
0.0493887595773773
0.0470020355367204
0.0476794487073398
0.0439148589012563
0.0768045737805117
0.0855860756267842
0.0634596363163475
0.0425948749048007
0.0509869153643532
0.050809870051073
0.0674203312842792
0.0613868585042996
0.0376102955139884
0.0419374937224207
0.0393952892093362
0.0413029341157434
0.0327394216855492
0.033628711285923
0.0473150035969314
0.0506523612536054
0.0721291941696689
0.0486231746499254
0.0427636552997648
0.0467066566764466
0.0541906353519947
0.0651888723355022
0.0729011105795708
0.0605823536169595
0.0412784701895673
0.0509470754389165
0.0433157123760356
0.0611467519043281
0.0536741606319679
0.0440288778413563
0.0366540730261708
0.0416827103528495
0.0382091523013032
0.0373125589347044
0.0340210407271264
0.0446225817845707
0.0366929930979594
0.0458924675342122
0.0394722198506004
0.0455406135212803
0.0467514487767339
0.0416418524361202
0.0307547557596763
0.0400709913908414
0.039761809023147
0.0576572712345276
0.0544321149583136
0.0394126013942551
0.0422123272495526
0.0399345538012194
0.0406601580019268
0.0341879855634634
0.0416388173251285
0.0392753076193385
0.0440144058231292
0.0476679381805908
0.0697612475703045
0.0439636893215178
0.0416629676008213
0.0432396949427745
0.0455497950182291
0.0542283919321025
0.0377370407011693
0.0489856509931265
0.043519582058433
0.0454450520984789
0.0453653435134801
0.0722264619657395
0.043943609315977
0.052614016494511
0.0493231353335209
0.0505487475720392
0.0358564463930209
0.0593964842760977
0.0533876382683536
0.0973512307261259
0.0613886297347271
0.0800624934328832
0.0861938804972934
0.0566746249454908
0.0427400046567309
0.0581785574011941
0.0511451180163385
0.131570664895248
0.063439468851733
0.0567479623564118
0.0481719174603229
0.0604963948559064
0.0390565704323036
0.0525276922529343
0.0529941904256256
0.0587050396413154
0.0900446643758976
0.0958643236055952
0.0853578586949705
0.0479575358441288
0.0663678530027986
0.0633993807913036
0.0362914205722405
0.0447716698188991
0.0339125714086554
0.0581761436416812
0.0562376134527669
0.0597948987272976
0.0419647940233503
0.0582217021506559
0.0495453196988176
0.0726752330266402
0.0353950367500327
0.0502889519433335
0.0418717293602739
0.0563096793255565
0.0369259976315696
0.0474451730497521
0.039075502201195
0.0542685543233303
0.047182602222725
0.0568448784745233
0.0685522501985878
0.0633074427584786
0.046793119298463
0.0727616187118569
0.0365464316067549
0.0433707813412701
0.0412236666522335
0.0502341392830308
0.0368475881390879
0.0506962962110334
0.0439525814600294
0.0660872637661751
0.040000140443895
0.0441146568027104
0.041593579453508
0.0446800382731665
0.0409438276396348
0.0391255230532127
0.0407852346113104
0.0447875519503262
0.0354985043449777
0.0466687130014492
0.0560813218479607
0.0659783920616595
0.0456616694629646
0.0820295330720582
0.0638954274380485
0.0447345210959166
0.0478006606691848
0.0427105807923632
0.0445281662553498
0.0398711103065934
0.0411231237117287
0.0525475972555637
0.0489515984342573
0.05570235372173
0.0481168851594684
0.0553088712153627
0.0690300352787342
0.104085851037968
0.0874988239677444
0.0481345490335242
0.0493757816001723
0.0607612124032193
0.0722441126903932
0.0761737255928274
0.0464603918605671
0.0736811510426983
0.0421180639526057
0.0570141789495174
0.0378976146474615
0.0462094197177525
0.0411374899042574
0.0528338681186647
0.0405274299581385
0.0455710357160511
0.0490235064279252
0.0454707486370352
0.0486829093436064
0.0662971050432335
0.0739861950377629
0.0601041430370388
0.0452542862267582
0.0568789875578231
0.0505825871613943
0.0784161461519175
0.095120406077638
0.0859896143507482
0.0840125312546611
0.0792181854208611
0.0799619258169321
0.0503492033806457
0.0487479362889241
0.0480297251288892
0.055767803512962
0.0596425132974258
0.0568646057814462
0.0518950686158691
0.051084225625041
0.0605190310800328
0.0598647526059224
0.0515046254024253
0.0575917506746104
0.0611097173534935
0.0678144445053098
0.062300714422702
0.0565930292393015
0.0661113253745861
0.0856002913625768
0.120000574608527
0.079739780161941
0.0723835219493155
0.067190097584479
0.0686287760639215
0.052583834099235
0.06669073860648
0.0530353667595729
0.0794363442922237
0.0702342780554008
0.0868454061830183
0.0816118977835669
0.0751004882396191
0.0800708425506794
0.07527053910901
0.0881583605395362
0.0866534496090191
0.0842725966422425
0.103672100174647
0.0734746662316589
0.0825079850712032
0.0868941877767297
0.0871773240415338
0.0847206043844688
0.100656419110419
0.0673869016839029
0.0738710827113384
0.066639458078636
0.0857530981360276
0.0807100086960795
0.0856490300880687
0.0800626103453587
0.0918733908818039
0.083921324450239
0.0864414680073941
0.0983000080364203
0.0996184334364378
0.0816960327869553
0.0871236822397658
0.0884984584227213
0.0840307142956677
0.0836755326690897
0.0949228412255322
0.0952332085967092
0.120191104238257
0.116716307665424
0.127731987888373
0.0913217890343454
0.10144306053939
0.0926378064348563
0.0986431353222914
0.0914701873202355
0.102781666277954
0.10045705344435
0.097906752014459
0.0885398852400536
0.102692322635966
0.103634869007043
0.110814285066202
0.100768038262359
0.103780961989425
0.101241545914336
0.10831438895788
0.106867669514063
0.118555058048385
0.137274937164903
0.170327630353479
0.142684527495593
0.14543135776069
0.118939069017831
0.126553929925562
0.115580130132923
0.129882784124562
0.128811203506818
0.126239682214794
0.116299563673968
0.120048571429238
0.133720538541971
0.133043095039522
0.116682688407379
0.12787881706051
0.130200530294336
0.143119265919867
0.143524431729157
0.13672321477625
0.131672456911492
0.142505918409355
0.144824337868057
0.156116383117146
0.149653956665263
0.160951046884761
0.148262221718388
0.146910324408656
0.155126389982136
0.150796046665731
0.132290541910126
0.147602087661861
0.152731535904324
0.154942827571071
0.148044358721047
0.154334739795072
0.165861963133276
0.16985715797318
0.152092330522563
0.163837838342052
0.15952637752241
0.174350947310981
0.167362142317428
0.182296663703252
0.182383586685555
0.188827084725781
0.183006402409603
0.1851481750811
0.178526140504933
0.185958304570743
0.190619350831383
0.186556570785005
0.175683965844466
0.185128241746252
0.19418011885051
0.196708733665924
0.177902309502198
0.200399339627759
0.192928117124712
0.184495161467224
0.194250831904881
0.20431877755301
0.19936377206422
0.208357171321762
0.208762787733143
0.201498632437456
0.192397965636136
0.201672239359441
0.210121081876419
0.218719281984354
0.228080867735005
0.229647437754238
0.21968871889813
0.217630994566318
0.214597055578299
0.215960752112602
0.217463829969609
0.229297330087875
0.223287417953108
0.224505359927089
0.221133438501003
0.227586707672526
0.234529336497063
0.23969326151841
0.232439722312253
0.24744034839928
0.233698325045103
0.243607722257446
0.238902492138724
0.245579823475315
0.246000825320211
0.239335811501833
0.248798607117952
0.252335637625963
0.253459359901478
0.25458913401527
0.242184384919771
0.259403805314808
0.240753346393957
0.247256833054876
0.258287288348822
0.256128442499595
0.258153561515594
0.271007949640973
0.262089904720151
0.258982511155775
0.255193911340491
0.268007305116593
0.276883833460414
0.272538845712903
0.275506155332452
0.284229616177512
0.293342310530661
0.279030073662208
0.276771377396034
0.283589500875717
0.28491653233929
0.283895234169173
0.280082210391124
0.28245721062495
0.284790531735871
0.287223426734396
0.282436517350066
0.297979769077722
0.288019947946459
0.291931358505919
0.295266441960297
0.294566454070127
0.285835223024451
0.304959296912119
0.311745624499556
0.297958213708501
0.322140388412709
0.30706737120234
0.307631256075544
0.313058132258314
0.311126232708379
0.315134740727835
0.299132740587937
0.316769456401225
0.307697324833785
0.318957313999349
0.318893868814168
0.312701567401411
0.323110237130891
0.323848049955381
0.309486985237534
0.319632512616328
0.326406036974885
0.323644898394616
0.322015684008718
0.324413901512091
0.324871603934233
0.335178602101599
0.330540653155664
0.335398213782677
0.327234761482445
0.336258233152955
0.351722389327308
0.346323511867489
0.348548733111613
0.345232383753966
0.34001805102102
0.343253856115611
0.339413358839038
0.342058208310919
0.342333602669713
0.35664029125533
0.359943961919501
0.351745775227325
0.34560392717618
0.342163528507214
0.348015283308862
0.362642843409498
0.348312719370447
0.361254259350269
0.362398296573591
0.349358922632765
0.353011863118024
0.362013910010832
0.349884984267516
0.343265632292412
0.362194459653751
0.368655859143554
0.367140195490825
0.366697001762439
0.365910653156465
0.366485554073531
0.362402217659403
0.361992820677868
0.370364510708547
0.362524567796755
0.372000162197232
0.371218956709801
0.371361492746127
0.366772004801335
0.367931852847793
0.361189254214661
0.360507098648174
0.361267166125114
0.374884061571846
0.372385337826179
0.358839176689889
0.372166883934194
0.375106764018245
0.363687515248339
0.37664295957828
0.375135557920055
0.373874160915599
0.373901404889609
0.386382229488594
0.372808927391412
0.368935220906998
0.367853822509606
0.370991250397501
0.373635704713313
0.383945425822645
0.385980473824237
0.387158717837999
0.380376377590437
0.364247403455685
0.375703911542004
0.384537922439576
0.375387225802513
0.376787260584159
0.368661439537563
0.384483439225223
0.383842888164554
0.376053094642784
0.386791262098026
0.37016903815849
0.369673025519523
0.377066715893212
0.362506318622711
0.380965545580435
0.38421371066619
0.379619115542926
0.376137000251473
0.371656668855221
0.376332032085694
0.381627943964604
0.37208168736099
0.36714407450781
0.376496991745831
0.380827884988512
0.372015992321415
0.365750107755676
0.374436433360482
0.381967638967349
0.378704040993134
0.385044861058724
0.374428202018548
0.37297776149762
0.383561149767267
0.373679524494565
0.369499462306757
0.372180843746198
0.369164305310798
0.371632872820481
0.370355101265738
0.360372673428419
0.369955232295757
0.369573198329264
0.373380201164384
0.37051181731323
0.368844909432061
0.384561961894747
0.375827376290342
0.368184736106173
0.37290255138442
0.385134440277767
0.370065511172327
0.365251037279728
0.368969401599689
0.368774875989548
0.364683393743786
0.369483554369159
0.358213160103685
0.361159151025662
0.364789986782752
0.36279403762794
0.352732539781872
0.352721370109322
0.369270845556134
0.364888441139787
0.355697205277466
0.360128710102215
0.370222796387946
0.351818817143473
0.354022225067872
0.360481018968334
0.353442863922117
0.361461041417863
0.352686185495387
0.355950873318918
0.358441018546404
0.354851267333846
0.358170050433782
0.349585848364161
0.34599192371395
0.355254033761704
0.353044745430419
0.356132816017277
0.351515409069049
0.351594590421734
0.344242198897571
0.344369117990608
0.343985211119567
0.345736525210279
0.344537610111412
0.348774611954095
0.342998948831916
0.341158001854862
0.339519965991248
0.339062764181727
0.344718667762242
0.344942825257564
0.342452336232699
0.338938804456294
0.330621116780994
0.332797157036674
0.339673005919479
0.344679210353887
0.332711884862299
0.336097654944978
0.333620509118507
0.334450193912433
0.33086712070567
0.333783200414223
0.327036232780044
0.322561721202254
0.318949134858761
0.321599885974164
0.326361657062129
0.3235688228058
0.32551097877736
0.320952110604915
0.315019764446061
0.32178747397862
0.317218189618321
0.312004747272742
0.317025450567144
0.305718431988111
0.307077320256031
0.312187893864282
0.30390930296087
0.306818462136149
0.305835874245782
0.311326040588644
0.300848909812053
0.308090646649401
0.309367831560257
0.301551101825337
0.300041705066318
0.304069378108823
0.304084335665819
0.294989624764502
0.29701252431227
0.300464510018533
0.306512357805504
0.294019585913237
0.294226840119092
0.295650961802509
0.293144578579478
0.291529807769233
0.285192841406582
0.2936904945382
0.283891712949529
0.280721114824961
0.276863804124808
0.282725862508543
0.279561243542719
0.27785116098964
0.282086008587298
0.27340311346662
0.272716325645405
0.277629168587516
0.278270571768804
0.282370310855665
0.270079725898941
0.273846191425319
0.267075291264443
0.266017637035435
0.267235203771841
0.266019953532496
0.26988584953056
0.26260456184322
0.262950942121207
0.256713847376199
0.252750098759873
0.268509116143315
0.26234370971948
0.260240305989088
0.255962130050815
0.251659704754587
0.254487450300344
0.252095204338403
0.253588411505384
0.257207684161043
0.244371553324795
0.24996380304743
0.24687124574519
0.24292348484644
0.239529890557736
0.246675844245958
0.24291746249187
0.240173311530286
0.236260278481235
0.24267991575285
0.237957279496604
0.238564812855067
0.228442056471795
0.232271598061789
0.236503048685105
0.240423349230309
0.225152492136165
0.229799423021226
0.2234837232535
0.223931392667581
0.223601770152795
0.224469639214046
0.219522755691525
0.217827931970575
0.22007945854641
0.219178283751089
0.215454766641901
0.219642155289891
0.219822098626696
0.216175264104119
0.21836354513798
0.209994259396378
0.212221183957505
0.212265860624564
0.206218569397926
0.213128456500681
0.208801974967633
0.207712257356184
0.203305093430309
0.204472230958941
0.200532454171927
0.204328871881982
0.203768097321905
0.196960303248869
0.194790621631542
0.195414601999601
0.199271515382286
0.195887904801803
0.195476659759735
0.193273764723318
0.191974966440991
0.188835735500667
0.18741143689634
0.183378150557852
0.18616402915302
0.188246716014495
0.184137110340049
0.183123303067966
0.178858090999686
0.175972917120377
0.176165649448204
0.177805509323539
0.171823985602691
0.175174057526154
0.18005480434215
0.182205837494637
0.177750501965602
0.174465163016586
0.175083322740932
0.179245615663835
0.170403858412321
0.169690547135097
0.167760777808146
0.16212036721835
0.169300514565809
0.166390056638986
0.161757335566708
0.166329042076612
0.161542853067635
0.162762302427149
0.161148970269433
0.15843601981106
0.152942597674348
0.158689732224328
0.161100024183843
0.155751724304639
0.151823471380926
0.158112725365108
0.154506962166109
0.152453829183976
0.150335539384486
0.150886622952589
0.147664759006742
0.151655830661955
0.150335820714048
0.153530088783365
0.149994202111957
0.147949300422395
0.148685867807619
0.150726455636226
0.144152532144848
0.143368819860684
0.139907258774598
0.140882329540259
0.137292520865164
0.141968517823888
0.14164369318291
0.136478416948994
0.139187528113626
0.142214218045305
0.139346995633225
0.140164894664233
0.135895015316995
0.131765525676988
0.133819656192874
0.130346288354825
0.132331493276682
0.130139303287347
0.12965640090058
0.12996440488992
0.127093908879646
0.124749362312501
0.132349042880541
0.127720182774406
0.127564769403139
0.126824210278457
0.124444024915826
0.129086833243877
0.12146748006053
0.123766957491175
0.125892600437113
0.126465809253761
0.125393758388377
0.11003738784107
0.116621864870713
0.115359649028125
0.116860082454992
0.119977790858989
0.119085538678993
0.119513459743102
0.127754860613906
0.118583104579464
0.121861001308466
0.114016362970435
0.113239094176034
0.112877338239213
0.11817592567786
0.115546510017969
0.113822876619221
0.109318363828263
0.107076219578409
0.113531861168369
0.111153305949977
0.110899887640304
0.109215506860377
0.107483913004812
0.10799592486422
0.107168958149024
0.104741215434254
0.106314190370301
0.10517958123491
0.100867868857892
0.105079806297435
0.1065916140181
0.100996321343702
0.0995333433750249
0.106356535415158
0.104141241549304
0.102539762972183
0.10879634100916
0.102952010394851
0.0970494168368577
0.0974886197183329
0.099271345378543
0.100640585905138
0.102240398271906
0.0961224907300442
0.101687066739961
0.0943434196193326
0.0956809876802397
0.0995889735492971
0.096940978558633
0.0956474549050432
0.0994922012462798
0.0892090965476575
0.0930896824627388
0.0928360742609489
0.093537920587616
0.0882031265061507
0.0939154362642863
0.0929056323386394
0.0901693240763939
0.0899756057559237
0.0894025799076718
0.0894555514927791
0.0898996722857409
0.0922654121880043
0.0937576565913619
0.0928413146282153
0.0901675666441716
0.0902222646277392
0.0919596584024046
0.0875321608444449
0.0885899053319233
0.0895856231249555
0.0883296682256734
0.0885959853787003
0.0883786327881138
0.0891736156004388
0.0889059851371938
0.0855477969613667
0.0898220987935047
0.0861063941264958
0.0900135504419317
0.0913940674775865
0.0871544537589393
0.0862555726478544
0.0871128682234819
0.0871952742147915
0.0885463099257931
0.0861904395331047
0.0871429189996613
0.0867143525474254
0.0900048564214433
0.0897402313049009
0.0900545135900662
0.0886055427707292
0.0830717710635821
0.0923278813091911
0.0901853358011509
0.0898922869655832
0.0857482497786701
0.0968569805415932
0.0904870072120815
0.0935972179844044
0.0932245217533781
0.0885527284835121
0.0942566415139092
0.093005988100024
0.0941588487479764
0.0922379952554709
0.0968552373665948
0.09722971746222
0.0937737052776958
0.0944662334935662
0.0956918970835616
0.0991818648407703
0.100649024901442
0.0983745665391088
0.10162463194614
0.09891525428431
0.10053167600798
0.100770155857399
0.100704051774273
0.105844886966813
0.102403632875949
0.100747416911755
0.101478416663281
0.102142288417542
0.101696771582579
0.105313882004714
0.106709016434412
0.104796550477489
0.109265220058572
0.103117594783285
0.109356685401982
0.110212776893459
0.108179422103222
0.105110327563302
0.111141543012522
0.112455498696398
0.118529229189962
0.11385027072739
0.114331293542289
0.112388663466441
0.119619123650417
0.12251757954133
0.122021357883549
0.122374704951586
0.119363929451127
0.121658023905776
0.121552021311354
0.121645138781613
0.120582061263156
0.124539420157733
0.120216940112145
0.118760923539421
0.118512727671482
0.121872694357953
0.123378960183312
0.124758826457247
0.122976406331083
0.120808229702406
0.116156210971121
0.115268617375934
0.12157017970928
0.117967453452918
0.121378355476536
0.121147490530865
0.120456493181534
0.120941043555487
0.116656961465602
0.117084435778341
0.117211923933318
0.120425088452071
0.121544887878261
0.117535770027667
0.117511692193758
0.120580707083741
0.121436455857502
0.12197290294358
0.122267481149718
0.119511081744325
0.116524962817689
0.113855778896534
0.118074601515725
0.117031612654163
0.117959854279023
0.121954778418861
0.120127762950444
0.115533763426116
0.11745149905737
0.118725504756647
0.120911841760178
0.117213544703601
0.119739754277341
0.118531901514608
0.12127997653055
0.118468381908459
0.118206657248061
0.122446755736147
0.121714218094793
0.119314748325259
0.116002637362234
0.119792791147401
0.115266566208136
0.118019600473848
0.116675613683149
0.11688925419082
0.113621099911439
0.113434345883929
0.115284343479222
0.118108489884565
0.116027819834832
0.114042364858468
0.114000875410422
0.116439790525351
0.11575435865779
0.11160106775804
0.113024174202346
0.109956868239911
0.111246389376819
0.107406371972917
0.109234564772381
0.10758291771921
0.108779839124403
0.102413371154826
0.108251772431414
0.105533184705662
0.102087262177206
0.101921384632258
0.103262602719489
0.10139483716988
0.104244076058582
0.0970149230900684
0.0962018176398914
0.0934874849393693
0.0929880900380749
0.0995566687068226
0.0933076673977512
0.0916564106657496
0.0907057456522381
0.0894184289636144
0.0907295594390587
0.0887956502057227
0.089549500212614
0.0918637897035772
0.0897435079030972
0.0864801337223545
0.0893463297410661
0.0905961250253686
0.0881917075262342
0.0852200883852653
0.0854685026943399
0.0854367456133772
0.0803366888625647
0.0836416028523261
0.0830964802566664
0.0844396640607714
0.0830287290171068
0.0766216764059009
0.080092056610082
0.0833107078110249
0.0824478036409902
0.0821992766811321
0.0809451433403017
0.0793517710308484
0.0759850128436381
0.0791599626780458
0.0807488577495871
0.0807316320754073
0.0758012614023619
0.0766763407772779
0.0775476708898826
0.0779436191030022
0.0744465373896184
0.0765499153734588
0.0770295874389011
0.0764860486505652
0.0772677936102803
0.0713420795150997
0.0762285842133784
0.0729784653923555
0.0713396070483533
0.0736332635481965
0.0714859922186839
0.0719668525063732
0.0714616727183559
0.0692485829712098
0.0726604953895744
0.0722615384206352
0.0708010789991955
0.0707231526709072
0.0658253315457641
0.0695623892230483
0.067561320126554
0.0679746168830895
0.069859547170996
0.0689810930890916
0.0702142010145204
0.0678466301574537
0.0674163138403851
0.0677954133545933
0.0675762997373822
0.0701449449585854
0.0680483008251389
0.0644677544085497
0.0659839003612113
0.0633829080180495
0.0616369700187655
0.0663232437177299
0.0642288964870514
0.0656264139360499
0.064575435573779
0.0653691970293173
0.0652892275119879
0.068838104637026
0.061684359276109
0.0683460448233658
0.0666519889540553
0.0598302559340046
0.0644302216504441
0.0657832501127746
0.0639688151290489
0.0647558539555144
0.0616423434109962
0.0620849004634172
0.0627678531911816
0.0641030458450235
0.0611614634503506
0.0615544867098187
0.0637873123073194
0.0605057347207533
0.0585814606612999
0.0617728247725028
0.0614368534387406
0.0613469705888579
0.0607463048058709
0.0620394784039057
0.061022088678392
0.0619239419011846
0.061865710524666
0.0569465511263486
0.0559176650765188
0.0608695857722592
0.060120458892269
0.0606582707320883
0.0616090021630906
0.0572238702128253
0.0579224285927539
0.059756872843409
0.0588276042822859
0.0610474595851493
0.0583429535515308
0.0614150030373147
0.0564634216884451
0.0585844306718058
0.0588293402716113
0.0578580448514808
0.0585394864832407
0.0601319801293941
0.0556266947321424
0.0556370613645263
0.0584156901220541
0.0571515203150731
0.0550584651044507
0.0582878122087435
0.0567830734251729
0.0591362683886983
0.0576872859503129
0.0578426052623361
0.0568147733869264
0.0579087459178822
0.0540560132801612
0.0564650163178989
0.0565012359348484
0.0563874237310239
0.0549459013539264
0.0576258936276492
0.0578275881497789
0.0559068662441189
0.0571722119540108
0.0566966922296196
0.0592491520649749
0.0600135217089189
0.0573829560662439
0.0532693481259101
0.0577931472627316
0.058354988927843
0.0575266114870754
0.0548065771641429
0.0553324326681098
0.054404275198343
0.0540289247647123
0.0559738452295781
0.0563493356694021
0.0595268901444663
0.053110612545648
0.0546936342653759
0.0562979130872464
0.0560633775196105
0.056455079475281
0.0563614953840378
0.0581573688216474
0.0541868512827163
0.0480940099346099
0.0495530812312453
0.054613025867319
0.0516331707995909
0.0498751903336099
0.0557882112657999
0.055047451345319
0.0522879616616908
0.0480768474586427
0.0531769935926362
0.0515883195217586
0.0507227609185397
0.0519809442748974
0.0500218659309424
0.0512281590936301
0.0480716517484994
0.0495799055919946
0.0484691256082488
0.0501264349230232
0.0509191103758104
0.0512481612711957
0.0524329036891658
0.0504393126026723
0.0508464562897102
0.0500581509289407
0.0515263779151597
0.0477982004958724
0.048586913979528
0.0470504786891537
0.050826468087551
0.0502092876704546
0.0519406576415212
0.0503325201865048
0.051704614735498
0.0508386197929718
0.0501605492556038
0.0470584865854663
0.0496115975212393
0.0484692843238169
0.0499958730984557
0.0479173528979128
0.0504199738051946
0.049198660778351
0.0447069898159239
0.0469770271135493
0.0487821269672544
0.0507407006293451
0.0506527447104604
0.0470253269589556
0.0489163540963498
0.0490447669682028
0.0467020992641606
0.045591036020767
0.0459582008277809
0.0467194116805461
0.0457252510027822
0.0464201237035893
0.0472694497849463
0.0441925399700905
0.0443688049840981
0.0448633989978949
0.0445995767445193
0.0434751129531331
0.0430531396214945
0.0430906484660722
0.045970381123047
0.0456962546694212
0.0427788013402249
0.0403570613321141
0.0436299491039778
0.0416989763475356
0.0424953936795732
0.0425056376137057
0.0431019007506942
0.0417498643052597
0.0421332249362327
0.0406437992782133
0.0435439249010906
0.0434845958713893
0.043799949637802
0.0416606433367279
0.0416474548079486
0.0434883556218063
0.0410895839376248
0.042298560481095
0.0405809096929645
0.0413031170892524
0.0437623539355579
0.0411589904112051
0.0436003614263429
0.0381860532127769
0.039466367970124
0.0364281480498586
0.0401687005627294
0.0420554482292314
0.0419093666715149
0.0437447744468013
0.0423430248637671
0.0408192043512477
0.0407999344080326
0.0430653863478403
0.0402466407192174
0.039017490890319
0.0416644316408201
0.0385613636623297
0.0393255235689714
0.0386921829605412
0.0379079755386004
0.0381393151836675
0.0410024039826654
0.0381632430283511
0.0388821914794401
0.0375378245376436
0.0397998533766457
0.036832815786552
0.0380384294569486
0.037398549460416
0.0369058307203228
0.0384449767458181
0.0386763054879825
0.0378097908883976
0.0369556639823364
0.0370691336272321
0.0388583012012085
0.0373530274943294
0.0358084006054063
0.0376739226585951
0.0386504009560501
0.0343352403363441
0.0390913577018867
0.0367996859591401
0.037443809430829
0.0331271360462721
0.0363363808173983
0.03247511278926
0.0349035981033603
0.0358983809078803
0.0369684225299235
0.0358296763003876
0.0372500047827178
0.035296442119201
0.0379139135082781
0.0367135806300696
0.0337494771281111
0.0345205831381206
0.0335108815355744
0.0336206948434753
0.0357942866188484
0.0371569650805098
0.0387988846442709
0.0320753877705758
0.0369742288333395
0.0345581562123084
0.0362269442229967
0.0356689099587328
0.0366057756881039
0.0343546952138101
0.0336728029874996
0.0341348184325263
0.0376160000117822
0.0349423968391531
0.0347114932034883
0.0335588024835288
0.0368164993493051
0.0379729535934902
0.0358355734908072
0.0356443349076478
0.0356986898380644
0.0345861442037234
0.0340793793011006
0.0361003687927689
0.0345525528960132
0.0336476665149332
0.0368134513821291
0.0340740473846719
0.0341744747023672
0.0354234518794587
0.034104344422862
0.0334003942757792
0.0341630819656464
0.034859740361537
0.0339293965394207
0.0323210286379147
0.0364368506451995
0.0332541952552514
0.0333928520475559
0.0339018517993531
0.0352992418281259
0.0342446553215582
0.0344143634721722
0.0325671461169589
0.0329666796231005
0.0328963041253238
0.0328334681767379
0.0336322989266027
0.0336428671200825
0.0294478827311327
0.0314037319635574
0.032454573117588
0.0339807414227139
0.0328084893190997
0.0329688721716108
0.0312099999679094
0.0327712082339325
0.0314262689030955
0.0338027421024491
0.0302027737092012
0.0316682523446182
0.0331722968838087
0.0342582637093012
0.0329918255960504
0.0301208958995856
0.0324804112551093
0.0333811173016883
0.0328599910635126
0.0335364935973761
0.0320277110573246
0.0333482973298602
0.0318621244541456
0.0335635775528859
0.0320193289005707
0.0341193756235105
0.0303787911423495
0.0352766180223184
0.0302904826425468
0.0317092652566668
0.0323456440905488
0.0309488919009676
0.0299045679057169
0.0337489912000267
0.0333022350132047
0.0313408245819989
0.0300938993184438
0.0316084315046277
0.0312800123572402
0.0324216509359034
0.0308966159196104
0.0309017888041262
0.0294696423536403
0.0314037077142777
0.0303355927811175
0.0302018779341692
0.0270867496573492
0.0310582433324134
0.0304941905196782
0.0306972324321012
0.029756367508959
0.0295337070845214
0.0288280027214981
0.0295889790129738
0.0300663321273646
0.0322509278567543
0.0281113002415624
0.0325587515030082
0.0295984721562702
0.0301495381025025
0.0287441014516146
0.0305705130530027
0.0270670254699621
0.0314142039147292
0.0278514089829021
0.0291313223144142
0.0275107741063142
0.0292290043672362
0.0295759832013551
0.0313672338239077
0.0268209927624776
0.0278074664577372
0.0249322151083168
0.0295795297515546
0.0277765986866179
0.029132857236114
0.0271255319386923
0.0312132259493161
0.0276675783653611
0.0284861739948923
0.0260450557164865
0.0286603229203619
0.027303030458466
0.0295288031490169
0.0259341324778241
0.0275094395179143
0.0251911001764034
0.0268047314348415
0.0280827149617613
0.0298170094996568
0.0248906988001104
0.0279641021236341
0.0252898742123189
0.0271899602449553
0.0275844307043071
0.0279258872401398
0.0262466583536221
0.0273026820674478
0.025082747385448
0.0301220258103166
0.0260241355368333
0.0274895902751719
0.024454625394076
0.0274306979242133
0.023710415786878
0.0284216737812462
0.0261420463517209
0.0273507036042629
0.0273864981065386
0.0272469088780692
0.0235479596216224
0.0285379298662904
0.0253347703015822
0.0266464066353195
0.0225104530213786
0.0257626591785438
0.0245620488097232
0.0262201607566139
0.0257878038261335
0.0270014835469844
0.0238857589840621
0.0251846955762985
0.0209849064536119
0.025203815025246
0.0235590883377748
0.0267758068717306
0.0235788793271954
0.027247880308703
0.0250336439552242
0.0280118415572601
0.025410322536978
0.0255941859280302
0.0222023487947708
0.0262024110763287
0.0231396121707641
0.0250549279147032
0.0237835921275124
0.0275886126537881
0.0217239939242179
0.0264898702619802
0.0254206193362513
0.0270146158702884
0.022520032430153
0.0279508244097562
0.0261985457803083
0.0284748055547428
0.0223813126202743
0.0280063168971041
0.0229971223744439
0.0289132732829286
0.0247464862153754
0.0274504384659153
0.0260426356488535
0.0269603830536057
0.0226860236684535
0.0260171823470825
0.0210925277123586
0.021618518456869
0.0121453780553027
0.0233885367854072
0.0180629096027381
0.023514773069198
0.016174199016236
0.0218743286812359
0.0141068862125105
0.0186913052117577
0.0120942757046403
0.017834448313
0.0133412684896656
0.0235189679154577
0.0163360640238133
0.0183807094450539
0.0131221161317272
0.0190956292826246
0.0109338884235463
0.0232300592989936
0.0122303411009675
0.0242243216772455
0.0174575581971126
0.0263016509351869
0.0175738187497162
0.0307305261569076
0.0166905052636221
0.0231993530699231
0.0168202989939158
0.0186982232811341
0.0148498496388479
0.02285547209956
0.0120196221655637
0.0198403255504641
0.0128944470918593
0.0200413685947682
0.0150066832552936
0.0178607391998607
0.0154476421585166
0.0145194484457237
0.016528184375006
0.0148503896502102
0.0247910046201861
0.0168041536100155
0.027828515804149
0.00953878209775854
0.0280883737078876
0.007997352985987
0.0436939740306181
0.000408227963796521
0.0359288873507835
-0.00471310116352821
0.0493028413424206
-0.00798219189726597
0.0461002961432176
-0.00955798585191275
0.0559497181375201
-0.00323287108414485
0.0470880817138716
0.00390059342687263
0.0426139763932719
0.0073211406892829
0.0327806152303801
0.0172231982489241
0.0256687885348642
0.0267258936755083
0.0206672839516382
0.0253797790864554
0.0176422511465491
0.0280248180577431
0.0227035646383271
0.0252515240006039
0.0231648114746393
0.0223969426275568
0.0279442023153506
0.0215441349705916
0.0286943606729668
0.0204260301359517
0.0244199263592366
0.0227606167869791
0.0226973553294724
0.0219636902372888
0.0220366082491043
0.0233871083883416
0.0228960035441582
0.0193471060395276
0.0227697868332221
0.0223806981689941
0.0240968241628677
0.0209954343808606
0.0228479886182414
0.0228590458948091
0.0220150434495483
0.0195028535366245
0.0227335417149926
0.0210116564388722
0.0202723280091413
0.020428633516637
0.0236778718266933
0.0246499166117456
0.0240427916950033
0.0205868857330778
0.0217816001190451
0.0207235462122269
0.0213611919471755
0.0225203757819068
0.0218750124588311
0.0218175765660891
0.0217454773725927
0.0230838393361086
0.0215889079928508
0.0207029811406025
0.0231525812084728
0.0225130591530853
0.0202897369597853
0.0218414718024726
0.0219338033097336
0.0219372971393761
0.022139586986002
0.0216544738376931
0.0213761404038097
0.0223667032641068
0.020905049076015
0.0220644996173815
0.0210466182153767
0.02120693995888
0.0214993840474202
0.0221400059598735
0.0227794876876698
0.021596162678955
0.02223803836672
0.0229133079029873
0.0214897927378077
0.0240252189079026
0.0203652647900714
0.023061315814172
0.0205697615786344
0.0231857424121748
0.0232067231226461
0.024350538172748
0.0215543865250691
0.022345412502132
0.020116742524633
0.020126334513188
0.0220750593628161
0.0211120548607917
0.0214992922029933
0.0214736364917967
0.0200407754758576
0.0217154796585256
0.019576020044295
0.0206376249546336
0.0217937835408638
0.0219976491707601
0.0217410052205492
0.020929661546843
0.0203191443493019
0.0234429529317993
0.0206499192712745
0.0218576584064056
0.020108796488367
0.0218036751344336
0.0208762628073455
0.0227515118106051
0.0209491903055584
0.0207914101338902
0.0216906885223045
0.023734947073897
0.0220493938554648
0.0194776033879874
0.0182730133185701
0.0237793060070783
0.0206762949742856
0.0215413276084555
0.0207249408243391
0.0216865122236701
0.0201164240610036
0.0218359549581995
0.0219416634738634
0.0219967037202261
0.0213506708484925
0.0222239732268518
0.021063304359635
0.0237035259697982
0.0225166946507926
0.0243676003365105
0.0208766165938471
0.0227911486589682
0.0224412624538418
0.0213902750260015
0.0224086865781379
0.019264415891042
0.0207741504751304
0.0227484451166913
0.0200122316351955
0.0220592217370872
0.0203957772446407
0.0230023630837664
0.0195270968210937
0.0244051370520289
0.0220409145431976
0.0199494132695542
0.0203632867105915
0.0221935979763903
0.0207410067563872
0.0219800784789771
0.0202064447290772
0.0225741927968987
0.0215348252000644
0.0230673658148449
0.0206908835587849
0.0226665253497315
0.0208246398603324
0.0214283225663963
0.0202527182754085
0.0201910251064176
0.0210739458894767
0.022628728917683
0.0209309743922296
0.0226268277292136
0.019972698414426
0.021602040224841
0.0211157475980601
0.0222070914360126
0.0222591728337912
0.0229737260981309
0.0197480813470117
0.0209045225372368
0.0212984763243852
0.0225410242523806
0.0232716901221503
0.0223974693706522
0.0199695757578426
0.0210438735764466
0.0175420684409627
0.0212945253814756
0.0216277179949245
0.0232016289162507
0.0193759983489688
0.0229902736995098
0.0205111605669454
0.0207149688350468
0.0206610923619854
0.0201918794795213
0.0186692032197765
0.023444348886114
0.0219167823487
0.0221461918347979
0.0199957295379235
0.0222033390548991
0.0212272209010128
0.0220941262755805
0.0201841672113249
0.0216691167796413
0.0218792474736108
0.021466624264837
0.0204451327101798
0.0192028944484814
0.0198029979921594
0.0200361074748131
0.0203330371915969
0.0209812911840161
0.018428593049616
0.0246445840829359
0.0210697803777531
0.0227501000778881
0.020551947975015
0.0215543977802693
0.0205060229252095
0.0223638830601989
0.0204461092457076
0.022084282184344
0.0198549798790935
0.0216829707492451
0.019519080107649
0.0219481538078434
0.0211601576922712
0.0224859258614907
0.023136071918466
0.0208141469475979
0.0168938036752164
0.0222125024637683
0.0197471965242085
0.0206348585097248
0.0202573624705305
0.0211435729232646
0.0187866147351397
0.0210767066917797
0.0189350833998325
0.0195814543348867
0.0212363980976641
0.0220765080284942
0.0185400638066939
0.0201857124525705
0.0197388434867237
0.021111208727385
0.0173469544815005
0.0197398401920234
0.0204216458202698
0.0214597993556456
0.0205670799060732
0.0224678294508643
0.0187663165346095
0.0203084062995176
0.0201844159394095
0.0218272523895155
0.020299153814633
0.0215863881766121
0.0196162358604968
0.0210832439824461
0.0192197007417872
0.0227035997332888
0.020076380835014
0.021054089029566
0.0183238588470377
0.0219148555953954
0.0194393860945413
0.0203579622731497
0.0179248530133675
0.0206342305971062
0.0194141567151318
0.0199833919805537
0.0189150339957448
0.0201495078081073
0.0178083444651921
0.0209616028020316
0.0166036576408545
0.0198822367005154
0.0214723447977489
0.0227407385538309
0.0174672163695561
0.0217071227739483
0.019627038747503
0.0220063608548196
0.0189283532622751
0.0194949578557216
0.0199317527567781
0.0178778162891257
0.0194431376509131
0.0204529028297083
0.0195550149012584
0.0213051881620528
0.0179463950082618
0.0195483472197674
0.0191436336250458
0.0197874259450618
0.0174899222825152
0.0197343567363814
0.0157333454584144
0.0182902230607492
0.0170776102841481
0.0183179168297916
0.0198309094561782
0.0222464496706691
0.0188928026052099
0.0213783707601856
0.0190250596987505
0.0210375701597577
0.017599917668874
0.0197112479408633
0.0174585106819054
0.01976898256475
0.018715562038355
0.02142323227078
0.018310867445726
0.0206568414389029
0.0169767537386853
0.0189645788703692
0.0167836166219786
0.0193914729714484
0.0187448389922045
0.0213697469533568
0.0173231403228746
0.0186208143784976
0.0176323197368416
0.0183074064876218
0.0175055912207868
0.0193380661422401
0.016729266423129
0.0221407713334512
0.0211538474946354
0.0224444359114902
0.0178339526548452
0.0207433892009453
0.016851269011761
0.0211323124798822
0.0174182292537103
0.0192697959436206
0.0160024801236965
0.0213359959246174
0.0163736017748532
0.0191846875492981
0.0166137556495932
0.019657492428614
0.0175188179649185
0.0201401924331477
0.0151445817201469
0.0204298538730762
0.0158617608541482
0.018901287895324
0.0167951127934905
0.0192723648745523
0.0165188654684613
0.019869205016569
0.0138120305387596
0.0216073941470953
0.0234992922700262
0.0251899761620547
0.0190605445307943
0.0196907932868891
0.0215836628098748
0.0211409116646113
0.0178912590588021
0.018835221601878
0.0154019941003561
0.0189750024247331
0.0179257031695754
0.0184197320159815
0.0173385568911556
0.019352134755558
0.0161229632893656
0.0150756899328793
0.0164721215623334
0.0184317126846285
0.016171742094955
0.0182525161274929
0.0147354341917877
0.0198626873651481
0.0162577743398579
0.0182577696649115
0.0153328800309656
0.0164257683072906
0.0223274972716527
0.0255339613764513
0.0215687948640496
0.0195608581009696
0.0168018742984558
0.0178651210388048
0.0151065614165843
0.0170785115633688
0.0162218504164564
0.016386575266192
0.0150038838158117
0.0176622562020241
0.0170361674380753
0.0187033215005124
0.0172869649002554
0.0184493613803209
0.0141702114971749
0.0177679299426615
0.0179667232646992
0.0191039933337483
0.0151578003695231
0.0188345510920549
0.0178643293339123
0.0190389152258575
0.0185318988434617
0.0177048209832789
0.016487091641011
0.0276303823112231
0.0301859732419931
0.0233288478041534
0.0148861849283181
0.0187752107884225
0.0143640301953378
0.0192100872620881
0.0147740233834798
0.0167296342925912
0.0130877782723422
0.018672261390669
0.0160032361948034
0.0190645716979966
0.0141650360213349
0.0173737149954417
0.0138758701206193
0.0172226400209795
0.0146105243952041
0.018904664122896
0.014170759497041
0.0173928130421086
0.0240235095777231
0.0280037655737969
0.0177099029812324
0.0206278759000578
0.0135323281200219
0.0251118904618707
0.0241463935462469
0.0250484515490741
0.01179628612673
0.0201782081266916
0.0128550380547592
0.0190430271929415
0.0139992374833466
0.0187941819209488
0.0206930857391479
0.0232885477403034
0.0161845469670431
0.0202618899273583
0.0167446287149335
0.0155080394416755
0.0135624987928658
0.0168614352300383
0.0154061739412988
0.017397428679317
0.0154522928109003
0.0167264318973329
0.0126234650705458
0.0197322160871059
0.013996651228348
0.0185839656626569
0.017722769716835
0.020783519489871
0.0144775693775478
0.0176375770906447
0.0152375387675379
0.0166088987719562
0.0236371511904211
0.0278436213710539
0.018253796996068
0.0169584775666797
0.0174568152396519
0.0166239559133721
0.0177808164931842
0.0149081323027611
0.0147354261259482
0.0165307387565196
0.0138762093943963
0.0167496313947038
0.0146900037605065
0.0174069681287687
0.0136256104109358
0.0153776292581165
0.0162781620319017
0.0168645388590897
0.0144704809671317
0.0189321344804641
0.0134807724687077
0.0266004579579066
0.0290230347576369
0.0385307098409687
0.0275423020275121
0.0263458855073496
0.0216960881052479
0.0182562930759571
0.0145450103354958
0.0161011796865942
0.015203709318163
0.0173268513176799
0.0180041651136907
0.0183903732895838
0.016593157058835
0.0150202990805616
0.0144423545954223
0.0174270012580946
0.0135493501759056
0.014854251464648
0.0148877547149017
0.0146908454741325
0.0170188035610197
0.0146470441774324
0.0157459373623351
0.0216097786716394
0.0228473070474613
0.0149444688148751
0.029933822499365
0.0432565345156819
0.031663676852297
0.0239464910749603
0.0186662418810154
0.0186609922873489
0.0118205631413
0.0168894300450278
0.0168208454729453
0.0233974069911618
0.0181384737354014
0.0183324723992083
0.0157900373230685
0.0191071812796011
0.0133101944237417
0.0198358802647249
0.0306784240298027
0.0396866350506697
0.0261555660726944
0.0196074192214417
0.0143476379755354
0.0351872162593518
0.028581831041999
0.0232140764431697
0.0152411409037028
0.0214177449577985
0.0127579476540252
0.0173518867468065
0.0125715813900791
0.0179869485353019
0.0199683713256087
0.019503707272125
0.0151708528714133
0.0194220688103721
0.0145915683743909
0.022308304395053
0.0228861579666531
0.0305354310004554
0.0216354497050674
0.01932141451498
0.0199277162418725
0.0208070723958141
0.014997332105521
0.018274671317087
0.0133405938034143
0.0193917893418607
0.0274104066346128
0.0305941825860824
0.0233338923995463
0.0335448224452747
0.0223281634978218
0.0191904328329087
0.0195277109136763
0.0307573073326941
0.0192780790494411
0.021323790025922
0.0379395911147546
0.0352444844657737
0.0404603662832725
0.028447038153761
0.0235452516183707
0.0161644308230652
0.0190167697669617
0.0150952945202842
0.0270670746375246
0.0293686483409549
0.0219697386864365
0.0171618251806823
0.0172681938006858
0.0337989620888513
0.0284425431169425
0.0237383136124767
0.0200602455723724
0.0159111246719361
0.0241849620503411
0.0306796405326531
0.0177076947507055
0.0342510287132912
0.0387270388168196
0.0533236242907772
0.0326351490983999
0.0224400927949314
0.0273630045033441
0.0460154781579515
0.0241652972572087
0.0190284524494058
0.0191129668304211
0.0188991994692694
0.0176511941779557
0.0364504842777662
0.0352535455803149
0.0243110000470962
0.0203943492548973
0.0223447055509356
0.0239098907065971
0.0370681736224655
0.0276138609806361
0.0211171826558992
0.0195494360792975
0.0206335411044588
0.0329597541886402
0.0561232289751414
0.033230024019399
0.0443747195277236
0.0389229000634689
0.0428500208480956
0.030258835674223
0.0319491687259836
0.0257355084616757
0.0449944045214538
0.0390456584241123
0.0244867686126229
0.0238909357113175
0.0480888277287971
0.032434231305074
0.0294907032130607
0.0225224977751797
0.0248606288039166
0.0304949922491071
0.0704824284434609
0.0657540041141659
0.0484376087307223
0.0259570971486779
0.0372330641721674
0.0441887525095337
0.0337996850757381
0.0217435091234498
0.0268021621965355
0.0230669611525808
0.0247075063145397
0.0264271816196385
0.0333464451032501
0.0265116914623366
0.0267895776061234
0.0249909954390937
0.0354350503958181
0.056359107542017
0.0801113495468902
0.0482657359573794
0.05097107085446
0.0581193145878871
0.0503735592505686
0.0312086541191688
0.0283703776431012
0.0286761938295743
0.0402465799661323
0.02931697620161
0.028659455757572
0.0337662477871335
0.0551371250345706
0.0422563060536521
0.051815724113778
0.039088617596065
0.0373195584275458
0.0392830626839333
0.0849985311253899
0.120127129670407
0.0598829559087078
0.0465411329375629
0.056847011724692
0.0783600665876932
0.0880878120779765
0.0426812622048387
0.040604442963649
0.0360727566634856
0.0424297425837447
0.0487048247225076
0.0534934034584465
0.0538649587668662
0.0630895237742536
0.0479535726729043
0.0581106493326979
0.0852573653447134
0.130378635545176
0.0980102996746875
0.0656461408848273
0.0584507126294782
0.0793058467133263
0.0665105146847104
0.0617586760537477
0.058390780893257
0.0610021285860561
0.0870896896050252
0.091277564254835
0.0690743735209051
0.0643838290735217
0.0789922175017959
0.0886110384426067
0.0777436124040498
0.118166574002538
0.0864894854892376
0.0815757264912897
0.0697270889481328
0.0761662916083427
0.0739800916031486
0.0899109293350125
0.101268725529862
0.0921577742353081
0.0814438483797108
0.0841918008198344
0.0820827933274777
0.0853441337748369
0.0835549235245679
0.0909623491555673
0.0983111129367638
0.143276986113641
0.142589774771473
0.203817172621642
0.110195162167341
0.0979993790608663
0.08773676021841
0.107256095910267
0.117561778498047
0.124810543866182
0.129967566376228
0.107362202373759
0.0875509585587384
0.0935318137467269
0.0913706469967732
0.0895011353222173
0.0914975741684282
0.0934160532598835
0.0889967019218914
0.119489441110597
0.102520335232464
0.155466029588193
0.115938003691706
0.0953488900809814
0.0863592817495808
0.0926764157207943
0.080787714690124
0.0905513098549578
0.0837657162731556
0.104534228191562
0.0959517765022957
0.0834931017854913
0.0790235556370605
0.0878738485366443
0.108457013480291
0.101202006490975
0.0771641002258921
0.0832943634977779
0.0784029292283101
0.0812829088009511
0.0778122944305226
0.109650296026563
0.105731459928335
0.0836189916035471
0.0729779674745946
0.0776204650416131
0.0701201102778373
0.0725219952358756
0.0666861122084171
0.0779551505364237
0.0711413572817135
0.0767446713847048
0.0718677981984421
0.0750941444574994
0.0685396576046924
0.0710697676237373
0.0706852894577624
0.0739029981570958
0.071635752508967
0.0746686296789558
0.0678236434510513
0.0720437468100118
0.0663324339584058
0.0709429001577882
0.0673100551672466
0.0746318060110614
0.0705408304374004
0.0722713627395307
0.0668569044798205
0.0699986581043748
0.0715404127438135
0.0696061093293539
0.067257522768362
0.0680841315243625
0.0611791692516591
0.0691128780892819
0.0650406920421798
0.0693527888283152
0.0651238039830965
0.0690638238978811
0.0643896838264671
0.0667453627008212
0.0638734866945444
0.0700098321613735
0.0828802408454078
0.117041690361187
0.0750641220063454
0.0721774434117045
0.0651237753252873
0.0695371370331001
0.0650156738615161
0.0732120218536591
0.101697900554392
0.0876273650927424
0.0648599423252229
0.0638094444937537
0.0642956394000194
0.0823716700054751
0.0673172712173842
0.0642553138637685
0.0626819553964944
0.0717810878464565
0.114985191335503
0.126642668988792
0.145233936114704
0.118752940541443
0.0706461730276707
0.0702466246431875
0.0862855282396574
0.0880250865144247
0.0592505686907766
0.0631257823067397
0.0619370428781159
0.113196956164483
0.0679550404424846
0.0622398541520656
0.0594511402832678
0.0630498220900057
0.0903445576144839
0.0850065887921711
0.0804403810919966
0.0951046411460891
0.0939267827413586
0.0928798181000618
0.13101973115903
0.113405720432086
0.0802748441644595
0.0575060214786489
0.0615478574154494
0.0599762468016324
0.0723302037274048
0.111935309365783
0.0628667743032709
0.0760730208990802
0.0504605967810465
0.0549718667571611
0.061467528730898
0.0812511248491137
0.0696032943287169
0.0779443086814024
0.0847627796307477
0.0545077270503325
0.0770886279415726
0.0850157902654426
0.102993248602567
0.0974419124867411
0.061371211249554
0.0569926001686608
0.102255625017268
0.0876382386232418
0.0656791482989459
0.0707731531506593
0.045414733413148
0.0633191507907079
0.0644448345643132
0.0536837825292853
0.0759109898163312
0.0757985180818962
0.0939114854202047
0.126420216021769
0.123991213668428
0.0968509652437098
0.0545729708273534
0.0451689490228168
0.0498692092476022
0.0504135181862198
0.0499287084327203
0.0454989344066398
0.0779475347913135
0.0551221065529371
0.0583316442764877
0.0914944803641188
0.049899606380815
0.0453254984860817
0.0446038783460789
0.0451553921359182
0.0565540597507644
0.0829771301504979
0.0870944643569337
0.0677700383054054
0.067782537078317
0.0728875485967702
0.0489580819324011
0.0555828817335924
0.0490737967677924
0.05106050062293
0.0552535585939848
0.0681373422861712
0.0542445196561486
0.0572170630862407
0.0524353847047924
0.0653279746611165
0.0854503147252197
0.0818756950009084
0.0607238935721602
0.108429996437531
0.0813524254830293
0.128564579255442
0.0743282855596071
0.0706582539695837
0.0705861156237536
0.0697538329639475
0.0709368959330339
0.0719183964703765
0.0870053474370561
0.102900829454926
0.0682438036258818
0.0820114880477596
0.0702382758588829
0.0825907307415292
0.0819111709279489
0.122976412189628
0.105000097095748
0.156033517807449
0.113749288106371
0.101593328406525
0.0887066472236201
0.081264141496466
0.0943237534773435
0.0837330121421742
0.0782108995924686
0.0867737213297691
0.087794102053098
0.105993484130109
0.0824297900228817
0.0892771038157247
0.0836101454105707
0.0852400049961165
0.0799992186799057
0.0874662888703037
0.0860117161294307
0.0887194666198692
0.0845816911122409
0.0948137993921829
0.097207830929767
0.154086403377505
0.0972253619625022
0.0988678368522847
0.0930051786303284
0.0988534446720254
0.0924828103074033
0.0984403771316361
0.111000126767919
0.0996886435729619
0.0968295271719677
0.10004218509524
0.0928481726254285
0.102311277838699
0.110288115947762
0.123579890305165
0.0934133132400249
0.109152597239476
0.0995909108186435
0.147779302254223
0.132153147033769
0.115061260501211
0.120767153732294
0.107069920382085
0.104619937337183
0.101958751828682
0.100634174815746
0.104902505489466
0.107718924507583
0.10614558541911
0.10352824147186
0.0998524795606828
0.102541887939214
0.10268015402411
0.110103008188085
0.12468111197502
0.100570080983576
0.103572147924049
0.0989369046357293
0.102421234342755
0.102597655547406
0.131266972659929
0.117897737042821
0.107597094767762
0.113242322229714
0.120899743493738
0.121065398775465
0.112598467807539
0.0955679019089316
0.107752185821242
0.0991066157679387
0.103165550069407
0.0985059342773197
0.116661919919197
0.131437604472743
0.106250184011466
0.104444541994026
0.102321487863021
0.101572312050858
0.102397887376198
0.105054315792641
0.100877499761384
0.1063891898425
0.107630394608007
0.108280529710499
0.10234060302053
0.106842664493221
0.123442600687692
0.121068638366799
0.114710707526295
0.101649943158418
0.10118840572069
0.101144301111726
0.103407682081178
0.109377328300361
0.102557680918891
0.0962135513174684
0.0986226021536977
0.0987326933355701
0.10258904370049
0.127063121758976
0.101041520662359
0.107497366214176
0.0949537826184252
0.0907917036917237
0.0967784734001766
0.0895631548825401
0.0895815418289893
0.0895356920388737
0.097007363414411
0.0870888810963708
0.0915016660821716
0.0859640992684296
0.0881321273477065
0.0859780140203126
0.0894586264275422
0.0847242571604862
0.0873858201428989
0.0831866148734345
0.0872291088542058
0.0849047285183811
0.0842320022008477
0.0891525431105824
0.0859036684497487
0.100142876443017
0.104930366517397
0.104056796943588
0.0921286199092882
0.0879126665104942
0.0934862812626619
0.0806465905956152
0.0890184825518705
0.0816661249972686
0.0882117597287792
0.0836176520575796
0.087455533610978
0.080887584311223
0.0848506340405115
0.0818618293944089
0.0868598544744444
0.0814816440707842
0.0876386272582286
0.0829471437380588
0.08760935341421
0.0826469359805341
0.0871088351912013
0.0860772662621206
0.0933651020438582
0.0887140645084373
0.0862826093270182
0.0858565947171819
0.0849757621575148
0.0874773434637655
0.0882915064049387
0.089474794921956
0.0842483462577941
0.0845230863198418
0.0845555361004208
0.0843204378809292
0.0860100387640481
0.0820150563658302
0.0834110796074444
0.0806405257372878
0.0815941110083347
0.0814124186433842
0.0821059564820652
0.0804384267476228
0.0796397865434437
0.0765171830416889
0.0803639396551324
0.076766815955639
0.0798426096501792
0.0778557973512108
0.0758439030025227
0.0752154864455507
0.0722826884002026
0.0732698123034965
0.0752587751222339
0.0723614474582127
0.0723781844864061
0.0736539854935476
0.0757342112716355
0.0694375453028865
0.071315921692782
0.0693725966703691
0.0732266868719637
0.0691630099474867
0.0719619322204695
0.0710415807472061
0.0723418548022548
0.0710775924555937
0.0726849950652042
0.070566872412472
0.0698973034862986
0.0714781843927125
0.072210851678876
0.0740860812630316
0.0722167453188665
0.0745357967347817
0.073720372214942
0.0747736141906503
0.0743868946321522
0.0736906145223318
0.0761229685318077
0.0755229476346125
0.0748705459885046
0.0757021000583335
0.0760685491055236
0.0756700239674441
0.0781019202041289
0.0775053941373024
0.0786385654327682
0.0767999520476883
0.077651033248848
0.0745528927740565
0.0765199105876776
0.0747963488765406
0.0777877558319076
0.0752372612790801
0.0781758202542886
0.074503524489889
0.0752974873580222
0.0747845402908257
0.0735257466513053
0.0737263780447559
0.0751617109211261
0.0743834235809138
0.0755173163344765
0.0739818788940221
0.0742217083197306
0.0722946045350914
0.0748419808564448
0.0715650588361681
0.0728923143355125
0.0706858724902229
0.0728837663005752
0.0727181603849243
0.0713875233068613
0.0712374995658536
0.071991897071331
0.0693324612222822
0.07180928192051
0.070227744354188
0.0696278472467071
0.0693794026299604
0.0714522400758108
0.069980651885989
0.0704706544612599
0.0711425601417582
0.0695151757355798
0.0687705042796762
0.069034453571201
0.0670146757766301
0.0680861047137299
0.065431187271828
0.0683356770037808
0.0665792319796133
0.0668048411272425
0.0644793693644606
0.0658654457828327
0.0635904461827818
0.0662097735550025
0.0638643124912116
0.0630629286880767
0.0636556381440839
0.0617457947766076
0.0633626371456102
0.0648368965485754
0.0608001089719439
0.0631432716358277
0.0629028819091289
0.0620122041714512
0.0622343896890317
0.0633234103939534
0.061323044851468
0.062256630690711
0.0602300087870601
0.0624693599724754
0.0618271043055728
0.0626890360379188
0.0618874381105463
0.062249607926149
0.0594347837594338
0.0578574601270697
0.0579266604340629
0.0591323926934112
0.0564039821792554
0.0570121940872541
0.0566387313247177
0.0567510004411033
0.0573322004672179
0.0580087821898644
0.0577539736405913
0.060278634077686
0.0618052116508356
0.063594710436202
0.0616567773313917
0.0669303182591954
0.06868246971957
0.0728762331916942
0.075284815408261
0.0785721242340477
0.0801710340292076
0.0850970578425687
0.0879258970615446
0.0917477088551944
0.0934149625421171
0.0992657811764615
0.100000543568475
0.106953974054519
0.108829194870543
0.11399315381179
0.114551998091783
0.118689482951629
0.120691921330212
0.122543465441235
0.12450094263139
0.12942779725074
0.130663748653813
0.132272010930222
0.134418881033392
0.13605304222786
0.13655851647997
0.13847042012856
0.14024805803756
0.1424109649943
0.142240609228581
0.141652333904014
0.14285360281766
0.143930138998611
0.145102817908037
0.144699414447487
0.144164115219394
0.144096509305123
0.14492667127575
0.144393261290077
0.147055050268923
0.146388628218421
0.145120594401996
0.146176573980418
0.146155128781534
0.147930812676603
0.148637744555531
0.151016504712135
0.151935460074177
0.154634313180305
0.155263205674721
0.154083039635741
0.156063396835709
0.16031278777761
0.160870953439913
0.161723961242849
0.163283423660924
0.166453003242083
0.16889561553605
0.172607757298539
0.172719832784368
0.177742889808788
0.177871918954822
0.180936716028723
0.183903866793492
0.185854469628043
0.18556889976228
0.18686321535465
0.186981655870257
0.189718800423259
0.188408620132112
0.187788770062538
0.187873986816994
0.189905760713445
0.187289782253068
0.186241261131047
0.18536774637354
0.185364127511891
0.18480648149642
0.184356791653211
0.186314079313085
0.190542879109938
0.191712223286611
0.193156350497828
0.195941013998253
0.201676422094515
0.203987375210116
0.208922868894407
0.213055423033884
0.215835125499628
0.219018135691212
0.222224284012283
0.228898107817826
0.231190143647742
0.232609453043124
0.237175428558132
0.240586752910071
0.243204291939093
0.248004280620846
0.254002201439981
0.258614822316798
0.260754776437723
0.264422439118172
0.268605271703823
0.272745533645507
0.276674343474682
0.283444534094156
0.28715067344869
0.286928293583049
0.29273799120636
0.29667976062986
0.299754853831904
0.302233367685825
0.303855926313537
0.304774325852733
0.309477766709804
0.306595433926794
0.308830327298221
0.311190293990596
0.307199694894808
0.305344934165733
0.306316032110636
0.305658674066525
0.306333542747225
0.302621614640233
0.301412780775799
0.297715468197042
0.296926037216
0.296531378420122
0.295457126052245
0.293268330366154
0.289094806702504
0.291056669879778
0.290804614147987
0.291298868567872
0.292045570332152
0.295863437263433
0.296280157331702
0.29902934112687
0.297510145087704
0.301442890212996
0.301783771755117
0.307034475311616
0.309049416802514
0.305598685549102
0.305550797656341
0.310305674282418
0.309639442780584
0.307144502268467
0.30840323880243
0.306131899461921
0.307031091006974
0.308160365116247
0.306248800881694
0.301932159272337
0.298802695639473
0.302749966514281
0.310328903165999
0.31573232972503
0.304924810322226
0.298356043429723
0.297508638123162
0.29524468717151
0.288623548556541
0.288095373050262
0.283878396939968
0.284035467160183
0.281189857183581
0.277705166774021
0.275528529606195
0.270151478047004
0.267192710175194
0.266533648153751
0.259670531818868
0.252317259171855
0.246446035942738
0.241539516316477
0.238165448175455
0.227936146150513
0.223238339989315
0.216850651505575
0.207651427095535
0.199191113084043
0.188438746430961
0.183768830615537
0.174000614048101
0.168198377100482
0.162562678006061
0.157015489341456
0.149326672143035
0.148768025158218
0.143859846108965
0.141413389419037
0.140659806612214
0.139289336731136
0.137882442732052
0.136866526508744
0.134896573182002
0.13386355832121
0.132805541240622
0.131731177539484
0.129143644982447
0.127205213150068
0.125700783766355
0.121313620351368
0.121319440712498
0.117770137226682
0.116195662763803
0.115975075753993
0.111666961326941
0.107160320041177
0.104663733562899
0.10018813800538
0.0964057107456505
0.093418799181033
0.0881867931177201
0.0856605536439144
0.0826211796010691
0.0816895122148725
0.0773467731953068
0.0718522002769459
0.0674949116422073
0.0679006691328044
0.0617576535028697
0.0597671410460886
0.0582043802744245
0.0549696835941693
0.0536578301847809
0.0487960088577841
0.0479151192437059
0.0467500870840832
0.0463353878334544
0.0436478501025751
0.0460313565936041
0.0452061932749376
0.042354217069742
0.0436883361077256
0.0444255237757374
0.0414752378903986
0.0436425082383027
0.0425740693867697
0.0429510099568177
0.0445899515947447
0.0427915988925086
0.0433401787778825
0.0419375357569389
0.041983615766998
0.0429050684632052
0.0423890653284539
0.0455477106932335
0.0426628172789372
0.0436169717562705
0.0446729036007178
0.0424467756441298
0.0433285892914538
0.0413159728271292
0.0433421338456183
0.042484780944424
0.0413749460504033
0.039738552740559
0.0436586482604308
0.0417949418155663
0.0433701935921526
0.040521337598379
0.040428726761453
0.0409003390954612
0.0422704077809612
0.0415287989869491
0.0435392642915155
0.0413244289872358
0.0416131706626967
0.0437103923241477
0.0439977326814771
0.0432519997365867
0.0482427868452306
0.0469677061149552
0.0470483366635703
0.0464049982068125
0.0465481303395739
0.0456331105757501
0.0446506737023519
0.048595743260604
0.0467259247396544
0.0470020965050606
0.0499740327275001
0.0460971465113577
0.0487189987444304
0.0483351543053135
0.0481592481727096
0.045152175629852
0.0489543804650742
0.0488169697135611
0.0496860517386772
0.0464102266751913
0.0536319516419335
0.0517397853697089
0.0508391458131868
0.050234751482361
0.0601470537058501
0.0574600562637414
0.0565955088945881
0.0600628716880838
0.0623603970204248
0.0623682989829953
0.0655172554556646
0.0662699054663146
0.0655953785662375
0.0658393630245115
0.0681600043709934
0.0657258543932086
0.0671689616390601
0.0672737038725909
0.0650902976699723
0.0610146317302843
0.0596830068061219
0.0579665914352987
0.0614920153490255
0.0583578869848105
0.0596712630452129
0.0570685308706222
0.0587765547464725
0.0597125729890444
0.0574529003445593
0.0582155113858135
0.0566626207684507
0.0561932561566293
0.0585569641667875
0.0551889564953756
0.0597009809486111
0.0601780921216733
0.0550781976084565
0.0508269316123222
0.0538783473678771
0.0543494392214317
0.058258510113206
0.0500680083025874
0.0540934941706626
0.0504320765075767
0.0528046207996426
0.0542829320874808
0.0555072347954576
0.0472233182534696
0.0491843108251064
0.048740775488256
0.0459133738921525
0.0486518753981809
0.0471038820351344
0.0468622509918056
0.0554140248284461
0.0498076626678355
0.0448527318512111
0.0486019662719198
0.0481144227581682
0.0448645624806755
0.0444326829785511
0.0470393026938586
0.0508731842217667
0.047317914157478
0.050210243652797
0.0461187535171651
0.0466418159777093
0.0468079960646792
0.0440501665094275
0.04781894227171
0.0410371791935456
0.0428810999521032
0.04899876904001
0.0416006853924307
0.0498170959110336
0.0406142001238609
0.0439565118134994
0.0422409025173109
0.0409133653599741
0.0455544780779459
0.039056252572706
0.0371999698637308
0.0483572844337135
0.0410164434109961
0.0430137955459686
0.038364708269038
0.0404624447757352
0.0425251492725323
0.0438751801133481
0.0428704055552512
0.0455239113694282
0.0396797332164482
0.0423618173292561
0.0447766695260658
0.0457519181357572
0.0460363006228261
0.0481972205190086
0.050345280349468
0.0475385505055631
0.0426786880583862
0.0494546506669573
0.0431014333539001
0.0459612207425866
0.0515442024206412
0.049168605945145
0.0495452093964274
0.0528570536657704
0.049020455088981
0.0517301017734769
0.0443090837516019
0.0506101757283918
0.0594770503578919
0.061563806373512
0.0511161295568398
0.0521494565412356
0.0527711768295873
0.0676673680151628
0.0562707129328071
0.0621092045354784
0.0631931197432948
0.0659714715050719
0.0651942254344579
0.0694104255303551
0.0715942958088739
0.0777084476524413
0.0744430212069324
0.0797831493327599
0.0774151815627789
0.0858132447758087
0.0911292051295576
0.0855395454068602
0.0781587852749512
0.089501026008632
0.0861007318701414
0.0784966573244096
0.0789170313631765
0.0850223357399422
0.071115701034033
0.0780799633308296
0.0792602281199652
0.0896089394918287
0.0753212620602016
0.0906091622818435
0.0742179255286904
0.0758502652558561
0.0829455470534005
0.0820186143589157
0.0660112803020937
0.0847238158924881
0.0686412158979051
0.073535065612676
0.0776962514004131
0.0691788127075079
0.0664984028375439
0.0685246024450547
0.0680289322925676
0.0705320337708637
0.0578464683010828
0.082740875946857
0.07978718923302
0.0652995679878462
0.0571434741376764
0.0760904728036905
0.07171437686501
0.0621111193891931
0.0695628754376386
0.0814699247240714
0.0606867622059654
0.0638149064055707
0.0553767945193609
0.0779120327076181
0.0756211810507571
0.0640947572438591
0.0776677512955917
0.0860244157205056
0.056606143767274
0.0574348993113381
0.0720193285048421
0.0801749799877811
0.0815590728421405
0.0857173495132259
0.0747106665186038
0.083151480278817
0.080169081515003
0.0648790930772831
0.0770396069031973
0.0816297481391869
0.0792046103875647
0.0848610785398809
0.0584550727386611
0.0751791716458187
0.0653982919171421
0.0752949506007958
0.0655824633638429
0.0788468878001532
0.0615020091897546
0.0963680576570044
0.0885446437298216
0.0937419341934482
0.0802382724805273
0.062009772719114
0.0871366244095573
0.106540083599515
0.0729691872850003
0.0985424086716089
0.0887166976713168
0.0848782664179333
0.0766084408628238
0.0910761282853638
0.112958482420115
0.0898190466261173
0.0902663539521128
0.0969542818836637
0.106708748592245
0.121258153035474
0.0767093227855951
0.101499400741923
0.106496434943495
0.113003845386205
0.0919553376879258
0.128068289118103
0.0836671961045331
0.103380978506738
0.0762209404086973
0.109819564653654
0.0995694290883202
0.124109453016684
0.0921827399722778
0.0782928341370417
0.0868183427049539
0.109566115330926
0.103059330433908
0.0917366781729026
0.112707155464243
0.118124362393539
0.0998134320833289
0.116658583287935
0.110819321836672
0.115741231954928
0.0926377910190205
0.110331896406247
0.0785961953646195
0.104889500947638
0.108766956723927
0.126866805546896
0.0846161000011955
0.0961990008073669
0.0787566006682769
0.0628662247598486
0.0670575804263124
0.0883356742291668
0.0754148769304933
0.119902737937512
0.0808356875261087
0.128433801888742
0.104012718039585
0.210370126740195
0.0796933670967861
0.0386472858462129
0.0478516094569425
0.0574730210620127
0.0504533594685062
0.0972217270859868
0.0682744164024004
0.160810746131428
0.0412833338036918
0.0245142223915639
0.17720750905629
0.255824969110022
0.0749580812145025
0.236043396664691
0.0255907675711871
0.139156557974094
0.149001813192307
0.045813721039513
-0.0280005083261296
