3596
4000.36533379555
650.420452594757
1
2
2
0.0592832085007499
0.063969232302009
0.0577245969059262
0.0686831044062897
0.0521387612984298
0.0632779983652144
0.0551040177932821
0.0612750332968403
0.0513513262105026
0.0708386224848605
0.051272260265632
0.0598040725272408
0.0491392776609885
0.0679775000821025
0.0491265505540427
0.0682696554323869
0.0539090823727198
0.0665827903134308
0.0495241392431552
0.0564875293700439
0.0522604782410554
0.0609568892421251
0.0477338858458517
0.0619851305151416
0.0574322611608749
0.0771733287918346
0.0528477328163632
0.0605715570335142
0.0533960999621787
0.056165228798564
0.0508935574018997
0.0611196016946419
0.0538685749498976
0.0678297526831464
0.0500692382731558
0.0602754615076017
0.0442322070423859
0.0655357753688481
0.0478465002108142
0.0765515364263556
0.0550811744667826
0.064392860975591
0.0577497363294571
0.0664500385407134
0.047155578297446
0.0641535669763807
0.0493688940619109
0.064433623037803
0.056609108909602
0.056999752825998
0.0492952545219879
0.0634090059459577
0.0678930413566181
0.0658204282535496
0.0566060770762612
0.0842932746308769
0.0588631953478449
0.059673075277621
0.0573087576595763
0.0654425233944262
0.0686780675657863
0.06702701152171
0.0553249271379049
0.0665888566429378
0.0461885134043055
0.0678874747824397
0.0417047716732845
0.0689046278735936
0.0483534053260016
0.0651839934811389
0.0505881489922188
0.0804888495605431
0.0627211540225096
0.0606365956061393
0.0496366271872407
0.0759280276922568
0.0572444222667311
0.0609111482036046
0.0470225441698394
0.0734547968691038
0.0592224194560856
0.0762359253128563
0.0542385400482081
0.062642332433151
0.0547423399669134
0.0668291601761688
0.0385545666976064
0.0784361161500251
0.0751470264626764
0.0653736347172164
0.0449918927462341
0.0574674895815908
0.0459401776895799
0.0596452037683927
0.0477825599594738
0.0617662652737287
0.0422409639485274
0.0651519488400965
0.0515429293116348
0.0654333981336626
0.073511920026187
0.0788992978604422
0.0778179430861492
0.0584816751616663
0.0965489363793439
0.0706578194330435
0.062744928974543
0.108857949948761
0.0460353434085714
0.0720418497915966
0.0395189956865945
0.0621549139978087
0.0504982259773419
0.0786327623511235
0.050125047844837
0.0912091660770927
0.0646653650869716
0.0553535534056205
0.0478952731909074
0.0611086098890882
0.0527653912748529
0.103525090933741
0.0782280493860288
0.0594088446038407
0.0638021363296924
0.0554572712017689
0.052707862804495
0.0946720300081835
0.0703503683807131
0.0574723156691538
0.0554258546856891
0.0517858692070371
0.0441789926355088
0.0593824612331256
0.0933632461900948
0.056010666155621
0.0664086490819226
0.0641809862095949
0.0863173704330633
0.100210093229829
0.0516201182013317
0.0616010878503062
0.047845609796897
0.0752084459069958
0.0797723209638134
0.0666984138985653
0.0506032434209049
0.0764013108414789
0.0621907526922755
0.0463695883044705
0.0503899009271305
0.0623442171504109
0.073502649475829
0.0676121705196463
0.0558080217825677
0.111749993895347
0.110896490966839
0.0756937217780031
0.105006461760178
0.0539859324444942
0.0729321104567198
0.0487017719782902
0.0491480664421312
0.0499571488844911
0.058803477092237
0.0572482074613115
0.058551851151701
0.0778134788102216
0.0534992788297815
0.0791733287009061
0.069375653884089
0.0791504035194819
0.053200803093481
0.104017139402365
0.0521106162378643
0.0686707601975064
0.0756080031197331
0.0559530495054508
0.0474089292233778
0.0704577486389791
0.0716220163028783
0.046236892264144
0.050151113351142
0.0535519122208807
0.0577599787456533
0.0695995737466334
0.0609579309119574
0.0545219148340957
0.0563652712088667
0.0549096740383901
0.0905666808936533
0.10042805369611
0.0735077346911337
0.0530901298375871
0.0608928609437942
0.0478916458798837
0.0807438326501696
0.0743867806391859
0.0539518911297664
0.0502103710020075
0.0444381925913271
0.0517971010410499
0.0471384510825449
0.0423221571498899
0.0539248869271945
0.0609600010021081
0.0972742501646792
0.0562252634863472
0.0493338333114543
0.0530852136054303
0.0666898473561359
0.0745997073290283
0.103577104620805
0.0755728229842635
0.0490061762752722
0.0600104051484546
0.0495140891891232
0.0748203262836504
0.0632855282075107
0.0558249995565094
0.0506519208325699
0.0530243397536837
0.0488769957332754
0.0471087673049749
0.0466388847734277
0.0579969138264304
0.0473126619985283
0.056032174221931
0.0513124132831082
0.0580193299705639
0.0577810096634651
0.0641001983703092
0.0418088895121823
0.0545849136313399
0.0535346662842769
0.070002261789921
0.0616654303641979
0.0470206696270818
0.0489157318580924
0.0464574252922523
0.0488006324297454
0.0469883584812866
0.0529653327186503
0.0481506814097607
0.0567411955384365
0.058032704057866
0.0840178768958114
0.0582753608291463
0.0581568738470138
0.0584132502779174
0.0659360187019203
0.0593254055849218
0.0460722066508144
0.0592000760920239
0.0509748627244849
0.0586495409588819
0.0582117588878243
0.0963009447891742
0.0595067002407593
0.062490533571101
0.0663000111470987
0.0622717312891662
0.0483006653694309
0.070361790431295
0.0507940494430542
0.110358111772282
0.062231635480571
0.0793982144441005
0.101423654183217
0.0648241580639863
0.0612334394075878
0.076535948373745
0.0569978719843892
0.150339856621706
0.0695798589733012
0.0588892855074932
0.0537946580837701
0.0795778383063838
0.050425496775767
0.0715120907703293
0.0650678433407828
0.0745068177949026
0.105392389523672
0.112517107925057
0.106365189354825
0.0597193292131055
0.0866128161669561
0.0764192769495123
0.053347336753056
0.0550106183263732
0.0465435714822829
0.0660806047153803
0.071127689462244
0.0890670390957144
0.0583437071321125
0.0700914762964675
0.0677629103567615
0.0942051195176596
0.0529798900670176
0.0691430414990826
0.0586562095107585
0.0792243388140836
0.0502894339133973
0.0659353114914554
0.0524482270206275
0.0687201560764486
0.06344984707091
0.0761121292013899
0.0908435282655393
0.0792779261195697
0.0613879910784366
0.0919995619691212
0.0560385748827623
0.0603074147665485
0.0570739542682489
0.0685292149368135
0.0522402992579816
0.0680390303769931
0.0641653836310221
0.0887822183654567
0.053954599157082
0.0621733294166398
0.0604522161826132
0.0619224475618909
0.0592053929887796
0.0642599075146075
0.0600057532906553
0.0612570925643731
0.0553987580955009
0.0695511024382583
0.0758761448103928
0.0898457718785447
0.0614464531875667
0.101127133400442
0.0816480767940728
0.063095538655185
0.0677064608379315
0.0629072516239135
0.0666794383854224
0.0617432010649962
0.0668185160877662
0.0731678045423547
0.0705010048139305
0.0866974048059487
0.0709752282467003
0.0781542490457306
0.0969778862189057
0.13702692890558
0.113463685369007
0.0748236180943192
0.083163303995904
0.090883676860874
0.104815860213596
0.107432173167153
0.0794565337261523
0.105759721051669
0.0621529123820875
0.0850925433855349
0.0695889432488346
0.0826200086235991
0.0739003854099784
0.0888717053219724
0.0775808466955529
0.0902046627767012
0.0873589106387387
0.0895687113510759
0.0888980991514155
0.106371884722026
0.109873981108114
0.0926454130432711
0.0837034605444228
0.101598650555713
0.0968705244901901
0.135074350804739
0.144252911766899
0.14045287690952
0.132884958687524
0.131695240675469
0.142210844673429
0.108235272649886
0.109731472494172
0.102489648649429
0.109611669618873
0.121629772303581
0.118461835096163
0.115257196473959
0.117042299419141
0.124758820675504
0.123596023291825
0.118551355706595
0.129537932386778
0.131578970822971
0.146089805084454
0.131514608076616
0.125946308498943
0.141425601279545
0.171242971374394
0.218740127476742
0.177742500445839
0.163255693827213
0.14987102150262
0.156892857464282
0.135345528526905
0.156691287411467
0.147896320976997
0.169310443687145
0.166552162179492
0.201304089948394
0.18295768312705
0.175825083864696
0.178993826976668
0.168617791707244
0.187323604544719
0.193178542520919
0.204545904639147
0.223034017926592
0.179907905641635
0.192992684992718
0.207311828841562
0.207118434564718
0.197874285781254
0.229258557448145
0.189734592941688
0.200124129500414
0.195272639175165
0.215611468410297
0.21312818872259
0.230771826148239
0.223266056741343
0.230127938032583
0.218477615543475
0.237017941414221
0.23871733912289
0.245767045320092
0.235273859081446
0.235403038651565
0.242024428536622
0.24393573158009
0.242839496257594
0.256147731383176
0.275480448228412
0.293624277867468
0.275580813300662
0.302139911150794
0.26791997378121
0.268254072840998
0.264181455399863
0.280981222971034
0.27184881900272
0.291036742013597
0.285556872920549
0.297248704354065
0.288635490329224
0.300912395980433
0.294160138764569
0.29922734258043
0.300662449701348
0.314716478627742
0.309402649171664
0.325378901392086
0.310842791505199
0.343461025087359
0.369010214944035
0.392398716287688
0.353747063961641
0.371626295056239
0.345698144150519
0.352780445920539
0.340566431326492
0.372251875511851
0.366910244999324
0.38346965282568
0.365887303862704
0.368222951706374
0.38747652233928
0.382062591310161
0.369225183679816
0.4059909758515
0.411628761780498
0.418370967243049
0.406695528154699
0.415143393878187
0.411634944012163
0.420689741463337
0.417490335278335
0.443895381775596
0.438505575402544
0.45173671036868
0.432945908184616
0.437264590680167
0.43926872109342
0.452606749081507
0.455196629875159
0.466430617285171
0.467822752241394
0.487282657776296
0.486920636063996
0.490491483197204
0.475728122652281
0.498916321096709
0.485206268742731
0.478829977723745
0.50534936596658
0.533745776563957
0.518448098132286
0.52070779772367
0.513332045787216
0.534980029569231
0.539454194447008
0.554507174262348
0.540310062888299
0.558038381930622
0.551022551475507
0.561625392020863
0.563328280271158
0.585492664493062
0.5602894274241
0.582123320908939
0.587799312763413
0.56804588564245
0.566991942554919
0.571742871730464
0.58776965073426
0.619512526045495
0.621922539386914
0.628890395156011
0.631959526758478
0.616087042660888
0.610660676198396
0.64845919371773
0.62281733461522
0.652116980396729
0.671173997043863
0.672791122938939
0.670647805068339
0.665505641778523
0.65402435926989
0.661906057957796
0.669357350848625
0.705887121516936
0.7028596104703
0.675635675682589
0.701758352762017
0.746219969721286
0.725314519724362
0.704375417165507
0.720945197368218
0.734615244721026
0.736413876798301
0.761304362602423
0.751430275675764
0.769470678776808
0.758559249622228
0.766802229448359
0.772571799135263
0.761578581311431
0.7593763432085
0.762155465657314
0.757598533226878
0.805744932419997
0.798212288795908
0.805300880452877
0.805709705427404
0.792387293748425
0.793381838842772
0.836352286168299
0.831227935449036
0.784522065852436
0.788490569794041
0.796567743848903
0.802635541536183
0.839515830759461
0.89919820844078
0.926167357043311
0.833574832344513
0.854452138254469
0.892044088222483
0.877634345238227
0.896521047298582
0.916843682801338
0.904810256014232
0.896848693066539
0.907008932534485
0.893810710234589
0.89870226622418
0.911247498707601
0.932802084704386
0.937463998760887
0.978025193924243
0.920596309078939
0.925576252565852
0.987990723433667
0.966060720592378
0.941054499506715
0.953817336806622
0.923763870174563
0.979911691796539
1.0449128977925
0.976412193129631
0.963076101654474
0.965275613590354
0.958277003124645
0.986972083256643
1.00593300869048
0.972995335294119
0.9347265389826
1.02449251893397
1.01051751024354
0.966764147825711
1.03236991896677
1.01906800643792
1.06923461080791
1.02006717957825
1.00567193448505
1.11021068626034
1.10051380861527
1.07259933011027
1.02310773766611
1.06772960649811
1.075612919589
1.04355938935373
1.07505513785451
1.10794218421097
1.07079320566617
1.09692366790263
1.1075750104552
1.12361709798861
1.09657299542408
1.10680958132445
1.09260233054867
1.13767551675183
1.11404338682111
1.10229653154448
1.12051352736792
1.18775065416193
1.15844413600233
1.09676082798146
1.11566013336432
1.13522342023619
1.1277906528024
1.12103009557946
1.08375979627363
1.127040108092
1.14708505434601
1.18022857662549
1.2405346871655
1.31203178972726
1.19633506169318
1.18036104844737
1.1834313925378
1.14869180830661
1.19650607125592
1.1983646198391
1.18208113627977
1.27960702615093
1.19393487352759
1.12699987545739
1.19826874463209
1.29613896400415
1.24596142423738
1.19361454377949
1.17564010324271
1.20171914495986
1.19996698440954
1.2107002691114
1.21481471411927
1.27231414734759
1.18289106307954
1.19021473327232
1.32399484614711
1.27337114845058
1.22560229128439
1.21914379799397
1.15323241413111
1.28167299402776
1.24245552639054
1.22486351626724
1.26902368240427
1.28727997049487
1.23172046158413
1.30933872193028
1.34345279384346
1.32676913683569
1.23941513034638
1.22365850434244
1.27747808168292
1.29892624719595
1.2181079553775
1.23113654862699
1.26304660832166
1.31622120216954
1.22259875048532
1.24210071980571
1.28773789790732
1.30004674131616
1.22646450329366
1.2651107572646
1.3785939820789
1.27351490902999
1.21706369505011
1.27516088871985
1.27777443134963
1.30118564599838
1.26348890931967
1.31154271933141
1.3200873980884
1.32618363982203
1.23346714751801
1.23595878982586
1.27896249836063
1.35230701522407
1.27820186279053
1.28105031955052
1.27994026078351
1.31004309242148
1.28559523322377
1.3099757514732
1.2881195680799
1.32900677624716
1.23511540335442
1.36050356060472
1.2363211674722
1.27766319526163
1.32786144145365
1.34043303577843
1.33352217705084
1.30399778022937
1.25611144525001
1.35510024236335
1.23288951919768
1.31026632165528
1.3187144059839
1.33652245414494
1.32961713194052
1.28227431277588
1.23593909864089
1.27633217463094
1.27375966884186
1.30683990865147
1.27485470493819
1.20110121733907
1.29546896175421
1.37950993030288
1.22132971239282
1.24815973064646
1.23710061108836
1.35823262307041
1.34098980941258
1.33426376908353
1.30199006023409
1.27044695444912
1.24939102267817
1.26718033691654
1.26519609253037
1.34115490623116
1.27061953401232
1.3170200677854
1.21054748122918
1.23782402620123
1.25993317742904
1.29403189602477
1.28527523027077
1.25850875518982
1.26763574739879
1.37191166907305
1.26128991447697
1.26231880322009
1.25969563573329
1.35559658134336
1.29515471607766
1.30959484337339
1.22161319316494
1.24914871343575
1.22411169281351
1.23683256988243
1.242889394354
1.23296837414933
1.28820686972309
1.28576597435065
1.20556695535919
1.23518215844905
1.22380067420846
1.28688091887977
1.28312229298213
1.30216719460115
1.25778157057078
1.25792260770221
1.21390085814003
1.27882548784778
1.2336800675341
1.26943427487656
1.21711397482579
1.25371370998027
1.2010649386199
1.29347592060475
1.22587923431101
1.21541172346775
1.20391983416101
1.18846875182779
1.18170191635677
1.20937651858061
1.19979513490236
1.28850804347892
1.20592283369333
1.22918472810885
1.18317490066382
1.21351592779359
1.16219696063784
1.1824185443797
1.17186810700195
1.23084999739403
1.21136488750606
1.17095286004191
1.1639426299232
1.19010736117963
1.12432190385029
1.20712589180269
1.17240360715561
1.1675387779439
1.09320940668653
1.13717377401461
1.08987343962795
1.12984828585104
1.12168603387448
1.12949541568795
1.09473006039388
1.13868515074288
1.12936358392747
1.14251855630963
1.08882692548735
1.13133227143178
1.11440593079503
1.12382194888454
1.10446992935486
1.08647561670442
1.0634040160649
1.09497541222751
1.08466426157699
1.08861235817428
1.07189107215389
1.11165497300259
1.06204857655833
1.06706390745621
1.05503146064966
1.06887189690369
1.05060078949915
1.06185678850596
1.03101719971422
1.06440037995153
1.0281973801695
1.03570201054269
1.03357268034677
1.04818824630125
1.02230363145251
0.996696715341459
1.01392142385734
1.00408540370801
0.998262145953592
1.00709704156951
0.991137859121665
1.03171535520761
0.979178398923616
0.998149608849986
0.966247351589203
1.00877113159914
0.975213078754024
0.979382503312044
0.952082265916756
0.958912730919334
0.950115903358512
0.962905549520816
0.952412198760656
0.940275845205998
0.937051146946527
0.969410496982267
0.928871538580715
0.959616182626459
0.893876088151408
0.93697801131391
0.88829863099298
0.897071767171802
0.913968360510198
0.892565600311495
0.919506096272143
0.906982778680296
0.871359047848135
0.903620671800039
0.878095896955218
0.885249524505497
0.855271693430345
0.874986512667199
0.867534790692258
0.85167825668752
0.846794362502012
0.863833439812808
0.832025829307488
0.837026249370039
0.829563017366748
0.849806042500033
0.805158878391567
0.842200293079772
0.826509387556699
0.831150893538606
0.822943634932181
0.811467616883108
0.795733417831458
0.804246040056551
0.789536612824218
0.79737011129025
0.774342582226127
0.785831472293187
0.771663698367541
0.796626933639364
0.773154742940884
0.783309103148571
0.748566329978276
0.75400552967491
0.744016929064833
0.750842425607754
0.749784195995491
0.737280576037529
0.728605728310653
0.735660352613897
0.725312550845158
0.724834605075182
0.702939364889046
0.728105341891096
0.724183367990911
0.714655605364943
0.707666749240683
0.697229269043588
0.68680293662666
0.704616351847739
0.69830120469339
0.699314945994545
0.680779124884771
0.676494184913722
0.675571544188323
0.679964370281342
0.665018726070896
0.653901813852843
0.664932227088283
0.658644614511087
0.634742433912614
0.646313384853902
0.648726116441787
0.657441219003031
0.638484679385018
0.645720204221118
0.628154523947992
0.644949117346167
0.616892847912023
0.617434399003881
0.615509828276893
0.611759628565108
0.601713810931609
0.609010903358784
0.597812650419294
0.602034057792764
0.589141318684157
0.595459343720292
0.6016054258232
0.582677812615416
0.57700087714575
0.589479822819869
0.583903981782484
0.583902701671709
0.569073561237632
0.578429567912436
0.567848990700325
0.575324758345812
0.562159941656574
0.564496312610761
0.558972625636946
0.549706058911547
0.545764762535042
0.548883570897491
0.53448867708548
0.546019836412712
0.531091943294773
0.531925212861616
0.528761862144227
0.535103539800713
0.531848525848423
0.519004435855679
0.517441075363482
0.513054451386584
0.50720188325365
0.515418778955566
0.498909133779958
0.502202598750614
0.497872186410383
0.493786889639895
0.49550733118014
0.500070132692652
0.491303006292464
0.497869992069275
0.481292812467946
0.48522792200295
0.481316627818523
0.475695408561261
0.480188829401544
0.472551868535633
0.466522199698933
0.466620627088015
0.46653897127185
0.467653082916669
0.465452202922526
0.458752690957777
0.454286377448226
0.449784159240264
0.449328987237196
0.457110738125874
0.445288478487827
0.444539555863641
0.436812687945529
0.445626529241838
0.433410888324216
0.438347400827972
0.430393433477242
0.424324477341608
0.425802002277916
0.41572747194133
0.414777481107472
0.424748366164413
0.41466023040026
0.408295938463476
0.410963393065457
0.409872415510539
0.402622304670294
0.405836612406653
0.40066417334538
0.394505131875829
0.394018107530593
0.402487705468389
0.40097511330802
0.396523801398245
0.381317752079953
0.387491042014657
0.383818217610373
0.380590841704075
0.381913827170732
0.378811590840664
0.37103001236062
0.376033809626821
0.369628895643052
0.370312157479935
0.368331633708214
0.36650718461895
0.361958942251105
0.361513655069207
0.3540712179188
0.362549962640205
0.351635698590267
0.359158705151507
0.344126915238671
0.360225424279709
0.35451890540534
0.35900391376896
0.34875192129273
0.35023991696126
0.350791919438313
0.349538495757503
0.348900603951962
0.345681227147649
0.332679406339811
0.347764956155687
0.341453337167957
0.33556670665163
0.339133772101134
0.339059450623616
0.329261171219082
0.337195236493169
0.333458233748593
0.334768814406021
0.334201719168797
0.336799468817308
0.330017415207076
0.334122964429363
0.328944513949598
0.333299280975099
0.335196657148388
0.337143574040381
0.33389648510613
0.333445968656219
0.331772322390176
0.338506422851249
0.332474950135821
0.337487363948919
0.335422979543347
0.345417353614441
0.337870985679489
0.345375219231756
0.343993341510011
0.347020746681466
0.348488364931497
0.347612634915454
0.346222623136025
0.357423718938517
0.344237065336655
0.358723134523399
0.361490439313979
0.363988943982566
0.353300344332632
0.368449383543242
0.361250202502157
0.369870923728756
0.376223118444835
0.376795653082632
0.372789154906246
0.378044642571132
0.37659564910648
0.38527628927805
0.383090237573955
0.384243026012457
0.392836695776142
0.385735923616036
0.389742073019465
0.399840909582708
0.392905966292801
0.397900475623491
0.406354622638752
0.405210630540007
0.401899399638186
0.41285222698694
0.417442568873952
0.417512940831475
0.421054485443899
0.414745944174943
0.414029228862989
0.429902331555214
0.423847903492656
0.440112487603509
0.439239958522892
0.446889352226167
0.449745636196281
0.450414585974812
0.448560414187709
0.453692154722462
0.46167829470251
0.456602469867651
0.461258282397824
0.467789200072234
0.473115066162115
0.464781954914428
0.472464162211595
0.474687265458296
0.465825739749831
0.476336155749432
0.482146877936389
0.47264331360242
0.472891973164225
0.478913774236675
0.477644734515351
0.462290792645549
0.469612696181707
0.481163604208135
0.471873279856015
0.472843834185122
0.467536910324722
0.477090171369374
0.472568603522559
0.464986922489497
0.474409745885285
0.469855559971402
0.466268975560488
0.469408473662933
0.460023396315873
0.468413255868025
0.467206003243958
0.47052320893201
0.47864125776872
0.472515971404118
0.471171811287622
0.473614890994761
0.460348200027437
0.461260655315469
0.458247797790896
0.467008812685098
0.465280844611803
0.468244808733833
0.462569361298472
0.471814082305845
0.463479259378753
0.470909164177957
0.464341260382
0.464388813736442
0.474273502997225
0.469202318069318
0.463587247085835
0.470608982825346
0.46747810682853
0.47182780791555
0.463292726782787
0.463353868247003
0.469397287772404
0.471174494849228
0.460162150949131
0.470893381568328
0.457324558063094
0.464532624101656
0.46129613988129
0.461535586365522
0.459625291528301
0.458927201474278
0.446344454656599
0.457230135205565
0.451353897136899
0.445165229612013
0.440126593660827
0.444872973247144
0.440813132273258
0.445833431149742
0.434197401312296
0.424479539222358
0.435292312012427
0.435694563013606
0.418331800327139
0.426282733286872
0.408470991754625
0.408467334643043
0.415354056401924
0.416282270016786
0.397118400987724
0.404916361624605
0.390629906739558
0.395119535839413
0.383264563366979
0.382803781812241
0.377812852354112
0.380664037347766
0.371348588686601
0.372619568115257
0.366682512400339
0.36390600504573
0.36305157148301
0.363617467504481
0.353202821829729
0.354539958439784
0.351609656362344
0.347371227856163
0.344877475160378
0.341213845724229
0.337805061781716
0.335937204476138
0.331669181524201
0.335886603478784
0.328854802583194
0.33223984306024
0.326891477996908
0.322299825843722
0.318692653638842
0.324957492059514
0.312398059170094
0.318577013873994
0.310805553578303
0.311640166400034
0.305739097285218
0.305379472012704
0.304642720644646
0.30540245978863
0.305580112312887
0.303886271932531
0.300055074145858
0.296617265227247
0.299715189597397
0.292944450390832
0.290402517953107
0.293268695200762
0.285804974876734
0.290464957480409
0.279700060551394
0.284306726222869
0.28215635583982
0.282722080762302
0.273960580747014
0.280613760243121
0.278519493014091
0.27705090985536
0.274880607217412
0.274238884159009
0.269908309233649
0.270314579765901
0.271533101945614
0.269895802809908
0.26683129822703
0.269020421971625
0.261953158888177
0.263624918313362
0.263499347906642
0.262914739802406
0.26105897549253
0.261154534741955
0.262140635209423
0.259071709348087
0.256567570404618
0.256049045545076
0.250684457991611
0.255666785499931
0.252970243548382
0.249733495201295
0.249600950758333
0.248043977535168
0.250267547546409
0.248793361215908
0.252111443972394
0.24412034481697
0.241456362454595
0.245702728892338
0.245543598617407
0.24268503034464
0.237220106293789
0.245157332363798
0.243117073878241
0.240769636241121
0.238231023481559
0.236059354289626
0.23842499613152
0.237728072787146
0.236963891302789
0.236517083927459
0.231494754261134
0.233375478026788
0.233749597680855
0.227447430713324
0.232130272702923
0.23009472980717
0.232108516271761
0.228116524637256
0.231861321959265
0.231312491104058
0.224297005383294
0.227304337093857
0.225197833338552
0.223463812339772
0.223594099703637
0.225149375992203
0.224193937649266
0.224960439274168
0.218006510620643
0.223208481201665
0.221930991928666
0.224043159494605
0.223811988091553
0.219075176145851
0.219427158537242
0.219202365088235
0.220815843908158
0.223296622082671
0.21267972503717
0.215652969842403
0.218047453298118
0.216973768306651
0.215480616383582
0.21968824011292
0.214169502192937
0.217363531178271
0.212042143720911
0.21604367251005
0.215999354223919
0.213968659410308
0.215007126202153
0.21044951737922
0.213756802258704
0.21442526854335
0.208005375384005
0.210558555952553
0.213701332819701
0.20877530626534
0.211658769635422
0.210369405153173
0.212378686379401
0.209661889023891
0.211982953400804
0.208962745336912
0.211518378705818
0.208911483173733
0.203519240674243
0.206202341042001
0.204544904406526
0.206689761624873
0.204944316420598
0.203062573641158
0.208428271765072
0.202786345212115
0.201979462478993
0.202459784452628
0.203762534501321
0.200981892114469
0.198385588589264
0.201529355081141
0.200022867230575
0.201450733068142
0.198638551653823
0.204688010409252
0.195430079226728
0.193000006604171
0.19718459358863
0.198487749680834
0.19198926614539
0.191087600016639
0.196850050218202
0.192856204806157
0.192070391937015
0.190773127150678
0.19093109930369
0.195411901602506
0.190892118475618
0.187048817239308
0.190065567822916
0.190292063792779
0.185455922537574
0.186096561286887
0.183109385002138
0.188926447422976
0.18543726598892
0.18024637043709
0.181135986906119
0.184017812368659
0.184769249459333
0.183934884182438
0.182059872296009
0.178410456605741
0.176365118951838
0.179992470533831
0.181347244100939
0.183165949057896
0.177592011883018
0.178497518570566
0.179647697397911
0.179297249584679
0.177895474295297
0.171629161380663
0.17166939008238
0.17300164665965
0.172056511549654
0.173473141817563
0.173469704151024
0.169791166702605
0.165081721787549
0.170504538162129
0.169431450102107
0.170783128828923
0.171387409621024
0.165466402742467
0.168644802225541
0.164061944092181
0.163698934536363
0.161784428778271
0.161332959143445
0.163723681365748
0.160667511815009
0.163072481343014
0.159621953058811
0.158400264501544
0.159290483072194
0.154105991685814
0.155277744577132
0.158268110065216
0.15596537149641
0.153951738744253
0.156600530664573
0.15279064999981
0.15579611215015
0.150312375999311
0.147972384877724
0.150673284178768
0.149650628355075
0.149094114553322
0.147588308873477
0.149211648407308
0.146489708959494
0.144952748715537
0.149185386039099
0.146072309384527
0.147001675142896
0.143987425739761
0.145893760888944
0.141285951091355
0.138528641781018
0.141917766989967
0.143041482316017
0.140158583945914
0.141812386228845
0.141084932110864
0.143662441761119
0.13727436201662
0.136427099475581
0.136339029933412
0.137605454598425
0.135510322612563
0.13665584362806
0.136096072718098
0.135453632500265
0.134548700163421
0.135493652359808
0.133709890582632
0.135953512866695
0.132276135649272
0.131061038383371
0.129747987803577
0.130283026085026
0.130919546821333
0.130691974184292
0.129588375944555
0.129132422895126
0.128060010764193
0.129746938562841
0.126294512494483
0.12876647670793
0.125590424325787
0.127026490225748
0.124142828044086
0.126004389870599
0.124968224566023
0.125257224971628
0.124683009880183
0.125272199367502
0.126681753151449
0.126360133648982
0.125797226982724
0.121265240272566
0.124604145740325
0.121032189460745
0.123004882810295
0.125058253713131
0.119596742238961
0.123703695006901
0.119346732090689
0.119343376691684
0.116286135137349
0.118486614687422
0.117996941105002
0.119003007998335
0.117904441731852
0.119815074090954
0.119871608324845
0.118909503839493
0.116391121248263
0.118489216153463
0.115107290300299
0.118350186064629
0.116941673138521
0.116760711118699
0.11876119613116
0.119254551237222
0.110388263754561
0.116392622324375
0.113510416406685
0.116757329008043
0.113738426270884
0.113461503056999
0.114247995593975
0.113685511654458
0.114052355999134
0.117771224005109
0.113839513487232
0.115185530305879
0.112827509517328
0.113987510816412
0.114151879292049
0.112621244404951
0.109246576773278
0.110844855785645
0.112389000458256
0.1108672918899
0.110882289794061
0.11177545552196
0.109425061611259
0.108934679200465
0.109472989757123
0.108296442399059
0.109005580334274
0.111471208593591
0.107872772143568
0.107891240865832
0.106612938750837
0.10829809188024
0.104282886235676
0.11158939391652
0.108814380242953
0.106902573912361
0.104293119609663
0.106463595929354
0.106505174265688
0.107234442129403
0.104321195794505
0.103290506923348
0.105928560347027
0.108710223104374
0.101594508399908
0.106239763684667
0.10199662213428
0.103576200149997
0.103145458390165
0.10398012460009
0.10408520694514
0.105014766011459
0.101557355686456
0.0996618121656383
0.1008992609121
0.103201700403408
0.100731783074378
0.100128737601985
0.100143859216407
0.105059033265684
0.104000228267346
0.100242750122772
0.0996656718709913
0.102446324871583
0.101855820220823
0.0998301764103338
0.0981066962760646
0.101801841281753
0.0998260560629822
0.100033397115124
0.0973199897964335
0.100226471694019
0.0988255452043549
0.0995183185097034
0.0961756555711065
0.0976499190556975
0.0993396363755329
0.0986420745693773
0.095551771837582
0.0961080330922066
0.0962490416988549
0.0954307133976412
0.0918474298204259
0.0968720225952346
0.0967789763253227
0.0954158820468053
0.0945532137250931
0.0935345398093823
0.0907654554000791
0.0927909112213804
0.0907704876843776
0.0948899397509873
0.0910705194309205
0.0918645917716975
0.0888520591333793
0.0893264566388208
0.0858593752545172
0.0891548734160484
0.0894086040805593
0.089583629820588
0.0874045769485736
0.0906263845491747
0.0889466746228455
0.0903143156990415
0.0877730947071061
0.088552779151763
0.086624596494697
0.0865215925046548
0.0835976698357001
0.0878711759799555
0.0849684447938857
0.0866845701530002
0.0842586648990355
0.085047226214375
0.0840679217301809
0.0870790915670603
0.0820003724869762
0.0843572480605577
0.0783415559338561
0.0837728383678092
0.0799138140099098
0.0811069023086405
0.0788072375699046
0.0829945455836545
0.0806235667289091
0.0815872825663751
0.0785082590956656
0.0820024913259578
0.0803441960219717
0.0839229252514599
0.0794477043616758
0.080327564931999
0.0757046899856026
0.0787122463720942
0.0781498858815085
0.0794067641546844
0.076726533286915
0.0789451353233609
0.0757468560558588
0.0792256904985591
0.0752472762843361
0.0761944171516202
0.0750220945405326
0.0764081121498994
0.0749694515430216
0.079286338696278
0.0734271911671706
0.0762301623941454
0.0729215280437756
0.0745876765958804
0.0701437083841074
0.0731452670954121
0.0721871401369503
0.075005160019796
0.0723583168370621
0.0734749415073208
0.0710692074806944
0.0752611064238508
0.0707279537052616
0.0716240651640181
0.0696721024693054
0.0736344213465118
0.0699044515946044
0.0713378935775786
0.0721948134954757
0.0715527218443297
0.0681223284058851
0.0685096112503153
0.0667718827208965
0.0703203619263819
0.0663157452138
0.0705641463350273
0.0689764599760019
0.0715435509811412
0.0675523427759843
0.0698219766091114
0.0667376795978986
0.0692893420735005
0.0660627403138656
0.0694378436359973
0.0659161340775996
0.0702545051492827
0.0660878328805666
0.0687917132295557
0.0654086226587057
0.0684392756278637
0.0661784936339277
0.0685591109117066
0.0662452759156709
0.069776451527633
0.0667079144797549
0.068330564881033
0.0631182639177665
0.0686825343948629
0.0660885209045557
0.0703114716624599
0.0651492157697073
0.0707708313505907
0.0672744491829193
0.07210487285605
0.0657108312031379
0.0680515122912538
0.0620387782407602
0.0621807354293576
0.0537752448428744
0.0637453349575411
0.0581970776371895
0.0642435200016248
0.0547842404271871
0.0539459894568407
0.0493774365441928
0.0597822601690415
0.0530020203498455
0.0575147759801562
0.0513656422335186
0.0594757503056213
0.0521928602169891
0.0555950115824304
0.0503968878609116
0.0580289175274636
0.0499440271913946
0.0626960298752161
0.0497114293581547
0.0637152160597304
0.0564597350447655
0.0645539981883662
0.0541005656237529
0.0677473388029691
0.052463507897993
0.0629068456773758
0.0525677477101828
0.0573195732726645
0.0499632104678377
0.0585135546125855
0.0470103318455702
0.0596260309955442
0.0519323293820955
0.064176239574375
0.051896597282154
0.0554857814796347
0.0488767393827523
0.054213693623009
0.0514878348231581
0.0541237961705525
0.0593905896424995
0.0553775073140808
0.0617992010363246
0.0446570255783387
0.0633669079830388
0.047789812508286
0.076508819449021
0.0412495271555762
0.0704762327848704
0.0307898072436729
0.085748678661851
0.0315572491758006
0.0840543614761895
0.0225492451489114
0.0905023668662744
0.0317092685758999
0.0859198123843006
0.0392551400039068
0.0858040905729036
0.040961432456363
0.0728181239878381
0.0516222628974067
0.0628250824896788
0.0582437998151841
0.0579380492243594
0.0606423761756146
0.0556608316811613
0.063254157380166
0.0565289765249705
0.0614161513939594
0.0597295878345645
0.0562285058163667
0.0637080229447373
0.0573231885236682
0.0645119494899203
0.0571189613080308
0.0619717273466488
0.0576370491515403
0.0581144941950498
0.0568220886648461
0.0581982504299685
0.0560691640805998
0.0571715337319999
0.0543330855444475
0.0579965432976672
0.0573671828526823
0.0583434533007492
0.0555418025731414
0.0576675169164762
0.0553470165762908
0.0574562844831203
0.0533265099631239
0.0581742974548503
0.0571666976896877
0.0573813605197518
0.0545130630128805
0.0581648572250724
0.0572982305255931
0.0586399654728352
0.0562573641961884
0.0597108920722665
0.0569136565084485
0.0579567501342275
0.0577182575182126
0.0568269275625419
0.0581824250001804
0.0573747017674549
0.0567391974363895
0.0585925478174861
0.056499972113465
0.0580345490351964
0.0575212907749496
0.0563181728277751
0.0568321727629675
0.0570190720646174
0.0555428999810026
0.0589925708722485
0.0569335227794875
0.0570434444939784
0.0581081930443459
0.0596270079808677
0.0583788755673635
0.0592236517392684
0.0583051718340453
0.0559206276128932
0.0571623663630071
0.0574694172606709
0.0558048625326061
0.0563727041792051
0.0573731012055314
0.0563211399088207
0.0579538637771351
0.0575637218866286
0.0573465729428702
0.0554766686502518
0.0589596099107874
0.058021705204763
0.0573213645497713
0.0577422613449261
0.057652642441069
0.0575138389294626
0.0574453255271984
0.0567332480753929
0.0569186545956817
0.0566535811424579
0.0568668300928918
0.0545883778511731
0.0576856514397008
0.0564087360207281
0.055554721977422
0.0580842925470976
0.0554047863977232
0.0580357226522324
0.0586604961489819
0.056466095077914
0.0595142222131178
0.056942640173754
0.0583976464923341
0.0583563922978148
0.0595228648923756
0.0577939589760006
0.0601299278052202
0.0590399441964881
0.0577653048216054
0.0572488545900152
0.0570381519507877
0.058760978545968
0.0579621324658309
0.0574623159984844
0.0606530461502011
0.0577546002539075
0.0588564026392164
0.0575374836114644
0.0594062314698285
0.0568788750832535
0.0580304810574252
0.0589456426782518
0.0600782340282833
0.0600094426676961
0.0592741095105737
0.0588768217051957
0.0589907067330954
0.0600246286585618
0.0601394021616067
0.0594442783030866
0.0599388685954511
0.0607141034098626
0.0594733968274237
0.0595620762322474
0.0587245419284411
0.0581934470245074
0.0611382548693257
0.0591763394297145
0.059397283582343
0.057968195598877
0.0612829096883
0.0577407361111928
0.0594105279960025
0.0608151325502053
0.0612817401071306
0.059676728535992
0.0598812229525745
0.0589498858206056
0.0616299293001357
0.0602267180653304
0.063933805016655
0.0610467943974838
0.060752716309926
0.0585498085883985
0.060513285265972
0.0603606768371383
0.0600830173156458
0.0602907280721191
0.0609398259449546
0.0609414149655143
0.0614734067788368
0.0609913806822235
0.0633686336327287
0.0615815441788173
0.0608121140846933
0.0607893755245724
0.0622372549588374
0.0629913033525135
0.0611252612758739
0.0592425558738764
0.0634415608890338
0.0630400060975305
0.0631948376787031
0.064828433683948
0.0624015653648804
0.0590281407049975
0.06198541896003
0.0613489203071445
0.0628647845524933
0.0613318002955585
0.0642682842526293
0.0605818983160132
0.0624151040776237
0.0613495724468247
0.0612921642026495
0.059508256918481
0.0609133331480659
0.0602997308093123
0.0623832354327371
0.0612180744047233
0.0618159616105561
0.0612655042632204
0.0624391016566664
0.062391510738856
0.0628231256738689
0.0604461239015507
0.0596830335883277
0.0597610059311072
0.0615724692892791
0.059661580491867
0.0587229347631811
0.0600002139097141
0.058908948918593
0.0579554006796738
0.0609758635570244
0.0581226546008025
0.0617487046383705
0.0594541965820062
0.060113703378822
0.0592140029747651
0.0611620492271263
0.0590067741968962
0.059854436462212
0.0582602255977309
0.0610655987008806
0.0582988222936734
0.0588863006871242
0.057321237360164
0.0602519865374978
0.060451624282466
0.0600403086110735
0.0596160361181021
0.0596699910224036
0.0566761202771441
0.0588091150412251
0.0583472933424278
0.0587633033486472
0.057670831945984
0.0582179399226119
0.0573118899555669
0.0609864826212583
0.0583594967969746
0.058679826894498
0.058070409351179
0.0581616228028664
0.0577827775782066
0.05694756003938
0.0555415255904349
0.0599102095517215
0.0565409994881936
0.0565737855204878
0.0557258712896295
0.05866883689968
0.0579521895446993
0.0590272236907317
0.0562645769147588
0.0568402697383499
0.0572640244338369
0.05843846042425
0.0575020393843343
0.0576309098895371
0.055375333473626
0.0581899891627948
0.0569033428467829
0.0570275323417405
0.0546809816942311
0.0577571710560542
0.0546242893550601
0.0579156912325594
0.0568135226447881
0.0571696136968194
0.054900059462123
0.0573965134815038
0.0575914998832161
0.0559603062887794
0.0540146504541801
0.0570755265488529
0.0560915222463184
0.0586098423051528
0.0535063740650872
0.0563809812250278
0.0570231826929537
0.0597317941544349
0.0554061761554456
0.0574330781346637
0.0538866095688769
0.0568302873413157
0.0558967649087757
0.0548791920462711
0.0551764960124826
0.0552301656504672
0.0557364124650426
0.0572696571912061
0.055026756748787
0.0577100155938045
0.0555633376698728
0.0559821548849082
0.0544570188899931
0.0550797443244102
0.0529544765922297
0.0564378002646563
0.0539560292619521
0.054314748697136
0.0528514747424969
0.0534380635987857
0.0548105256882903
0.0564415576485126
0.0530023583398221
0.0548358975520235
0.0529133687908872
0.0555739122755567
0.0531165663266117
0.0524173505672633
0.0519476042885785
0.0549457062470257
0.0532602951271836
0.0560931581343037
0.0523355928040328
0.0536108217536523
0.0510395574376646
0.0542948296187356
0.0507797743840285
0.0528003273413928
0.0530423533832932
0.0538594979852973
0.0510309013070816
0.0516614720568986
0.0508478515070816
0.0523906709299546
0.0516331044542494
0.0516531795035941
0.0488909613952664
0.0569638881972699
0.054735853160778
0.0530000153281348
0.0489141289953564
0.0537066609937845
0.0470628543119559
0.0505807605030553
0.0480994659041867
0.0505552154382
0.048576187379975
0.0515019786674247
0.0480585048895372
0.0500399750565009
0.045890041912995
0.0498278732715815
0.0488716353636184
0.0514325447749961
0.0449726256273373
0.0510615836574568
0.0470399808791383
0.0508102992681452
0.0474381031560854
0.0504516611851639
0.0464769660191085
0.0501125182683821
0.0453562594293675
0.0496764613465484
0.0524393935145772
0.0583991218881664
0.0490122005576944
0.0480882759821197
0.0504276525982686
0.0501528511320651
0.0472774208560045
0.0469164639934698
0.0439683952875535
0.0463004194480718
0.0469811427050169
0.0478916061050848
0.0467419200077442
0.0467980140793933
0.0447160038028826
0.0461948070429386
0.0457847440130828
0.0468098495877274
0.046896746990944
0.048813940093168
0.0451940818414307
0.0471189481073666
0.0460198108473122
0.0467451002198153
0.0445654450954206
0.0478462738367222
0.0498212686399448
0.0540891326269067
0.0507859988546329
0.0472153397216059
0.0466970089735937
0.0473178614873867
0.0454912915925943
0.0471637364119812
0.0454683658582035
0.045194085909503
0.0438234489124227
0.0456160150904124
0.0443810848248589
0.0462461812466805
0.0445199480094517
0.0472029616099642
0.0430022997563957
0.0445433132789514
0.0440100632722041
0.0458104301780415
0.0436668023305515
0.0454718990208388
0.0448206646546507
0.0455455985476817
0.0459672201027983
0.0451650825915968
0.0433507204404975
0.0529779745556731
0.05593267272662
0.05229179502105
0.043348951201466
0.0458275460888184
0.0407938994471257
0.0462059600946478
0.0426802228281839
0.0451630403028174
0.0391151473238274
0.0453232609562205
0.044710137001272
0.0454552842704906
0.0410523940972465
0.0444473654039846
0.0394843220037362
0.0445252004725193
0.0417106179545473
0.0432685936539038
0.0406683393451915
0.0459778471910838
0.0516139270548559
0.0557035308639044
0.0453887062675844
0.0459604143238568
0.040327765353481
0.0513787184583497
0.0518581589048211
0.0538234158202215
0.0400473835597853
0.0477465599716087
0.0408886774563914
0.0438582145734164
0.0393113888016438
0.0472230418437408
0.0462061274533508
0.0500687567777522
0.0446601199898945
0.0494689534012527
0.0428129905542176
0.0416434555185143
0.040498383268995
0.0447257596205535
0.0414308223628588
0.0441641491693859
0.0410846567213779
0.0434301919742842
0.0397606742528582
0.0460507471369231
0.0404072400532195
0.044827353365279
0.0452482293236574
0.0489995460541802
0.0415679015484452
0.0436457380514931
0.0423701919153677
0.0451266432225336
0.0515292905421333
0.0540181607050136
0.0443632933529296
0.0425723879658999
0.0419193561854245
0.0426673132782669
0.045174024117074
0.0428386546008258
0.0421120790160101
0.0436167848076744
0.040036383551869
0.0425227121253356
0.0424633208060917
0.0450824714046726
0.0404503420282041
0.0409507699527079
0.0432400292131184
0.0440992696975779
0.0412093325647538
0.0446170102046434
0.0400376994877352
0.0512052384249934
0.0560112349322922
0.0677277431652058
0.0531472104964918
0.0545944112968672
0.0479554136876701
0.0444701289041874
0.0405888309377899
0.0439987834010408
0.0414909277656039
0.044183123660266
0.0451877322957259
0.044388363514182
0.0438269329601032
0.0421880109622563
0.0429558511151916
0.0425905129300674
0.0391575473785581
0.0425320523628492
0.0442187474795996
0.0412836726559361
0.0437443531363443
0.0404804114142921
0.0461713515874706
0.0489744183187116
0.0536415505640376
0.0438103517518926
0.056308224547427
0.0706565701855237
0.0607309994546478
0.0509889395091613
0.0442940944891193
0.0452181999469891
0.0401180207963134
0.0453960654055344
0.0449882064131313
0.0513159464548504
0.0452647179013609
0.0443268896788533
0.0428202575538785
0.0465219502713791
0.0420341559032755
0.0461013186704608
0.0579550349971248
0.0702057472102825
0.0546096929703582
0.0464739309976537
0.0447085036852561
0.0649633264961952
0.0598823381810311
0.0542846839888108
0.044477423308501
0.0504454973672806
0.040464998491976
0.047959074344685
0.0435686034852324
0.0479798424481216
0.0491098907004772
0.0475404000942144
0.0438294773688881
0.0476255951170693
0.0449345317895303
0.0516456495624857
0.0511454667936728
0.0597534911367241
0.0533636502167422
0.049675919816129
0.0492138202617109
0.0513547467047494
0.0439236566677541
0.0490576987643464
0.0441941488596292
0.0495562662621063
0.0582125202916168
0.0612283124319744
0.0572522861049117
0.0660646018005917
0.0532869034627379
0.0505202736365006
0.0502563805871882
0.0658798141112939
0.0500716650815004
0.0511893270993765
0.0679216293137584
0.0712644397203766
0.0732923766538415
0.0601691529997395
0.0573181048117833
0.0493937899686481
0.052117690461484
0.0454622349578086
0.0609004426498398
0.0628006908072386
0.0557991449007493
0.0505737860171061
0.0517971630001276
0.0649351891702704
0.0621148291754062
0.0546621048075163
0.0555180897145141
0.0509495286631624
0.0610420314377643
0.0653585391525637
0.0536509339811495
0.0669127637480047
0.070969814225865
0.090342271507809
0.0747705375481175
0.0571430700502067
0.0631883943250393
0.0808789429726373
0.0639989811839556
0.0550690669767808
0.0547586830820711
0.0548096187291801
0.0534172843821147
0.0735469752354762
0.077324395687331
0.0654858403530694
0.0562377529210023
0.0594587749374135
0.0643671870021072
0.0763662187129554
0.0679721034566446
0.0606002533297018
0.0605093857275203
0.0608625987874235
0.0749232031629887
0.0980431205308263
0.0772779605555804
0.0833302085879565
0.0864016374171081
0.0884489058020973
0.0732623166739256
0.076211582690219
0.069211469489385
0.0917755222033634
0.0830123028860143
0.0707642108041063
0.0715711750951061
0.0958586039658066
0.0816648654317271
0.0796098235870785
0.0723838679721378
0.0752818083747612
0.0828790648412375
0.129961939126967
0.115619145408171
0.103288789453723
0.0788117326084607
0.0944879227176272
0.0990118114403198
0.0891773322474518
0.0800928778697553
0.0819231157224934
0.0819338790482716
0.0853930997005705
0.0876292509592407
0.096590537620848
0.0882008910611156
0.0898611276942914
0.0856325725808526
0.099909243504673
0.120649099751853
0.155182167670216
0.113655348891537
0.120359513622819
0.128515691629317
0.123548403250199
0.103283972957295
0.0992282182547403
0.0993835246049805
0.111919740524286
0.10297830478105
0.101679897009278
0.108924796191398
0.132914730422764
0.11991922872391
0.132007044085279
0.120153756577459
0.122183585339916
0.120904248894996
0.17467536878004
0.203159699100889
0.155624973707902
0.136719390854392
0.152440764374513
0.169296768964391
0.200662023208556
0.152693094813968
0.150804267203435
0.152043631305959
0.161008788780081
0.169189247079971
0.178271893569377
0.178899539601578
0.200956179315864
0.184384172155053
0.198559413664741
0.231394224173598
0.295906580262423
0.251764430439777
0.224172166926173
0.220203895346886
0.25020715096433
0.238237335672888
0.240776388255465
0.238837412985293
0.246453538745438
0.280226499543738
0.298881427420434
0.267332125792111
0.272125069499317
0.290076125772465
0.308645858793395
0.295872071436599
0.345925394868156
0.321265876374455
0.315578449341552
0.312513460163226
0.325117955237479
0.321982719992037
0.345705696599661
0.367398647499686
0.357740901198702
0.344771075786809
0.356264337952125
0.354819619560624
0.362423989251513
0.365215622048861
0.379653980040311
0.385375879589632
0.451411491783588
0.453969476998671
0.523848926535725
0.406262050338252
0.387274704004035
0.379283565094255
0.409481872124546
0.425208692482938
0.438868331052524
0.438175321849103
0.414204356724526
0.386610629324211
0.39947302045022
0.39189951067121
0.393564464991373
0.397033415350652
0.401831921901311
0.397539477951811
0.420213526098691
0.410616602322701
0.485876123216796
0.443671260660455
0.408868413619796
0.391659108364558
0.403456403324376
0.382316383778618
0.393014949259047
0.385251266775448
0.411560201307041
0.399688832650177
0.389728517048627
0.368560879222253
0.378252479956914
0.39764195496655
0.385577413239341
0.352545809437926
0.365850924753822
0.346665921589034
0.348190099703902
0.342805217352763
0.378382408497156
0.362271273495061
0.340573520722573
0.332673657042718
0.330505223190343
0.315450598549495
0.327498932798353
0.32426592641199
0.33354846997752
0.318697541056247
0.323544280992222
0.310798021396506
0.317591966511136
0.311157631041427
0.310386135667834
0.306910853226358
0.31293855392582
0.309797634994123
0.312143821912275
0.300958194925042
0.308543085741024
0.304411506680376
0.312805249223949
0.302004912919941
0.30687071630469
0.305882033211554
0.307601756350899
0.306138121262301
0.306171256103947
0.304209224050052
0.307447639595422
0.303491440023325
0.302665098469695
0.297026316172767
0.303226177706607
0.299716401954376
0.301935670569664
0.295949480249915
0.301715519570434
0.292482384240901
0.296108110237829
0.291382125914413
0.30076231893938
0.310029733552752
0.35945383712718
0.307185512258002
0.29044236029796
0.285621461525372
0.290905630623225
0.280677807333673
0.29643718423439
0.330327709477634
0.305054937118717
0.278694979326147
0.280524105812135
0.274706117198009
0.298528451056554
0.276381486243135
0.275510782258276
0.270053954179368
0.279409040287768
0.333898771466733
0.347772737000191
0.369569679999254
0.325042675186508
0.270961111193062
0.271439233213562
0.287996395990344
0.296485572677354
0.257497192390302
0.263276444880336
0.26104948946206
0.313748097120807
0.267218579245548
0.26102689943555
0.25353089601366
0.258513074883261
0.287023995414684
0.281557829523254
0.26690592430676
0.287072573733327
0.279198987113073
0.280750814292561
0.324476330219826
0.302690934202345
0.25994689010568
0.23515294985596
0.240094932097343
0.236972331423654
0.257882395845921
0.292849061213083
0.242059480833708
0.246865161364193
0.219098804188669
0.226438178731331
0.22688236033407
0.243740473422078
0.231384844771474
0.248070397547434
0.247760715495653
0.218214996238783
0.239295719715525
0.249434148127092
0.263253741896475
0.26204750123394
0.22112256740698
0.211126103418023
0.258684436594881
0.248609521936608
0.217176920911134
0.221414250775605
0.193174271221691
0.212842956502062
0.213115517538915
0.200927187940328
0.221740303381098
0.222753427565839
0.23720094498433
0.273810834335527
0.274938556512308
0.237773024011716
0.194039568321289
0.184810837845308
0.186558463022867
0.18845341365673
0.186818849213507
0.185349355820428
0.221304607833357
0.192858135845252
0.197586963105909
0.239335821801676
0.192455113048978
0.189003332019211
0.187421724805324
0.190041740927846
0.203027703714403
0.231216652547872
0.239622091326911
0.215250670372689
0.222079910039885
0.230340321586474
0.205110086787856
0.216275030313369
0.209023663961711
0.220391140394004
0.221797716304603
0.238394014465916
0.226409264677235
0.238835065057985
0.233172927667083
0.253714049443325
0.274810973367283
0.275908320403895
0.257657051782162
0.313695313772521
0.291260509650833
0.342329015094065
0.291428642774351
0.290204341147133
0.291813580957096
0.301944694164459
0.303198228494522
0.310076734800922
0.332555208796831
0.347780126761921
0.310318736483426
0.328422802425718
0.319047406736414
0.330347573374769
0.335761541944182
0.38436056499198
0.364964929652043
0.43511847592824
0.379200385679063
0.372810480852922
0.3551162526243
0.34941881765895
0.36540824461168
0.360726457907077
0.35379043276048
0.364521587496219
0.361814983746882
0.395596345007938
0.35847020160569
0.374134119497725
0.3605390326872
0.374755598216577
0.367295248014586
0.373264572642666
0.375394214537219
0.382690568013973
0.379818105475449
0.392683075951344
0.395441995230252
0.462183091850103
0.39556595896735
0.40588878610337
0.399900513491533
0.408809500720399
0.402186044032168
0.413386960578015
0.427606164487103
0.424518458536691
0.416036468864236
0.421416306415302
0.415573717029933
0.432769948861386
0.43603040872656
0.463562782260031
0.425196938935674
0.446212212983006
0.432377783472206
0.494678357348564
0.469721035143727
0.461038901187769
0.465802729526605
0.448289639902291
0.44879459310083
0.452087264552494
0.450099737551053
0.453383231146453
0.456077722991902
0.457867022314901
0.453645054699221
0.455355910662711
0.452580714300742
0.450556605940526
0.459555360817243
0.472745363321875
0.448655347187567
0.45113643079009
0.448044370367636
0.448943528958059
0.455775453050215
0.48191411454346
0.465419502011065
0.454799314198441
0.460816241304939
0.471835356681412
0.46676042327554
0.459417560819212
0.443988847690498
0.451987911786868
0.443477954417287
0.44888517718446
0.445484687139677
0.472513963404302
0.486331350622636
0.462145502420984
0.456442136364274
0.459229358444423
0.460623424063276
0.462077824732758
0.463137034350024
0.469445372758447
0.470393406443154
0.472478437418755
0.475295803518106
0.468281744605612
0.472536671191353
0.488760854269889
0.493987972749588
0.483462140771185
0.463516980245174
0.46688248055844
0.458028366664286
0.46428234760743
0.465008015696421
0.45508327474134
0.441652758981833
0.447551214211235
0.438343349814689
0.446274725316986
0.466143408036091
0.441671828216189
0.439138888413047
0.427716318345489
0.419317513313043
0.425234472581019
0.419970836531043
0.412701355436503
0.410532458783456
0.411359273735978
0.402264767836397
0.407518856414273
0.397974534203976
0.402615908402474
0.399181283829723
0.402023614067223
0.392413332260285
0.395905512483016
0.394645269413949
0.395317971760014
0.394052943705423
0.394801498063861
0.394967887298788
0.39625636973003
0.408872673838616
0.409365496413312
0.41194306113082
0.398215410222145
0.394245986172146
0.398056596041307
0.386709202097715
0.395804418110507
0.388260822374445
0.393590040768157
0.389626307029948
0.395536700379743
0.387449600889597
0.390273392827418
0.386028976412136
0.394259433573737
0.383992345464626
0.390890185054065
0.382218572433137
0.392305692112911
0.384217058780776
0.392172019297709
0.386946384457776
0.394715246691135
0.388010937232517
0.389286395622016
0.392930981905159
0.385966064679007
0.38782953391506
0.390071250618504
0.393233762191165
0.385603445839235
0.383693799052219
0.38861662068684
0.385359076992537
0.385775768079698
0.383183872529868
0.382895245055924
0.377037374585577
0.379780255224735
0.378479363710644
0.374419767901651
0.373938574642388
0.370534389525859
0.363762120267086
0.363305807136256
0.358394596481156
0.36031017515018
0.354414202680481
0.352140539726868
0.348384642839708
0.3437485303416
0.340267751248243
0.339878986110331
0.335658103497811
0.335121684530538
0.335823759964857
0.338934673223065
0.329134710362705
0.332180338104457
0.329072610193538
0.329858058704456
0.327517703120312
0.328234156745183
0.324199140648448
0.325891043951093
0.328114514403105
0.328183509736965
0.325526288661666
0.33290577754788
0.330976021899362
0.334468206568801
0.333010338075087
0.335351441033449
0.33390741960015
0.336911877364404
0.34052983350254
0.343336575090685
0.339286183873792
0.342676296853072
0.346195518820639
0.346429857286226
0.346700298771556
0.349988716662598
0.34798560403164
0.350840918743841
0.350743145064173
0.353488117748335
0.352174095385443
0.352174429585363
0.350125250854713
0.353247969820321
0.351062513617139
0.351703283830983
0.347932839838326
0.350611883667433
0.347134524359664
0.347321149742694
0.345581779897872
0.345633466670101
0.344320113998375
0.343727527612982
0.340824741681425
0.340600053298571
0.338274179687285
0.341599759207929
0.336606587475709
0.338631102573566
0.33529545215956
0.336579814549768
0.3309319215738
0.33237643274428
0.329226818013348
0.331719017710477
0.329521088898445
0.329372262732013
0.322854474866707
0.327822480308699
0.323887337499648
0.324826376986232
0.321137315092133
0.323202327646588
0.321656388666871
0.321245867695313
0.318190976107757
0.319297358159548
0.314705202115192
0.318128250092149
0.313898666713235
0.313185866452634
0.31348133327445
0.309619098029575
0.306490413778942
0.307085253224914
0.302671191151298
0.303760896774775
0.297857530843208
0.29708893689535
0.295041644056409
0.29080260484214
0.290777202082895
0.287347763392911
0.285868512448556
0.286199624977785
0.283892019156176
0.28651650757083
0.283866567269269
0.282444693687505
0.280979005132711
0.284053510259861
0.281173983281173
0.279471158929152
0.279242148915253
0.280894322940441
0.27713443896538
0.275468295922387
0.273534414014786
0.271380479752425
0.267531482839301
0.262771772613097
0.261717998303288
0.258942911114812
0.255226653268753
0.253363755607888
0.252356580463354
0.250472837551042
0.251161645569085
0.251382163459949
0.2554363412839
0.260995923824211
0.267136640055109
0.273151851489998
0.281254379677113
0.291227270155309
0.299098338764117
0.311704989638957
0.322697724967051
0.335551421037021
0.348961939195931
0.365397364345472
0.377902414686194
0.394057090910978
0.408420558784086
0.423896221936965
0.435611222444066
0.45202048623762
0.463358703025022
0.477332085077606
0.491424760804564
0.50560475579816
0.512871669703717
0.526793127865406
0.539991132700425
0.55351345630321
0.55672944422381
0.569594985411527
0.575037468242282
0.587395557153582
0.589359861438803
0.60350087477813
0.600479266849829
0.609766855770752
0.608931997939605
0.615901007010132
0.613711062367622
0.616530115231655
0.620693837316726
0.622537155274019
0.621268270845594
0.623098067522799
0.621237997781916
0.620988091034159
0.628065355925662
0.634573741842748
0.626355231745204
0.630968455200453
0.630397924999553
0.64065182103467
0.636524933478572
0.646031567542947
0.650200131183618
0.656187103768231
0.658481480097898
0.670085081577555
0.674299629956658
0.676263494617549
0.68251233361438
0.690920858057909
0.698295346823525
0.711807748007661
0.715596111320845
0.731973077826927
0.743500469180007
0.746758801692122
0.758340387972715
0.777825558054455
0.7853625460205
0.785792248249017
0.793602343390961
0.801170742422099
0.805374405906119
0.812042412015972
0.816954451354003
0.804941286456383
0.804037904349677
0.802651023138139
0.805344779880052
0.798521352801409
0.801960114762404
0.791668004355764
0.790560766411587
0.793745898171559
0.801342087580767
0.805890604059231
0.813425060675604
0.830175172290898
0.837455543154777
0.850851093802453
0.861733082924436
0.878696165327084
0.891363897215335
0.899780372257703
0.923370098948555
0.935007407551187
0.95542955077163
0.961203550719118
0.978913280532785
0.990974690320062
0.997703900996099
1.0340343496717
1.03918994211526
1.04948474473343
1.06650333396132
1.10732207016333
1.10982979453269
1.12112498668602
1.1430506586489
1.16835379979633
1.18326852870128
1.21127906933933
1.24502677581615
1.24658813049623
1.2641805326138
1.27738443258491
1.28713852988813
1.29386131831056
1.30100529262007
1.32718828449369
1.31937577771581
1.35419032838008
1.35138623013341
1.34547754343454
1.37304891261288
1.37219961163306
1.3368759606269
1.35140926818638
1.33812470863841
1.34393289640081
1.31898604954872
1.34364882806177
1.33511068589244
1.29594544002319
1.2646692754764
1.29194994527847
1.31629702833764
1.31446372096048
1.31116890659695
1.31379496861745
1.30900893158193
1.33447695457988
1.33880940908362
1.34169564913282
1.37040486375148
1.37412801205663
1.36873496786557
1.40834234479233
1.38290231364252
1.40593863425388
1.43465229723471
1.38178171722526
1.44619260564626
1.44002980379188
1.4286559325597
1.4602522064427
1.4386303014151
1.47268607822587
1.43129680157646
1.39470054900958
1.42188414257806
1.43052578132214
1.45583892955124
1.46809922830319
1.44462973866254
1.43076987169555
1.43842389398017
1.4403572153047
1.43305700667036
1.4148646734052
1.39619746936245
1.4023582517061
1.38745244545388
1.39250047752868
1.41918175953526
1.38880057859178
1.33894362179831
1.30347711848202
1.31257334801044
1.27038470947992
1.24789886317927
1.21621529666815
1.19631031904111
1.17173085822017
1.12273068842981
1.09386137320717
1.03528764928184
0.983406411534482
0.960340263095084
0.913432668575657
0.88270986755013
0.845632650110801
0.824704693942941
0.796788289503581
0.780458387882271
0.766793118363713
0.748939406934366
0.737978588085573
0.728680701356253
0.727704868813265
0.719011593729461
0.721629308389519
0.715316633625131
0.704182110878529
0.697309131090522
0.68296303604394
0.677859408471188
0.663189822201486
0.655693880129793
0.652876914298628
0.634528149254906
0.619855263620822
0.610808409515898
0.590643386551405
0.57517398003898
0.557337827685407
0.539597793521152
0.5230494566566
0.500199122638714
0.478645562420965
0.460187426164534
0.440354579050142
0.428407850399164
0.405529911273762
0.384367265081407
0.367841582700019
0.355692301243818
0.338332554260462
0.325689946768955
0.310241842687843
0.296318186399697
0.284469921829949
0.273197917689004
0.266013291523979
0.260572970225727
0.254627332245691
0.246742116017881
0.240591623454249
0.239491645488817
0.229370545123109
0.227404292375775
0.230715829985271
0.226002457817707
0.223966210476231
0.221618128095503
0.225414771482854
0.222192501395002
0.220259108209383
0.223735379218658
0.22344760650214
0.22378024919243
0.228231948457815
0.230766506992174
0.233426664509621
0.231142257179131
0.233788952244393
0.235831478351105
0.231725588726614
0.233980427134437
0.23086578076781
0.232450838787002
0.229186005796865
0.224801879265868
0.221399773182497
0.219356599009389
0.221120608252073
0.219418628768837
0.219912104109715
0.218101579352954
0.217931039630343
0.219768157846084
0.222243538761092
0.218721410903198
0.217723650843642
0.226414308810008
0.225840678289857
0.230830147763031
0.228456317559058
0.234905864664972
0.233651909293691
0.235356647621359
0.238257779229616
0.240749441424925
0.241018038754643
0.241317271367301
0.244989753847054
0.246055695856312
0.250921693895559
0.252719954235038
0.248382451452372
0.251545651892975
0.250490853774701
0.254374114300403
0.250035505891984
0.254678194759309
0.254312578619966
0.260205908284347
0.259538729152103
0.265716457723567
0.264726372487064
0.271148471831385
0.274350476622321
0.285395578398287
0.291000540922344
0.30092963257692
0.3058287538434
0.315205969289683
0.325396785358044
0.334055929823795
0.338857954672344
0.342077024169082
0.347908592481996
0.355671794782132
0.35209728601121
0.350034076859943
0.343907796137949
0.339693796097459
0.328097974690635
0.327889692910983
0.321589101214693
0.318309113241284
0.311104957777349
0.303015165893572
0.304450820247587
0.304188639102787
0.302931922946918
0.306625830209925
0.303448666826634
0.308901420610199
0.309194114278989
0.306124506697285
0.309463955260161
0.310336657323079
0.299626781703476
0.300705703544872
0.295195056186334
0.295848251998302
0.291390122063736
0.292658387220619
0.286463813395622
0.277631221416568
0.269747602396258
0.278895916210387
0.271283214736677
0.270942965709422
0.263060352803922
0.265366904457512
0.264373246456543
0.263118956865307
0.261455358175942
0.258417276730046
0.25606718974839
0.261574307681635
0.257212471088886
0.253802736906267
0.257039472390455
0.25186977182643
0.249742818133417
0.24737544003075
0.249036972667945
0.246213200139947
0.246185815555106
0.250379670845113
0.24112886741695
0.243447220673032
0.245599281085437
0.240557901158955
0.233848211427741
0.228908946973624
0.231633718211533
0.233076941101309
0.22805015394056
0.23559039148284
0.230112916497344
0.224734200865501
0.22688281493782
0.230340238999423
0.232449738008141
0.226057896604853
0.222052901139443
0.23213915358136
0.225100127238967
0.224799282797698
0.226830029603388
0.225813074420448
0.231089957178437
0.238277663397317
0.233803662987081
0.239695137917775
0.234252628701957
0.230074835572919
0.233466819181225
0.236986164207354
0.234695193220928
0.239964387293026
0.251229785485934
0.242837131355315
0.240901360155135
0.25160672528821
0.244973248507026
0.249438546163014
0.255634602210405
0.253205467036068
0.254521242425198
0.263474791021471
0.261000428058912
0.271975730829275
0.268304386854761
0.277903329519915
0.280443474611815
0.287395372823888
0.289382410602741
0.291852885784733
0.299508630547996
0.315811688261751
0.311238343198754
0.328832399201852
0.331857567632879
0.361964365737198
0.362583719299232
0.37129349700149
0.379768067503082
0.389285637622603
0.387308263357417
0.404704122448083
0.42615161835368
0.423962177508151
0.42657639330867
0.44922076417672
0.432957419491531
0.434803334268837
0.439152656284768
0.437480855999328
0.423699242897456
0.421269941439479
0.419965802506948
0.432164062831692
0.426272972998944
0.421206573616512
0.394438554527311
0.41849682277972
0.420197311026046
0.412496323679803
0.400567738079852
0.405702910660494
0.409761038884299
0.412508316025886
0.381923819627638
0.403011848132553
0.410453013164193
0.38270341468066
0.385420996026037
0.38647998816382
0.376318931376846
0.388407665957272
0.363442451878797
0.365609824789137
0.367966967602882
0.365928554051644
0.347681308034773
0.383223247952826
0.366077737391694
0.341817891793504
0.364030609449409
0.366865132950919
0.367377180801999
0.385837067045172
0.342441473654861
0.353097214807829
0.361719835634679
0.339594809027088
0.351134389017646
0.376650396357124
0.353192034277676
0.362849488484547
0.372699319523316
0.390545097034094
0.369965466242281
0.377004910627065
0.389918309455166
0.376249375797384
0.364230157884455
0.382763575948096
0.379098132847812
0.383707651348941
0.385089818957572
0.392307077641537
0.378579242589289
0.381548860225749
0.373690029403264
0.398281537156253
0.389806665514807
0.418057972248144
0.39857662005103
0.449176997150912
0.435044892787288
0.408711955011339
0.433232211496826
0.40002272988382
0.443328281869213
0.46844844838794
0.408239226088439
0.452773544306254
0.444988876927911
0.403152034748459
0.45461979782821
0.538426671732245
0.471276731889774
0.488064052879559
0.524764195082375
0.50857338562226
0.540946772305207
0.535681447801662
0.500693681075797
0.575520785193313
0.491167088314527
0.492971004358792
0.511208209544735
0.53359288715205
0.546805421273599
0.533115109548961
0.524534349087307
0.549529995528337
0.498444085730267
0.509326262766144
0.464643337780593
0.477292397802406
0.492582747147838
0.519252940905366
0.484629804259999
0.492740247962471
0.504680998981276
0.490495023359276
0.48113689151884
0.524172818696652
0.455819105367466
0.492736722914245
0.49586598575874
0.496742332817713
0.493462830647576
0.504939691314233
0.466417660890008
0.533075556203645
0.530958632784276
0.435542664228656
0.525811096737076
0.565329263598078
0.475853204671956
0.52610791593351
0.510194072434389
0.497187710478204
0.534556240437556
0.673899139788638
0.424778240487823
0.59660389294909
0.623159992905566
0.526902340963219
0.477732585488897
0.376649322034941
0.576738263326453
0.519894140562596
0.462549488910716
0.451583597646309
0.50279534681068
0.565715711376034
0.454566991886035
0.734759611132489
0.470858071481684
0.734946911983405
0.37865438562882
0.590088624658548
0.493047801683903
0.582435336596626
0.87350150323119
