3596
4000.36533379555
650.420452594757
1
2
2
0.0854413192191857
0.0975565124167499
0.0876197345030864
0.0988466408934391
0.0794708711572054
0.096017162355692
0.0812075346354892
0.0944289967298435
0.0851573904133636
0.101749378917026
0.0852548075523889
0.100039074372742
0.0892627361364835
0.0947683852595886
0.082666894359185
0.108922494103717
0.0846929312511374
0.1049025370537
0.0822574103866073
0.106689287331158
0.0853954421357524
0.0971544918595092
0.0770790298080991
0.0997353051754071
0.0837502438480663
0.100184620712354
0.0883008293690139
0.101195609930208
0.0837483405933446
0.0971500003534291
0.0834931018882428
0.0947238821011126
0.0919406449731896
0.0981764149026495
0.0907098632883908
0.0944764640784842
0.0852508658889043
0.098342534211247
0.0826162517015622
0.110327786265723
0.0851290755249601
0.0989765954574787
0.0806924680086679
0.104777901684802
0.0936769071081274
0.0987819352220802
0.0868652124879053
0.100675670706241
0.0843743365127626
0.0981501215949237
0.0803122848744196
0.100181941236681
0.0954097241283308
0.102520540732481
0.0947790605597607
0.119671961787501
0.0871723547207361
0.0989609354969191
0.092054672378883
0.102957856379651
0.100137248368321
0.100071492292826
0.0837083848293783
0.108257114624929
0.0771423887755364
0.097029525487983
0.0778199297185701
0.0991762651935938
0.0797506217512271
0.107528374802715
0.0852426680206149
0.123415644493632
0.0874610218346373
0.100420317152797
0.0906568900085118
0.102387968027446
0.0836988412514333
0.0903450295882754
0.0852135629674865
0.123252417308345
0.0872201566321694
0.109970801769051
0.0809531068581929
0.0933556003332483
0.0915491068393197
0.105755970627459
0.0776306531528925
0.120884890068389
0.099368834844938
0.10252468519777
0.0737956345478943
0.0952386929347338
0.075098455365645
0.0887436989519415
0.0698823969381387
0.0989598586961178
0.0714162863668482
0.102936422734585
0.0802427662455084
0.109110777977173
0.103895278353994
0.129256400590776
0.107410443930969
0.0941110205373788
0.133662025737694
0.0904508831917661
0.111924117185745
0.145391362757882
0.0804241617763988
0.0963842422461337
0.0744434699071435
0.103660316098669
0.0844525589237393
0.108140565357029
0.0829322398597811
0.153430204706661
0.0847313495363829
0.0960309941784449
0.0781955961325853
0.101819398644032
0.0848145827567237
0.157774139751957
0.0928939795264233
0.0953256446437236
0.0921653267032266
0.0891681340704038
0.0923468920442033
0.142619083112027
0.0892170222667007
0.0932794559615719
0.0875225311190192
0.0936343675944713
0.0866419547759477
0.100002241002
0.111320719676144
0.093028663908498
0.0986632932327959
0.109002932869129
0.125223424422379
0.127547519710453
0.0722049202500838
0.0940230523667717
0.0889813804251969
0.126437228080775
0.11187313956987
0.0956362184954686
0.0814672177304143
0.11636286377714
0.0797268484532814
0.0930610676274927
0.0838151542998756
0.10308895998284
0.0952735211260954
0.10261454460016
0.0978405544464208
0.199636376375546
0.1136895939217
0.114890385811711
0.122439130566797
0.0808668503800015
0.102593409287719
0.0868464254791603
0.0871020094203165
0.0854038193276605
0.0921060086417819
0.0921161210408746
0.108305722379283
0.10516729254621
0.0789460229500464
0.111270165461162
0.0954011409015529
0.116580630261567
0.10582386344488
0.155671962038996
0.0753684115977625
0.116677082097376
0.112737178827106
0.0860423573260423
0.0829316820298913
0.119178377595496
0.0982087104373824
0.08518641857109
0.0858315401065054
0.0883079443569764
0.096019506032422
0.115374880549701
0.0882543167552473
0.101285431564578
0.0927199689723811
0.102146465097893
0.121252545771001
0.137458924471017
0.0982413514614281
0.0898282888864801
0.0954196532734177
0.0945470457748462
0.135039384816102
0.0971285989384401
0.0816593956340878
0.0922944211030002
0.0819757153714071
0.0912505025762933
0.0721989390154509
0.082424066904599
0.0883527761207474
0.11444642327914
0.120931058933743
0.0889572284156669
0.089625902808619
0.0857123902132393
0.108850781563629
0.119623430409865
0.136287052355887
0.0935319340023259
0.0781469958348873
0.0982947376360263
0.0889676889210051
0.116271408637256
0.0884583112837986
0.0951085777825479
0.0836425101985644
0.0896087273165176
0.0829520042643841
0.0847644698891107
0.0860552426592149
0.0916888395798087
0.0855440773796606
0.0940471272258335
0.0880947971644935
0.0963799527801847
0.0949621202479749
0.0955598204349103
0.077080247258706
0.0982134303422521
0.0905693767375145
0.115613707567161
0.0954069328322871
0.0906159285252994
0.088230845190562
0.0873758687450854
0.0877721936490322
0.0834140557795908
0.0856598512524791
0.088024231572631
0.0943348477552077
0.107325009441091
0.131645615636654
0.0832785845680838
0.0947327559315053
0.0895677712000957
0.110876260279285
0.094575647752803
0.0895266542510237
0.0908029992022054
0.0905874075788553
0.0950103311181854
0.108393354728456
0.128179582338628
0.10023922633342
0.106300104140811
0.114976981559931
0.0982360543397814
0.0857575810961807
0.11138315424067
0.107542164188724
0.154554952716474
0.100578675300595
0.140118991123648
0.135656307029385
0.104063494979789
0.0995657250651438
0.109503540942222
0.126778005589687
0.202435599772452
0.092654990401189
0.103170979616404
0.0996860960740468
0.115178178918214
0.0863946193669912
0.109573212150653
0.102337732654794
0.125511757578666
0.153485831186332
0.155151303205617
0.142548341032997
0.0998693473168729
0.147387991600078
0.108129223488121
0.0894085089378844
0.0945922936462631
0.0983959273780635
0.108155227513203
0.120149161978536
0.116554247028099
0.107147507071493
0.113626977050759
0.114840103171307
0.141700283975012
0.0953886647752966
0.113984923811326
0.104226054554067
0.115036323425853
0.0885011710024131
0.109140008205255
0.101351430917657
0.122325794316944
0.1035764585308
0.131416488828208
0.13370724694361
0.120137176397588
0.112438438360468
0.132892583895281
0.0885442252236252
0.112231319873589
0.0994870934169043
0.115484038956959
0.0975592504716343
0.117907925679742
0.108782137463253
0.144833516004207
0.09990143153805
0.111250371658362
0.105820725900948
0.114816938245742
0.105373136048198
0.113465257466345
0.115136772301194
0.107993098270699
0.103795012014859
0.13135139818214
0.136663070280358
0.141339266165993
0.119130981811815
0.1722077599483
0.121901346006539
0.121548816202856
0.125630051013534
0.127055199302428
0.126879567400665
0.125119733698507
0.122576859627893
0.135989000417433
0.138534952152821
0.152818637954371
0.137335767024567
0.152376656838536
0.181250692632013
0.220067288365379
0.17447319701533
0.137964524919651
0.148649368691461
0.159264394904602
0.193649413152911
0.17960545665987
0.162170746366062
0.17698568041631
0.133540941139137
0.168157359293356
0.145833243766838
0.16984565063054
0.153428203215628
0.176479996479669
0.156055006175273
0.176945976302355
0.173500680615554
0.182809958716145
0.186400321128038
0.215545502523539
0.210202188567014
0.20088249723508
0.189206749791914
0.208497595458906
0.204145790338717
0.2459162233449
0.237722739914847
0.248409780967071
0.230827332564171
0.247992094117311
0.253287162456005
0.210781864165943
0.217948483165641
0.227019579370087
0.229669688326015
0.235703300135536
0.243220642380073
0.244865177270452
0.250455147947871
0.258125514049994
0.251337569683172
0.249522594044729
0.258554012798376
0.262998486580508
0.287299637291914
0.282797262038643
0.274876154664332
0.287994402489044
0.326451435374504
0.366840649068662
0.307998093735251
0.300748822551711
0.289159281995066
0.297584545487003
0.296160921888653
0.326034026349541
0.313754520068974
0.339719522090096
0.33034775717817
0.379583071226847
0.348026795525175
0.355558296192817
0.342698991912616
0.355192150502511
0.379358239083919
0.375641707443582
0.377990037842251
0.398293230300829
0.364661312736689
0.374668661790607
0.39094555590678
0.401324220828835
0.394730682538603
0.415636754441604
0.378196332275933
0.410338208576149
0.381233340348006
0.415384978246594
0.403093022212409
0.434549915876199
0.418181232413822
0.446455927207347
0.42783111838569
0.432684538045785
0.440447223468831
0.452804613681385
0.44777171604709
0.47628059101061
0.459744978972358
0.46194729601593
0.446122916662316
0.470530954680417
0.492891438804
0.510977127467669
0.501797741749448
0.531704956247048
0.480640781093297
0.511655744498305
0.484489590749896
0.522586422004932
0.506482309246879
0.528514696755773
0.515928458763196
0.528003525529338
0.512707066707082
0.554995274741124
0.541238529741608
0.566599665436058
0.528958395938024
0.542987903762809
0.534559712518648
0.548716467794091
0.566077292144513
0.59590874050149
0.612953636404389
0.644353279044034
0.628653938031879
0.666367233724391
0.598381585465896
0.623982118688935
0.604077305062733
0.640784318900778
0.629815761540455
0.669536145592201
0.611296493302757
0.638470117407718
0.627047902381821
0.668510666471752
0.643264763684591
0.655857644786625
0.644611667898467
0.682819050767661
0.687655853030095
0.674655013045278
0.643618665302814
0.689730015714505
0.685113542520154
0.712798780608702
0.7185073212952
0.770873025305549
0.70579470805522
0.697649017776937
0.733925547427882
0.719466061395123
0.716228789028579
0.775804451264399
0.758838716669966
0.77455555864269
0.734333164119228
0.789234724630998
0.761216784951085
0.78132698291192
0.793894392342912
0.776565975009801
0.758397139363029
0.800769515932036
0.820929706830959
0.871829572640033
0.806472170596086
0.806239336359301
0.799457966459777
0.832038998073067
0.785957457509276
0.889940532935748
0.830141917618252
0.826015371635607
0.843742436394429
0.871255302072129
0.878567638687411
0.886595806277276
0.83271452646171
0.862179044371927
0.856511388514785
0.863859805174001
0.895680431350793
0.928626905092703
0.862069387238186
0.944853957903472
0.97257173696196
0.895501083789588
0.883281040500708
0.971145604086082
0.899031671414456
0.947545925298294
0.910825782298229
0.922864629676796
0.90946437474053
0.988510772959389
0.964565813426121
0.954027388542241
0.971984984881857
0.954613316984663
1.00110807067472
1.05870607687488
1.00590115148608
1.03510466600867
0.984064938632296
0.993555473552287
1.01000614576734
1.00188111454538
0.955076722096292
1.02847349732512
0.997497610412949
1.04167044769311
1.04020582228954
1.05238881232371
1.03307992843046
1.08742093784069
1.07559741176282
1.06505536927381
1.05401481834445
1.07085574263691
1.05403387029202
1.09277857575914
1.0558147807235
1.11562311456505
1.10591410885215
1.11049510020945
1.09175755984021
1.13716986520421
1.05092101581049
1.08357950405896
1.2305181065497
1.16769238687189
1.12013538001624
1.20753246995346
1.11270820900205
1.16843638783642
1.1565235238815
1.1489351634716
1.12595044921735
1.20785569302746
1.16961379729388
1.22035822403374
1.20310161205637
1.22395371015424
1.19222825803535
1.26972564166884
1.28314750308419
1.22745541636691
1.24560632038372
1.16934707759531
1.18191287668119
1.28362120198327
1.21108758039069
1.24915087216284
1.26910794967447
1.22757575774153
1.20798754518668
1.32759202170664
1.31055110700429
1.24282768099952
1.23814334932012
1.32446172129655
1.19962090621954
1.21342324878818
1.28605508798406
1.25094935703879
1.20448575648726
1.2725906004442
1.33763143986545
1.37540398400224
1.29804024888664
1.33738941691054
1.29946107865018
1.37950983137267
1.30004537197089
1.37897954767854
1.40735242522287
1.31498507243333
1.30972912064587
1.31263705949747
1.27250247828486
1.40999923736459
1.3789561189192
1.37778631692595
1.38545253446124
1.29910067065452
1.28711796273998
1.39273437779401
1.4146978195048
1.36206733084
1.38297057639995
1.54225766658345
1.41093692869561
1.31979511506126
1.44495388090601
1.55440470252268
1.52494685384048
1.46614188385338
1.39190681428117
1.38840095548438
1.4790191794099
1.59921566322264
1.40159199750361
1.56773464515059
1.55717928272772
1.46384911009247
1.42031322267536
1.43197835032769
1.42827900647247
1.54766965530059
1.5720955853491
1.5143192598207
1.71746427834934
1.5843332453762
1.45333247483418
1.49727444729405
1.50451563711823
1.54956185411505
1.57018445729208
1.51126379973324
1.50172604848416
1.56295249459003
1.67044780306075
1.53054927170268
1.49868721432396
1.47879116538887
1.54862624056905
1.51948099173493
1.64240010229035
1.68049042973349
1.39442218320485
1.51387807906181
1.60051585356874
1.54976318942669
1.61424898039343
1.44198924356639
1.47701539771695
1.65597374385841
1.61560525501846
1.50768645553815
1.58216383640456
1.6861668914777
1.60330580810959
1.79183334549322
1.64775344059182
1.52946801230444
1.79711515631895
1.79387901213007
1.51746401474407
1.56702668481007
1.69198910655068
1.57394324100879
1.4655623667044
1.41072841269979
1.56174755026526
1.53671832449933
1.53321553951077
1.54105963363921
1.65661828149947
1.6433206174506
1.60861096579328
1.88696200533459
1.62758043512496
1.58036821215131
1.57808877973515
1.55777859216356
1.713504304263
1.70829855199821
1.67103587170338
1.58210337143966
1.5878608437766
1.59703539643071
1.79731281932079
1.81165878945488
1.5200584581148
1.49085274318813
1.58312701398113
1.64219321352877
1.60836415498601
1.55473918935285
1.73309547701816
1.64201158817106
1.64173383040672
1.72086932271415
1.76333292671641
1.6770410586295
1.69695352301012
1.77817252031223
1.55990699433301
1.60698770372787
1.56891058938872
1.5624891943954
1.87897183342416
1.71264543221211
1.63994233255153
1.60979489448968
1.54235702569456
1.66269704457661
1.79324663944104
1.68214460731148
1.69188779170716
1.61393184381259
1.65061350503051
1.67079067439667
1.74091799760415
1.68898157571481
1.53862695872291
1.52948806058684
1.64341092253271
1.82293555324509
1.77699278029381
1.72515015240964
1.68601320229828
1.53183818365455
1.71849594668942
1.8102169032632
1.79169147031507
1.57547101100225
1.56399930809552
1.66009530552585
1.65240669073156
1.63112411224738
1.74349484249867
1.84827494748552
1.76091178855402
1.69526492758333
1.53805814330557
1.54506025664838
1.6507714152964
1.6002625434805
1.87349248893972
1.574795710518
1.53631398960288
1.66448271177554
1.53481879666542
1.59877761636193
1.81198733732111
1.64816172205678
1.78832123304079
1.66760833119711
1.68274756278723
1.64223156181939
1.70225378806702
1.64760914505704
1.69077696132112
1.77573076425896
1.62598542116971
1.60350192197096
1.67069052810542
1.62907620428387
1.74172559514702
1.70443006853293
1.50223141718598
1.58137759720949
1.78410951021504
1.72396557112403
1.64272402685814
1.73118795418292
1.75834117193368
1.576489017363
1.62175317760005
1.75557260698976
1.5535482550947
1.60140288398604
1.69965764913589
1.76643342559782
1.72032386619012
1.56183997727842
1.56360494445675
1.59992554069318
1.64031751675666
1.56656749651671
1.49143314879567
1.62798354003092
1.64907111094046
1.52445606859048
1.6832095327644
1.59404339727527
1.4810964607862
1.67080413955573
1.74771354449955
1.62149317945712
1.61251747116882
1.62598073622536
1.70680971089534
1.69587497396843
1.57891074347642
1.57796334082856
1.5785380774493
1.5899524812185
1.69516497882985
1.57656496438432
1.63527054126962
1.62836573782648
1.62379927183739
1.66894010258755
1.66078175441238
1.65068329329629
1.50999925577215
1.55724030437557
1.61552340697712
1.59001963215491
1.64759820181611
1.46237968100829
1.5849638685336
1.52364981644897
1.48848386374787
1.56583002039155
1.4490117987198
1.50271616282513
1.55511726108004
1.48335038117291
1.52633968744005
1.48901070867423
1.52729398847315
1.57768891237266
1.5332161313903
1.46120482077327
1.5465534589694
1.48060883030237
1.47403170418557
1.4350102764352
1.49361529632951
1.47817682012745
1.45504720014881
1.47792093927199
1.58228624688979
1.43217729728471
1.42670762369064
1.39165839165575
1.41655026248995
1.42636881219009
1.40492611995065
1.35907000748884
1.41487475336959
1.42906935923242
1.39625393007693
1.3457624031399
1.34083922092288
1.2812227696064
1.37272109115482
1.38386313349348
1.36720490336394
1.35017154567668
1.39941672145478
1.443425949662
1.35713682359675
1.35188774010413
1.41303630146422
1.37904041116209
1.31109267601102
1.33178543245835
1.37607903139598
1.31341802744794
1.34621625375598
1.28170191747191
1.31644669545715
1.29145443991126
1.35516636737114
1.29101555175261
1.33352264066311
1.2352744316952
1.25734102764072
1.30022285683064
1.24629505718187
1.21363035420345
1.25172105779389
1.24231288876472
1.26672388665867
1.18776134207637
1.20415910516682
1.21048956882955
1.27294250500503
1.2184882185592
1.18733455458934
1.2114580684852
1.24991292211553
1.18430391949607
1.22048044188498
1.19014151702425
1.20029457933818
1.15761027798926
1.15151333754104
1.1709063991865
1.16597418693816
1.1402007351183
1.15759246489722
1.1650919456378
1.13774746196765
1.11024294018966
1.15680297944005
1.13121486090302
1.1112454002182
1.09831646567621
1.12032566309295
1.07696818904596
1.07481813548158
1.06322005631096
1.10406444971742
1.10435791435084
1.08709797055667
1.05288442583713
1.06930289928037
1.04707889411131
0.999623339588976
1.03309040158069
1.03548200326876
1.02817927135777
1.07350254473485
1.00657341544189
0.995977681053037
1.02454722686523
1.02219383512862
0.990475254959691
1.0115178380463
0.974327109509495
1.02077871290891
0.981891616464298
1.00227570769649
1.00676878737853
0.975099458844026
0.974852352045062
0.983046867384434
0.956021857591982
0.95597415226403
0.979135723085675
0.955534601767478
0.937673278469933
0.905717022507317
0.906433157007928
0.947827600653392
0.914025415522835
0.936866648203382
0.925956814373428
0.915966033623247
0.874646644716039
0.903160656032432
0.905244785238172
0.898949245630666
0.892142126111738
0.914551795618855
0.878124747413578
0.876172699221544
0.881865442429932
0.853533953031222
0.864496609281616
0.862022932041709
0.841065873027955
0.856597637945122
0.847970934928177
0.83977630874064
0.842613930689937
0.840612831431503
0.832985647158399
0.828234908065951
0.82018890712854
0.816186742116094
0.81254614763841
0.810329430722913
0.807182729235506
0.803608870564663
0.809286195703938
0.806462471223766
0.790447602810109
0.784832629882368
0.791795246368328
0.783065670500469
0.76371216090765
0.775348732436487
0.756489694943389
0.773236449451226
0.761889218660132
0.750715669544967
0.74731166516984
0.748541275229154
0.739744037534519
0.748722352352467
0.733909459396093
0.732841311599737
0.726083881675113
0.726404256898326
0.717023056551226
0.704441509117786
0.703584595745134
0.713319822594713
0.690803093190774
0.697563340341108
0.696313703254355
0.684188727842994
0.69523947174018
0.692310171157136
0.674357941070228
0.685584752997102
0.675215203276125
0.66969462440032
0.661888119459259
0.656266843204726
0.650694432279226
0.666112159888109
0.656551053230099
0.645417645910411
0.647472833530837
0.632657846953793
0.639097036097947
0.64407687393148
0.638656764319093
0.651571778775883
0.627350654792372
0.644483464460886
0.624053947346331
0.624851499455885
0.619695077631917
0.603829544705402
0.599799878567747
0.618086108686132
0.59940563877086
0.600603827726392
0.593785773537467
0.596725883297461
0.599884539001408
0.59891889476157
0.579546497245542
0.588740268476251
0.592519436574408
0.583877290132184
0.571152923323331
0.576796090646193
0.586164329767801
0.580170646377973
0.57203313852293
0.587161526192622
0.561235392927322
0.568738374687247
0.561558356288382
0.567313675169134
0.562208297641861
0.565448533430727
0.548998506407368
0.565315586095665
0.551716337798115
0.554104698779458
0.552249913241348
0.555510256836007
0.550972445783871
0.552508399589057
0.55014504568668
0.554999461762458
0.552330861421159
0.562141062394488
0.551715320876023
0.55690825244748
0.563609475191667
0.560616760079196
0.558571992403449
0.554390523457486
0.552794407446974
0.565380535047663
0.566574773408713
0.583884082658734
0.562348581615745
0.567652008734678
0.563919368079311
0.574193726103538
0.57175377489647
0.567044407449726
0.564174689640812
0.570248529900421
0.567523338072159
0.57548164731843
0.578012120689755
0.582101793822139
0.580202688293289
0.586794753005118
0.580851571482739
0.575482258242421
0.590931517583555
0.587303510157554
0.588242900018166
0.59600646080448
0.590502236137504
0.592619202810118
0.59118784926953
0.601177367767968
0.599700179812817
0.599364252561928
0.609838000132398
0.616652744395708
0.610882406548636
0.612782781372991
0.60673697396998
0.623893074262114
0.622549275679855
0.632116363056565
0.627186592455174
0.629000859040643
0.617288983188705
0.631169556888078
0.634892023765589
0.639912364459777
0.637146387419948
0.645921293555538
0.651895699323196
0.645165209656358
0.653115005003894
0.653011939361326
0.650515885954899
0.647695661194457
0.645073021253446
0.641169704496669
0.648674860968887
0.65450013860636
0.639859180134062
0.660189523750841
0.642474418386842
0.652234551573936
0.648607686396771
0.6513288453354
0.645218104358997
0.650862968424398
0.623628617218171
0.637270900506812
0.63694692070246
0.640594637461623
0.637464411483758
0.639913936148847
0.645406666278024
0.639050418510934
0.630050119364633
0.638855666973941
0.627157886570988
0.644323633423679
0.63602211307506
0.6397678243023
0.625584769028848
0.631794992590787
0.625822809918094
0.625576515715992
0.629533812860099
0.638077628637264
0.637403227056956
0.639041177555748
0.632735676929646
0.621922043631076
0.629018007741385
0.626869467247169
0.626935934459372
0.63862654141671
0.631228062953607
0.63170375036411
0.625990375876584
0.632315074331561
0.628078246809948
0.629149044943621
0.615988757459913
0.626199209511935
0.632468475575292
0.633166812692386
0.627438148793701
0.617646574324372
0.619051165032975
0.624916404663725
0.62720030457045
0.620619927192511
0.615159937509946
0.619682912339245
0.624940881399553
0.622045330798746
0.611936650958784
0.607134996323877
0.605707677693951
0.616164025419812
0.600693388702452
0.609120207674332
0.593150983009734
0.580696937815039
0.592856795976665
0.590576055685606
0.581634200961758
0.589748448865515
0.576616393660775
0.589798352035141
0.564519818955602
0.565429504156813
0.569897016159282
0.555524140166191
0.549696291871074
0.557438274722948
0.554437451177385
0.55983526205985
0.537902030457188
0.545945244542767
0.529398661083447
0.535675888631007
0.523247040567298
0.530696579691756
0.521718693112622
0.532445988140766
0.501401415249262
0.510721763821526
0.506266353727941
0.504068895604314
0.493825287521289
0.500095922377296
0.495134984530559
0.495141117975515
0.494637492227705
0.489911445479223
0.485280437885962
0.485240200886364
0.482261367927115
0.477940850380789
0.474684079337341
0.465709761750914
0.469976205646615
0.474692121559214
0.461976764835242
0.459939782456418
0.461483116992311
0.454958635239931
0.456197623564489
0.452388110231839
0.448004031955771
0.457135544044557
0.447750726937153
0.445251212994918
0.443669884467032
0.447344995404335
0.440734040602235
0.441438876780701
0.437663499672958
0.443068003447328
0.434378269795441
0.433411995444679
0.431941046239608
0.437265866181624
0.436043034175331
0.429146512082848
0.425540338893678
0.423732443994835
0.419696524483802
0.416442424530228
0.41901360057954
0.421846959188607
0.413012758976296
0.413284325438277
0.413777646574891
0.412000890635119
0.403212284690994
0.412205867483588
0.407671771547952
0.404416411715749
0.404499697499368
0.406491418516261
0.401136621600826
0.398848304571813
0.399972071154498
0.39533552560886
0.3916227572916
0.403929567804612
0.398110576863803
0.389226588791894
0.38827230263208
0.394189034549266
0.385770841040992
0.391222289812023
0.392422268675877
0.384575395922135
0.383387925974814
0.386587632528121
0.388434015314175
0.387340288202889
0.376783165593392
0.380759200584704
0.383017094303509
0.377175228496394
0.376193632664631
0.372695322363172
0.37239342164988
0.378671433248708
0.3772807880835
0.370397793855913
0.36837065696914
0.369410769133787
0.372114650209846
0.370755199499685
0.369893077940757
0.365620483083672
0.363778531879783
0.362857428165553
0.368329720715216
0.35787575068612
0.362028568268339
0.366476546317767
0.363750299449249
0.358032542503793
0.362246890437274
0.359595622805613
0.35467131476134
0.358736735680507
0.354473513108106
0.351788773635142
0.35434922874975
0.3572127039528
0.361389496794432
0.355344510163239
0.354593548870813
0.357787075073046
0.350662604709683
0.351902608987755
0.34712919898835
0.346738662735808
0.349906421219106
0.346936061299414
0.340877857704898
0.343801273164387
0.346571110676608
0.347574787885975
0.342741866582178
0.344658566835673
0.345880929684045
0.343058756009396
0.345062868716414
0.3410731625658
0.340221259689129
0.342565745450564
0.338388552094053
0.340370293032846
0.341483262187252
0.340053179709004
0.337326483507323
0.341964051603224
0.334809657698284
0.3383235216963
0.333642142793893
0.338752169467457
0.334162035281272
0.335146342763132
0.332034894648144
0.335448561181401
0.331460692788948
0.337342543056128
0.335348785965639
0.336143384819523
0.329405956694745
0.329465279378106
0.328147720932989
0.33139679496185
0.328022002002614
0.327254629907296
0.318461189635923
0.326231838902778
0.319723551266065
0.326460544789868
0.318329528608079
0.325405648335887
0.318846955830584
0.314803599472494
0.320914628529796
0.322904323970796
0.312742591701448
0.315938880921932
0.314308193444032
0.317070638401033
0.315426048864477
0.311507631033682
0.310755303919089
0.314196132308085
0.31273146098238
0.316793916096982
0.309399460559545
0.310825200039853
0.307684579385442
0.30691946961774
0.305117545114251
0.30754806685749
0.305398489253739
0.304881709275919
0.302399552863362
0.305466486576216
0.299799533375897
0.304215478646299
0.295873575213526
0.297492117903262
0.300415309037762
0.293718985607026
0.293613402068007
0.297940330328521
0.299249840910152
0.297358424516397
0.292894558579956
0.297048907585057
0.291468145802401
0.299614086532044
0.292439377641323
0.287619987675961
0.285281419039399
0.28649052752437
0.289894837138803
0.283392084553265
0.283476146392281
0.281029385877684
0.279947422645009
0.28393509445887
0.280732592908263
0.280263206339574
0.278067010279932
0.279631111825652
0.274066654968557
0.279581215989688
0.272251874039606
0.270843778581281
0.277517311465483
0.270435735466336
0.269889456797974
0.2698056379187
0.269425928095763
0.271295461004596
0.267062006233118
0.267454297595343
0.265997875032849
0.2631670351819
0.261991504020066
0.263626553423867
0.262410675630254
0.259060191273878
0.2594838077708
0.256966969726083
0.265583105778021
0.258622864039572
0.256724626547675
0.259213136122984
0.256540519519698
0.253983495702576
0.259297504687697
0.252320967148354
0.253942212259722
0.255993236665748
0.250023133409412
0.248184548213082
0.252449910311828
0.250743088445765
0.247382765887906
0.249355289910611
0.247047701302811
0.246434103857407
0.246877732678987
0.247391100430222
0.244689841992298
0.246575100889707
0.241987415504316
0.245383270838518
0.238940231233902
0.242829812662602
0.241623531990894
0.240633365754181
0.239161732454152
0.239403231276804
0.240083886064132
0.238637772811361
0.240442356489883
0.236457171708656
0.235227362700457
0.237650262984362
0.235496008959868
0.235554205679967
0.230239420274694
0.232439418030398
0.233117317047376
0.233068412631656
0.233897825970797
0.236243258584704
0.228400177393224
0.231451662992948
0.229919158504569
0.233170398685376
0.229531065341658
0.227075005842832
0.226792990988963
0.230453668887876
0.227886881306197
0.226661181692728
0.227540228884852
0.228512632027616
0.224476440311431
0.222798980285076
0.227267315767795
0.225114375781233
0.222832401995788
0.222999442851965
0.221082718878728
0.221679332863685
0.219866607067951
0.222212393093488
0.221088206612924
0.222409630360405
0.220758687109938
0.22093935623461
0.219182115053393
0.220465802346319
0.222034102802428
0.216705026170564
0.217876073341384
0.219608994929968
0.217658057648321
0.218755421405522
0.220314889889632
0.216691998912826
0.219811281710074
0.217426009725822
0.220812740582611
0.216375383090691
0.219956075806667
0.218189589930012
0.21583667882545
0.212643982384106
0.216120017622813
0.215026093404452
0.211782391510527
0.214475003747075
0.213075883986011
0.209645843531249
0.214169188022248
0.212907864650526
0.213530734002337
0.211352959832264
0.210487548723008
0.212749797089018
0.21022598587838
0.211387851370583
0.210010158388858
0.208068169541565
0.207614607728606
0.21026271305226
0.208283900779401
0.206502575789682
0.204226170714537
0.208184488547812
0.207051682202382
0.204413240542471
0.208668903347045
0.203891394129887
0.206319820315255
0.205701401132019
0.202141630779222
0.204259361931862
0.204008959790765
0.201487712353712
0.199557796536407
0.203000782382241
0.203514372195274
0.201550756653691
0.203853535470271
0.201296752661413
0.199900315139417
0.200528532766016
0.199501082017328
0.1998164777703
0.201525275853573
0.20160713039598
0.19897428619912
0.198774174900408
0.198376199215002
0.198583814219949
0.198547833725366
0.199348776647712
0.196928765712647
0.196177097539051
0.194303375332501
0.197019575076993
0.196776867065468
0.196525164434847
0.198541655243272
0.196183541474419
0.199556212529445
0.198286807961161
0.193914019891307
0.193961436452602
0.196673830202626
0.190061954683199
0.196903086102241
0.192958752046545
0.190924311140297
0.193928887287571
0.194267145304214
0.191483613965712
0.192651219323339
0.192836999552044
0.19131345375696
0.190798552863808
0.190156012774961
0.188765718582906
0.190104333467432
0.184059613789632
0.186442160758375
0.186692677702783
0.186213089163392
0.183798929734023
0.185711226284062
0.188155777235814
0.183418032771088
0.184271111274801
0.184214835498043
0.182023003016773
0.183782133974656
0.179427550011164
0.1833461738312
0.180705132558013
0.183599450689565
0.179295637174224
0.178926377011573
0.180114939059477
0.17890143665626
0.181611115232502
0.182768350346167
0.176366181890466
0.178868003355867
0.174564079649972
0.178793138378037
0.177712485713018
0.179571843448713
0.17643843644268
0.176948627751769
0.172184529683532
0.174624484942709
0.1718517660413
0.175468671028563
0.173251817330296
0.174439748238968
0.171073522587846
0.172413929951687
0.172631386748572
0.171483925572137
0.17093307486948
0.173507767956097
0.169960358556356
0.172949558061341
0.171000489077819
0.171826631735021
0.166657709514871
0.166961077952131
0.168042445394144
0.171552602123208
0.164955820404943
0.167430702245388
0.167095156421834
0.172041708691057
0.165994203327355
0.169718585623661
0.163890764818508
0.16866477725616
0.163793616203308
0.166295283836176
0.163537839461606
0.165797759387579
0.161591583173421
0.165085975064684
0.158482857339651
0.163318003331197
0.161909211714218
0.162717796549119
0.160243990923359
0.162439048049959
0.158619836613649
0.161580461661332
0.159105340225896
0.161882493571748
0.160140176492904
0.160841603371834
0.156571906315592
0.160450698689426
0.15931204900062
0.157991829143438
0.156540098771057
0.161392968047003
0.1559957419062
0.158617519029641
0.155697449143102
0.159499855935622
0.156261931150032
0.158973050352218
0.156237849393989
0.158722587543663
0.154648389060269
0.158208631472317
0.155463951456113
0.15579848962482
0.153805563738969
0.155580022069819
0.154869720157831
0.158566387321614
0.154123973742552
0.155954250059923
0.154783895787816
0.15703683040731
0.157122586556622
0.159857145154419
0.154795842287952
0.160041916773369
0.152890319751681
0.15484865099133
0.15180526456635
0.158029697543753
0.155202564989679
0.156120722423615
0.154277455793917
0.159033798276561
0.153524969298462
0.15502018430163
0.150098933187205
0.149747692031408
0.143083617152582
0.150861318710616
0.144878303949574
0.153045577909677
0.142635531961221
0.143939555060361
0.141106028445844
0.141482513975181
0.138162126145005
0.142189957987393
0.138643505847146
0.149754628334361
0.139991044652234
0.143686531614226
0.141697101721192
0.142850110268701
0.136070086302779
0.152177634693916
0.138768803610361
0.150804526365228
0.140400024553865
0.15127420937811
0.141986656440077
0.158998028315785
0.141328024311174
0.151326711962405
0.140670646754744
0.149883165218943
0.138872960567635
0.146466890015116
0.131618008892332
0.148186667333592
0.13512098348
0.149975008639506
0.136053763154262
0.147317396827666
0.135308480283198
0.14675000894244
0.137667257262477
0.147200463952036
0.144650389285965
0.149884340997777
0.146905819663919
0.133779613629869
0.145396338190039
0.139995171977965
0.160137710578636
0.138109584660462
0.157351338932173
0.123842855825828
0.171923967174698
0.124954092568247
0.167471504441149
0.115608151352955
0.181147651618266
0.120475125607122
0.172290518484504
0.125380568181339
0.176379051846495
0.126872650809362
0.165429400098402
0.137294450659704
0.157808516875687
0.147462752468778
0.152631997542997
0.148339314483494
0.144412421141904
0.149501723564865
0.14905099887159
0.148356200945036
0.147931073156997
0.146338863685118
0.153270202979854
0.146314559614317
0.155073929692922
0.145105469720997
0.152565908135313
0.146588223102131
0.150651494965952
0.145947738240322
0.150323315551713
0.145468949727979
0.149324321369838
0.145468458357932
0.151506025134153
0.147674516279665
0.148201142933988
0.146726786512251
0.151404377124654
0.146685030535895
0.150248880332561
0.147767079927924
0.150840298714504
0.148504580011252
0.151106122990238
0.144862493551052
0.150526999562869
0.150803815618153
0.151655671711584
0.147960893152889
0.151990105804977
0.149199212528458
0.151380076866626
0.150444197640169
0.148936816511668
0.149161955965861
0.152450208670295
0.151440527153087
0.149920835621121
0.149221795388302
0.153416419251049
0.150804291327623
0.149173054315542
0.148977791275431
0.152166582746013
0.148235343758034
0.151558441642231
0.150681198583521
0.154521163793181
0.151258416480591
0.152957899144428
0.153403699599624
0.15550896793039
0.15104305501963
0.152781153909024
0.151818044753382
0.153981894580795
0.151411444439148
0.153706748317834
0.154081228401668
0.152802400243008
0.152867008234701
0.155336774639169
0.155194800440885
0.151045434195098
0.153708607964581
0.15540120380417
0.152528476513759
0.157325132772971
0.155839545920309
0.153995578566839
0.153825805885551
0.153496506102725
0.152804227639802
0.155425799673186
0.154248048289117
0.154416870703943
0.157182338272627
0.157147516714188
0.154462470368382
0.157802382953238
0.155445503484348
0.158593976955661
0.15542861954476
0.154394329509563
0.158057484581717
0.155946641707236
0.155940105296456
0.158066264129237
0.156697202877024
0.157383783471008
0.15863080179987
0.157041503401938
0.155663155787168
0.159079258090954
0.159850390029923
0.161220977522636
0.159177681327224
0.159012725865063
0.159575740298534
0.158477714588511
0.160174503957963
0.159586271924286
0.157896083843892
0.158705344699849
0.159340898716318
0.161641971961803
0.16201633237558
0.163085194093464
0.163175232867921
0.16118896713045
0.163457477173553
0.162535805749392
0.162836365769374
0.162292116235678
0.164956662518321
0.164830860752071
0.161719466341303
0.162829257956321
0.161283121299363
0.162627663989736
0.164849698882072
0.162644834957195
0.164015610900666
0.162875485967685
0.166608871795172
0.165121322879171
0.165812639896013
0.163368796831232
0.162431357425397
0.164464703145638
0.165398542107207
0.165606313462305
0.169080399100089
0.165865532878957
0.166762563907106
0.166629850843759
0.165797423839898
0.166213347112148
0.166628863194595
0.167621183294139
0.166719236497131
0.166544330489473
0.165046188034095
0.167911734238993
0.168431357184187
0.166031332083152
0.169735265914472
0.168951729337208
0.167807044347458
0.168307775160653
0.169098448236952
0.170561729577771
0.167313890491017
0.167275738163713
0.171830554688283
0.170796651398461
0.171205402306069
0.173013654862081
0.170769414658845
0.16934423553019
0.170619587456803
0.169564437098398
0.170891313720673
0.17022978069847
0.175050351064165
0.170569429657077
0.171229194781076
0.171777293333537
0.171819441104427
0.170794851729126
0.169386220487829
0.169966721773031
0.171875962026116
0.171419290060131
0.171181356763891
0.17073258397137
0.169038860134
0.167924659861882
0.17204723366013
0.171466584572429
0.169626671987076
0.170040443386213
0.168205018328203
0.169259297043043
0.167930284449562
0.16787564616823
0.166913741159126
0.167597217901114
0.169461154925965
0.167961428721401
0.170956517472391
0.169757537261275
0.170747951858727
0.16804256650747
0.171466113198632
0.168560777887858
0.167100254377097
0.168021031934057
0.169591237472443
0.16490872150864
0.1667994932051
0.166920046046566
0.168256250874123
0.168974775525523
0.16957524870179
0.168033800202492
0.167011601427001
0.16526019049301
0.16683437287117
0.166135177135641
0.166179732286135
0.165961698680478
0.16574230116031
0.163962177593346
0.166183818636735
0.165909709732901
0.167405421237179
0.165076237194445
0.165438908027459
0.164457363417488
0.165750236040124
0.163210153574413
0.163158490824719
0.163212818592179
0.16606964698671
0.166513448995855
0.163522502073792
0.163619087684176
0.166293277659301
0.161948399868634
0.163510402744761
0.162991639974678
0.164551097825454
0.163624798829656
0.163482821384355
0.163628807179169
0.162058420063961
0.162729144764052
0.163146035035291
0.16081402730047
0.164445676598673
0.160649406280436
0.160574390531742
0.15982452934859
0.1617100157921
0.159512202611976
0.163998370713027
0.163591643860266
0.160703378163148
0.157966484060527
0.158695216370589
0.158788379696985
0.160134440603345
0.156274350496052
0.15888927681227
0.160653293532197
0.16305937807347
0.157309621123482
0.158331417087092
0.156516189619958
0.15829676207836
0.157067233500961
0.158330260408367
0.157108272268917
0.156570605788775
0.158394230519808
0.157453059560705
0.155191693985048
0.157116649166276
0.156039467036023
0.157798574007142
0.156484217624091
0.15488182270239
0.152125789341083
0.156008899146901
0.154797152814165
0.154671002043183
0.15392505692217
0.153689797412101
0.154670897847782
0.156031537431231
0.153207801202091
0.152877649885701
0.151367544802305
0.153108459945093
0.151286544548284
0.150123910023605
0.149306307274659
0.15193961866403
0.149953732238635
0.151567770983481
0.148951939142819
0.150025071392347
0.148315641207991
0.15108919457171
0.147409577649671
0.147928500849808
0.148321515025327
0.149181877962842
0.145102772399678
0.145777611794151
0.146343023982802
0.145352430129538
0.143424964337403
0.146185826285831
0.142550033813318
0.147923628369379
0.14835378905359
0.147098364534553
0.1398596609941
0.143383847629721
0.140418601523886
0.143234590792305
0.138515556438776
0.141646004756355
0.13922182614671
0.142365208075458
0.138831074163641
0.141295799676427
0.136260039551848
0.139084162374171
0.138620131933555
0.141222273648674
0.135182816048348
0.139728776476046
0.134052222764165
0.136731418023724
0.134027303641138
0.137937463307589
0.135091841741583
0.13806631402873
0.132000383266006
0.137805695872914
0.141004912979145
0.145231257954436
0.134930504845726
0.135931750112135
0.137856360723673
0.13587475292346
0.132787423566755
0.133432346226751
0.131719961492984
0.133495753602246
0.132251893704895
0.133523370580526
0.131445180389354
0.130305474966506
0.130453745461738
0.128832240567873
0.128802993385692
0.131379044872752
0.128968095511292
0.130397547506538
0.126914104236477
0.132113260006017
0.128807611896789
0.128619363793436
0.126667070481789
0.128809720344611
0.133330303645598
0.136266332685595
0.1340140673075
0.130520359081267
0.126861524407217
0.125630939204014
0.125162012288809
0.127512935631298
0.127093173658692
0.124965621500853
0.124342510055744
0.124968322291903
0.123792151700417
0.124674543030581
0.124448379916972
0.12580109060409
0.122240239104789
0.123008961938322
0.122313106963146
0.12414416246989
0.12093323753124
0.122711846952687
0.123825040897666
0.123655871008541
0.124437683728084
0.122178449311869
0.122297630688102
0.133728722600229
0.1375752372682
0.126839001146471
0.117694297915888
0.12163586289579
0.117865939550935
0.121933977912787
0.118734504985267
0.121090114931986
0.116721092238846
0.12054862695445
0.119271956597941
0.121953639424222
0.116723233898466
0.119950949326776
0.117109841231071
0.121287110710393
0.117390338375278
0.119913354132091
0.117111582668344
0.120602410691481
0.125433426364125
0.130933397840246
0.119585578380458
0.119799869090481
0.114736103509005
0.12695236310585
0.126246165530774
0.128357947637681
0.110570087681991
0.121977817821759
0.113569980186708
0.120748052350287
0.113477954458257
0.120450716621798
0.12065170320983
0.123521066715856
0.117272938533209
0.119360428424528
0.115865045940105
0.114479180000734
0.113259684389906
0.118318821449758
0.113616390543579
0.116385933967853
0.114222907072709
0.117738185257992
0.112353663189819
0.117404306512027
0.111377239600653
0.117148673887983
0.11867775240658
0.122290500980526
0.113615647102336
0.116843907233216
0.111648298416767
0.117283428091183
0.127078971670705
0.128000794850854
0.11649825374633
0.112948592799708
0.116082726885606
0.114486270232954
0.115450527902934
0.114223444336721
0.114125952018249
0.115302629650843
0.112317189568031
0.113584057825145
0.115501483096886
0.116067193974616
0.111608740018231
0.112872940740912
0.113716097337932
0.115007135011677
0.11121025242018
0.114622915384538
0.111540367663335
0.125974891739257
0.127914147062528
0.139100331208444
0.125735464977077
0.126131060503187
0.11671731919227
0.115963606766121
0.113164091729012
0.115647665247962
0.113193998254728
0.115423666389883
0.11493261562402
0.113501558270725
0.114435032125547
0.114176998748378
0.111726840493335
0.113235225919
0.112302257552971
0.11486002571462
0.114211878841129
0.112129375250691
0.115652287039353
0.112515324368542
0.11705888500278
0.121018304387656
0.124990246341451
0.11205227255022
0.133314866660707
0.141007179518468
0.134903775040171
0.121058843564626
0.116773057857063
0.118121679226921
0.113207258452428
0.117300567023102
0.116722753388014
0.120697366594394
0.116138717952735
0.117958256168747
0.116441907865929
0.118255320208777
0.112495635566093
0.121759679516396
0.13463505298113
0.143465122022553
0.126528865944847
0.115545070081118
0.117787395323418
0.139260260369572
0.133454623705422
0.123556130909721
0.115888655653477
0.123818257900115
0.112780056004949
0.12099026600829
0.114343745382688
0.120879846614015
0.124557367020554
0.123521185779056
0.117977796282119
0.122791497925771
0.11957895959705
0.126533670339457
0.127510950296014
0.135915756458777
0.127596219730548
0.125526222773394
0.124289670580478
0.129414378025669
0.118745549209487
0.125884817730536
0.12026376583366
0.126095377858028
0.134868239541422
0.138291433268545
0.134290045806301
0.144087983245025
0.129138629107888
0.127159217857734
0.128024486861723
0.142158063932366
0.124810340534963
0.133049891967094
0.149527694146333
0.149353809202662
0.152070286086745
0.137839942960634
0.134523774909865
0.127079613632859
0.132344323592846
0.124221839344468
0.143816057354272
0.143219676675052
0.136549923506256
0.128649528660353
0.134697383900894
0.143990683805558
0.145469175280976
0.137217168022704
0.135822892764792
0.131541087658397
0.146629675795999
0.146969987544834
0.136568011810086
0.151962697484341
0.160270902835795
0.180544614275468
0.151127254262204
0.141536673676484
0.151237248201828
0.16648039733271
0.149062849611869
0.13872255163635
0.141035938118372
0.141756978548013
0.141934149468721
0.162695424440555
0.161189100776915
0.153038770221162
0.147051064929996
0.151690228653252
0.157178129760189
0.167295391937397
0.159260476361267
0.148395000688115
0.1540976701494
0.151105372438933
0.171554816242471
0.187490701086038
0.174345917427957
0.181449455779563
0.183509317088919
0.181485833961971
0.170076304424164
0.174699384406157
0.168290647141904
0.191066188456232
0.186061805235997
0.16870981887143
0.17160578183524
0.197655066474835
0.18402551920421
0.185778498853489
0.17279168395567
0.182471019723324
0.193804162343813
0.240454477882775
0.225015961382647
0.212830824266884
0.187669865651094
0.205695599823498
0.210567951513926
0.20461343176618
0.191941386079408
0.199337503057795
0.19595696178519
0.201751162157765
0.205653437840462
0.213524103747616
0.213697728866239
0.210628259921056
0.211816525123712
0.224401213474852
0.248607430662126
0.282749231632007
0.240048706012255
0.256617901702738
0.258538416693588
0.260533129633145
0.235979174431195
0.239689056842579
0.244201027112635
0.258770883593888
0.247541573659959
0.250479234807309
0.2633255237377
0.2867571215548
0.274649603121484
0.288875107839863
0.277331870448335
0.284562811070751
0.286835516904145
0.35082964220773
0.3668915724607
0.340422037261768
0.306701371873124
0.340356683611953
0.345912045692945
0.390805739870143
0.349023951793561
0.351037159638327
0.356042052638654
0.369096252533822
0.377373935684678
0.394610745347673
0.39962213189122
0.430029724379796
0.409781716806099
0.434368348885238
0.450616764832097
0.540296116002359
0.500551332988319
0.475943960741877
0.472147437865519
0.508957331107251
0.501318350712797
0.506590728452159
0.511465533837296
0.519924976097091
0.551041124541047
0.602597498938591
0.567298762866941
0.562984459724077
0.589535608825829
0.60716488302455
0.609973320158656
0.66866828850142
0.650767694430251
0.633983913550535
0.636970825258065
0.662440523625935
0.659022252275024
0.688588426561688
0.709999194069131
0.723648227221555
0.697398115885462
0.727312213250408
0.727580152760359
0.73978094354332
0.749568103922939
0.769500020857699
0.772301527428258
0.848098333415556
0.885772653138658
0.942383817944333
0.819433525436851
0.820583466289522
0.794103346744778
0.825755391984888
0.850672249210374
0.854243646159202
0.894965701854325
0.867504420730994
0.821987785517511
0.840866999797937
0.858476016748336
0.846212586688982
0.852173317011883
0.855725902002652
0.848115847903961
0.907022284918375
0.862379351357364
0.931826671383921
0.919698702525782
0.879086554418289
0.845595359242928
0.864015927701642
0.834542494185723
0.874487303627026
0.8337637434662
0.841804016536984
0.867092949429418
0.83876207941981
0.807535837267123
0.817863358752287
0.816254860338912
0.844528001436706
0.786253657950721
0.773671439403373
0.762572358865791
0.74930956685162
0.726702379277373
0.807697712972494
0.803191080823949
0.724277495667222
0.7056760324159
0.703586032757221
0.685985477430294
0.679933527630794
0.673549135300146
0.675795092182549
0.659460823686634
0.65855764373616
0.642123232857679
0.647701588151958
0.634473412074141
0.626832597452012
0.627970000603974
0.629385751841538
0.617604664832946
0.618970661236897
0.602377938203732
0.606919434194402
0.603117736611951
0.598312082964441
0.594877674934203
0.605218689087509
0.58710520367873
0.594298699158076
0.584363424217904
0.585451054813623
0.583340562584053
0.588400278047059
0.588849051791182
0.592708326881325
0.573488336746712
0.581464209699668
0.577479701372028
0.583200354361118
0.578439133952003
0.58254464517374
0.574088441109341
0.581672386641937
0.577922454965665
0.584744216891912
0.581241977522956
0.6594549815747
0.603179582528662
0.574578827541973
0.568617364115425
0.577273130098444
0.567849965886498
0.578971720744294
0.625293899633594
0.608498514409025
0.566979535901301
0.568156148244921
0.567986051156575
0.592643581401043
0.576104027993105
0.569301198327852
0.55897301485257
0.572418784747874
0.595235889459318
0.665103055891973
0.644693839076029
0.645774148087027
0.575539621306815
0.551706134575085
0.588087724870689
0.59261152830636
0.561660570619057
0.55804065682468
0.549126474022036
0.616337716210088
0.571103787755215
0.54259905115205
0.546691973140873
0.548487586170241
0.579738255766443
0.5762769722227
0.560451364608221
0.578979305522363
0.576735012221905
0.570922724568209
0.596073721115149
0.608789648194001
0.532116544950612
0.51256932945329
0.511659049058036
0.507800341781269
0.527399580777639
0.567437986900266
0.509277494297958
0.516516123028516
0.480224761646968
0.49079575891187
0.493312361730954
0.513157745660679
0.493418346640073
0.509666774856939
0.513864648664845
0.46341850717794
0.488247774454279
0.501867957711749
0.507803902929768
0.520541225355613
0.46013981117089
0.455473356935323
0.500124638242817
0.502413399971958
0.464938178131724
0.460506600328811
0.428588031523077
0.444599223924993
0.441358356973686
0.430745433920201
0.450947820805907
0.451965311712265
0.461373398158112
0.495035809305359
0.498558586963
0.464506917725063
0.406862239198641
0.396231631900923
0.39643090518399
0.401114722717242
0.390464964070944
0.388768308403116
0.425492256821499
0.4022346963321
0.393218335830941
0.447748148555741
0.400000933699089
0.386518492927634
0.390281980270655
0.383939711019776
0.400154512400557
0.428775943198585
0.434131616711998
0.413623553134236
0.42004218894792
0.4324984174629
0.399481454284946
0.40777560616036
0.402819473936218
0.411532740829221
0.417927411331017
0.436946861759522
0.425877854096738
0.431014162490726
0.434447455113796
0.450042288596042
0.480049001878034
0.483226823081144
0.459854574908372
0.519514341350691
0.503551252446687
0.550385299550285
0.50659287904067
0.506103733918073
0.516231605014204
0.518148528593882
0.518955356914189
0.529003512298824
0.546322516920299
0.575345959126723
0.540473402044086
0.558518904390762
0.5553838549919
0.563593877384097
0.563610866420133
0.613193250815346
0.59836079682891
0.66736521017299
0.625191677164551
0.617701734994744
0.593978321099562
0.591073192206826
0.602778015339062
0.59447395516789
0.585801697687706
0.593042007697723
0.602555101654424
0.630856949598086
0.603152157857957
0.615840563150636
0.601471116008056
0.612129335249346
0.607244060346521
0.61678624140971
0.615932728940437
0.625228253146833
0.61946596024592
0.637886482444335
0.632449913550373
0.71994250453941
0.652073024725003
0.646468133855056
0.64119887967601
0.654081557331616
0.647305033079484
0.652768302216542
0.671647552979543
0.668273823446066
0.661400534761591
0.669393951704086
0.666096611787932
0.682593936768004
0.686205421388422
0.71841509054614
0.6871363652518
0.701628446364513
0.680408138984346
0.745979193536166
0.729950090264254
0.728314751608386
0.727360720441423
0.710604636846182
0.711350689568977
0.70736064106538
0.70953094312528
0.71219126111653
0.721927941154666
0.72016453610242
0.728016594108021
0.713243852098722
0.710705006168883
0.718034259476519
0.721539011435941
0.760313117442242
0.718949337238056
0.720792766355723
0.710197961418264
0.723422936877267
0.707429210577681
0.751587452447699
0.738642472477727
0.72682728541526
0.727262361321839
0.742386989059694
0.74287563509329
0.744740820371542
0.709436612038763
0.717388366039239
0.714669631965232
0.720649303017475
0.714559210654176
0.729082082434636
0.754300351485543
0.732859798579787
0.731538136994278
0.730144749291788
0.729612692922391
0.740209063000467
0.739456189245005
0.740896309642762
0.755908343395055
0.756341122524645
0.748496153949906
0.755197704624944
0.754694517802899
0.774179308756039
0.784434142197141
0.779591813035693
0.757731928208796
0.756294148405908
0.750049346114074
0.761893312660271
0.757076571708275
0.758517986225557
0.749822430807927
0.752137271441187
0.737196172146519
0.728547307548099
0.771595326899942
0.72864900972401
0.73529963369282
0.70645518975835
0.705060976347139
0.702843566739943
0.699049879685985
0.698471549070104
0.694515917463732
0.701704934622066
0.686086838757713
0.684369707123916
0.67444013072379
0.681355429929895
0.68421847186885
0.680949861264677
0.667946621291823
0.677279278681494
0.670374818855577
0.671147891804429
0.673380174714272
0.675496872034653
0.673398818484285
0.673482248227429
0.693756751598651
0.690424610176831
0.695334193437346
0.677067979979211
0.675206743199554
0.685983202433899
0.661724898366999
0.673007718167099
0.657519279249449
0.679064203886666
0.668599216555971
0.675120953459339
0.662210170659502
0.668530909329536
0.666297742767199
0.664846161926817
0.662456750231833
0.670937529526989
0.667033618710301
0.665867279364762
0.653603963138064
0.668591170933421
0.660385245776686
0.668678746446817
0.671508215940357
0.664128136426687
0.669007929248751
0.659404533247504
0.673277373101317
0.668116807127147
0.667612798066899
0.669637121078866
0.665405425334209
0.667924873829454
0.657477399655722
0.670033816901413
0.659301283681883
0.660588100829673
0.657851715776185
0.652720668894888
0.652849466257953
0.649435894586876
0.647168702268709
0.638497997226123
0.63113177038145
0.630236614297549
0.620741677601749
0.630325314987986
0.616279145990142
0.622709203701121
0.617447714959783
0.61130439835549
0.599756854705594
0.60373749817879
0.598077266741647
0.600319913879402
0.59557499009029
0.598063427170006
0.590864325734784
0.591009544833495
0.588988967477629
0.592372991408232
0.587334156052545
0.586596436024483
0.580393987309774
0.590480921912838
0.583577331437431
0.58778684803672
0.588383445359329
0.592326794638345
0.591193016477827
0.596946728509395
0.594722752349098
0.593878775678774
0.594080498188344
0.599980716523581
0.598356982440734
0.60192872248327
0.599807607117326
0.608435126505771
0.61002529749151
0.613717769156337
0.608747730030849
0.611753358581708
0.616595636857175
0.6202136706357
0.619187241755691
0.62224195788551
0.611850756081266
0.618478327201466
0.61164250654326
0.623955317495508
0.620707216716065
0.61943288628961
0.613567760997477
0.617107640752769
0.612725547121091
0.61381860874178
0.607889125543351
0.610278672537178
0.60735238420779
0.608195285069509
0.607433093201495
0.604593708998839
0.605228548403971
0.605957066796653
0.597083418802758
0.594057141228994
0.593112017766232
0.593198718626298
0.589193745610882
0.588844459377733
0.58758173365106
0.584849049118475
0.58390164638595
0.582406383041749
0.579723282062812
0.577359813376489
0.575373193735112
0.57929748031386
0.574838056115
0.57810430560113
0.572044982377438
0.574658600818729
0.572577890715061
0.571296621325594
0.565214828754034
0.567298623724601
0.566034489368363
0.559503971134603
0.556167278329553
0.554255906192834
0.55253372352166
0.552487881424507
0.542422915217308
0.542351863719161
0.534612822395367
0.538362329714487
0.530114679098148
0.525340106932597
0.517311947503192
0.516451771326823
0.512024921447757
0.511812888385963
0.510052821393211
0.510782260492334
0.508847175578231
0.505579900237737
0.505954037471304
0.507229128403202
0.502181774630619
0.495938246964532
0.49384308677751
0.496434098989592
0.4959683673127
0.489121960043708
0.482620416083701
0.479142141077424
0.474656921394999
0.471064528434672
0.464608895213383
0.459763302752751
0.452578581439334
0.452353280923321
0.448937161023993
0.444567417047765
0.443258511848633
0.446308496452681
0.445965960547259
0.450829910323294
0.457686260352201
0.462467555616808
0.469110212196228
0.47975078966201
0.488492291966055
0.505621114134822
0.519204813768019
0.534103943350717
0.548396556859155
0.564141206225092
0.581929229586627
0.604184213467123
0.617988468976806
0.63738469313769
0.653584434329509
0.674555131493048
0.694035460000047
0.708292324063914
0.721602887478828
0.74573419125947
0.76662251778914
0.780236828041376
0.78882090559686
0.813296483291934
0.833010228468711
0.835906070853136
0.847621509425543
0.86465884828394
0.867615552973053
0.881062496523885
0.882531671018352
0.890776753812591
0.897408099267988
0.90693008030227
0.898967737251466
0.899226713546267
0.899954280795212
0.903264458683916
0.909215199758602
0.910109451392001
0.896032181964207
0.896553836138592
0.903024811736451
0.904603682153976
0.910475895729233
0.906167914081958
0.901310564020457
0.900840405309256
0.915565868083653
0.913779536673737
0.920197102220149
0.922479809591872
0.938286491778412
0.942152201756394
0.951341621121211
0.955080761665835
0.961566817261396
0.973862043984056
0.987530723921581
1.00041016970432
1.01242856767498
1.02167828560568
1.03508919521067
1.05933562068443
1.07027799834689
1.07671466023604
1.09758937426693
1.11756960244552
1.10818605760729
1.1123351435264
1.11298944403461
1.13895887880704
1.15158291772117
1.14946042448749
1.13018665785781
1.13480446920874
1.12950035980503
1.11496227970329
1.11445666891669
1.08897073808733
1.09363521884681
1.10129636138669
1.09836428990102
1.08712382753723
1.10747789576455
1.127741503765
1.14027276035831
1.16740139893041
1.16221246578698
1.177489958083
1.20145150697833
1.1963554794777
1.22066942937123
1.2373004906297
1.24478872660463
1.26097166231203
1.29639470353787
1.31122437011092
1.32416709701063
1.33258824864134
1.34854981783707
1.37186640430118
1.39042088428812
1.40781963396959
1.45582539131594
1.4082601007379
1.43814725191341
1.5064977279301
1.54671283755782
1.52642811740762
1.54325352489112
1.60759602677289
1.61273890040227
1.63700621611252
1.63349832635894
1.58715902680043
1.72311082515739
1.6393665138018
1.77745772136672
1.70151231031919
1.72045706711353
1.82086927231256
1.77574161999411
1.74499125314289
1.72551137079267
1.77755489407931
1.70084243463202
1.73373402663601
1.72372521262216
1.69756098373962
1.81181214787646
1.75797222480968
1.72874692174653
1.74519787417656
1.75422539268319
1.79990897241055
1.72843660938422
1.68789907559462
1.74493159181049
1.74806259505632
1.81257100389282
1.75986351201895
1.8662363144332
1.91116245242257
1.85556095829778
1.93273948233835
1.93663251985829
1.78550947942785
1.98461939463758
1.81119103798158
2.09905206404402
1.98973973185372
2.05109169255465
1.92836130921831
1.99089788395953
2.0152540870741
1.88509312933682
1.91240243556897
2.05924584660926
2.00837407219578
2.01046878787161
2.034505094369
1.92294084397215
1.95468209383513
1.92569794552701
1.9886098571995
2.1595775702128
2.02006075334646
2.07702867071483
1.92524422939758
2.04728764591755
1.87586233663828
2.08668945179107
1.92006538929335
1.99232074045337
2.0267480899306
2.15013255665839
1.94142315878004
2.0925492465969
1.96014541893607
1.92129078580177
1.88621450485385
1.96438053278081
1.8291901231998
1.8857672411295
1.81688583817592
1.75902999144132
1.75040140571068
1.66989346602041
1.5748553378373
1.61521223799815
1.52223817361864
1.56237976207651
1.49733605608006
1.49301842772327
1.5064872689121
1.51632044713645
1.47076397808564
1.46508052081644
1.43045196333013
1.45929970854502
1.4488060059049
1.43463955852693
1.41275969793377
1.4006518170559
1.41738678038176
1.40984747386216
1.37003813994551
1.38940843518301
1.35613001320543
1.3532153530103
1.32055962858842
1.30441009767565
1.27709355505869
1.24390580559129
1.20630761617775
1.19129660521042
1.18871329727877
1.14198065074818
1.10607796487253
1.09452908676003
1.05366094441301
1.01546521008453
0.971900911092482
0.95654611686158
0.929783052778408
0.906015222584703
0.879097778884569
0.843579619461699
0.812161813434041
0.808453380470912
0.783940005031641
0.762246901300714
0.743553297614552
0.730128037075935
0.731824697421766
0.720464666464577
0.7038954131247
0.70508761603055
0.690272831761457
0.689602839533829
0.685937294395609
0.688180579815186
0.683270942072765
0.685722730348805
0.678325941665482
0.686627834603333
0.679508989607122
0.674908755582128
0.680041318876278
0.687754670311695
0.691073810616371
0.687776105066849
0.683139885433044
0.692839246725972
0.689758189839571
0.682958980521284
0.680366907474564
0.679194351988707
0.671470537004991
0.672536069343625
0.660686362109621
0.660948036942314
0.658075595881127
0.662716481833813
0.659618826749867
0.656487065473384
0.655719412034252
0.661035205493549
0.660422221933009
0.656834931237512
0.647241508287022
0.662032622612343
0.667534829172194
0.668823086491017
0.664424965321919
0.675932691039298
0.679743606219442
0.678697379606211
0.67765488345914
0.681783768617413
0.675777648327302
0.688776042382504
0.693085698021393
0.69078227498825
0.691473027950429
0.702489326009366
0.693324376851996
0.702850908259566
0.69554691105963
0.703102115356278
0.686649754088512
0.697813969908217
0.694632645845724
0.702110796290885
0.71553122002879
0.726749681961804
0.721269552674388
0.729272956984246
0.733140285417417
0.763492550960042
0.75314430596736
0.780343243834702
0.793714383933648
0.814690845189551
0.80011305995011
0.831664525944501
0.851298469422449
0.86229028290572
0.862179703408833
0.862787386081556
0.866433272379101
0.882384160933654
0.874613564226389
0.865159070224628
0.832240285282428
0.84195267836143
0.848934059622574
0.851610574402671
0.83407840118135
0.844317052091499
0.842707270975746
0.838149160936714
0.809378202123029
0.825253127117384
0.828581940374489
0.846699185786082
0.84223936968582
0.839909059463128
0.835184541160312
0.866583956472298
0.845061783100437
0.824398629526891
0.821382518236951
0.834392128731949
0.823119136494672
0.836564794705957
0.830598437042197
0.819990588687834
0.819490411459579
0.823200200779451
0.796442337220291
0.832266594767265
0.796752584487541
0.80351366053146
0.811468455756983
0.825800430761368
0.823278785765908
0.814743980619559
0.816632414599933
0.816671058657999
0.809368312389756
0.815006431074627
0.813358569839384
0.808277992035397
0.796049801663516
0.805715505762362
0.801890273508164
0.822048025014651
0.801867515490033
0.812131314124845
0.814205125614688
0.821011422044017
0.816738954491174
0.812348604060278
0.820667427771658
0.849592511969685
0.838167748772338
0.828743662975745
0.813905328721767
0.832793029615808
0.825855231376321
0.828779944363519
0.831207466915672
0.839475289840444
0.826062997879232
0.826611264265858
0.814085071702927
0.833093343887598
0.81981519256256
0.823556461582293
0.810687977538046
0.826504753609767
0.812727541401447
0.83827828312036
0.821721186919882
0.811862135008914
0.837061366929905
0.869740915884625
0.846856931759358
0.840891918906873
0.841207347781056
0.864256290824442
0.864398543671353
0.875870881315564
0.858465140749541
0.878645160120667
0.870687030196606
0.905421147537632
0.861710515639487
0.885649748942199
0.92099512583868
0.906572128129005
0.896807525922516
0.918598485998605
0.918101323738444
0.919809321461641
0.912415598220458
0.950236510774099
0.93508157182108
0.951134230288091
0.947986862245719
0.955674728327371
0.971462451809076
1.07433513528084
1.0065428511867
1.02274681115465
1.04654376851459
1.10018861361979
1.10037576020887
1.11548622873051
1.09029762766955
1.17463188664211
1.08992441834608
1.06868659224902
1.11941313920284
1.21825845762871
1.23104079335358
1.17975568657482
1.12152316997704
1.14928761149555
1.21210796362582
1.26486271655132
1.13507296350295
1.21641016966012
1.22900870792993
1.15499488470551
1.18042075294008
1.30437024341135
1.1886432570625
1.2048908958601
1.2418318706181
1.32131308415346
1.2979589347055
1.26929786685752
1.18259263882734
1.18058328605471
1.15171734058837
1.14410342031767
1.09003819181232
1.12627605275971
1.2543559321388
1.30607520553613
1.13747030782862
1.23158951994052
1.17445979264213
1.33973139397992
1.21358562743122
1.12631402704268
1.24801233125815
1.3711190783355
1.18660939133037
1.15907389423079
1.19959543924987
1.21725051499186
1.251410977045
1.36886886290043
1.158554408051
1.17313706940423
1.16691418435881
1.236024076928
1.28396201767416
1.28227078711179
1.20261852930363
1.27417824186385
1.24959920251164
1.17267168820831
1.0120397468365
1.17245092781927
1.26732835843261
1.11559832071899
1.28500674145295
1.39604227208732
1.30127552575681
1.48014259712565
1.28367084734831
1.32434784251826
1.19094277832074
1.40843092044289
1.71569968041942
1.35853712505228
1.27529260498055
1.4019115237657
1.2336926880316
1.16072262442402
1.33081149320407
1.61961916561147
1.38037864777317
1.26457310156343
1.28252630148587
1.28319237152711
1.30501093385886
1.25171626192461
1.26467532358799
1.54604124695737
1.39183846441408
1.16644610414676
1.15897427349277
1.46685527424187
1.81497713638318
1.59660600543278
1.28363184196635
1.19267331550782
1.4241699246096
2.09779843723106
1.59324333141242
1.84336297583049
1.67756447070873
2.05431957746678
1.65293739907353
1.46691397192685
1.22695425245408
5
2.98319831227339
1.30473584280353
1.23989773844966
1.30784012749807
1.27160554841935
1.15324243045793
1.26852319478001
1.58688578773445
1.66150774290427
1.32868933335382
1.72206004180687
1.81691813948712
1.78773063707299
1.65800006337204
1.49729065393303
1.90934553379849
5
5
2.16937317541813
5
1.05535414396509
1.6169924598941
1.3770827758771
0.970104822210402
1.74157809405764
1.28132124021423
5
5
0.988151071102943
1.07285862105548
1.38638301124047
2.06781551302921
1.65918553773807
1.08709985462601
1.1370172945483
0.935036791269365
1.80803251269053
5
5
1.30750870662344
0.752556980004152
2.82424660202229
2.29109473215762
5
5
5
1.41329689263241
0.936809581906201
1.20583174904266
