3596
4000.36533379555
650.420452594757
1
2
2
0.0591289878108634
0.0604005763598107
0.0584165764052313
0.0636756676155682
0.0509258819110667
0.0561783807166855
0.0513480315798589
0.0582486324565598
0.0541961996669628
0.0606808425527317
0.0528842436431532
0.0550361998978075
0.0554493431817195
0.0635163328140214
0.0556798922496799
0.0594592702023309
0.0555179721760077
0.062083466416014
0.0546091433651948
0.0589567584294914
0.0601559424691505
0.0628416026645969
0.0504167985528711
0.0605068437325853
0.0571799269675227
0.0615225148533965
0.0566012546352451
0.0705359106629448
0.0601037500277705
0.0535595758123289
0.0531480773666673
0.0587804667215784
0.0584292110503936
0.065057780901438
0.0580516736095766
0.0591381692571078
0.0538610443817256
0.057716339990014
0.0517823242155039
0.0654724066918427
0.0601018087044312
0.0600918930191246
0.058172349161043
0.0626065258215867
0.0580738972884828
0.0643629561231989
0.0597437655913437
0.0569255061043379
0.0554184618776955
0.060399438495312
0.0473022466704683
0.058050155068131
0.062247042165716
0.0574596030647432
0.0607768270306503
0.0749565232288818
0.0586028078629738
0.0576887332593433
0.0566842645284073
0.0669703248543533
0.0694311657794
0.066073576961528
0.0563436552374594
0.0587998665639533
0.0583489584118211
0.05576093303163
0.0492673697523388
0.0617776249834878
0.059903885617086
0.0609980426912761
0.0579667487134378
0.0707185875166558
0.0676084232760103
0.0629412039264158
0.0571692457986764
0.0664126075339948
0.0625886730131413
0.0551184342670691
0.0519235184144827
0.0642830136299739
0.0644076491711799
0.0601228946890433
0.0504219552443679
0.0599756382729988
0.0620717569614716
0.0647885339909484
0.0490483899023754
0.0711391798662726
0.0783199616431526
0.0608292789823293
0.0505920037457896
0.0584506981203766
0.0485301160481273
0.0535355792493228
0.0569536883628546
0.0538349074603286
0.0472177297173765
0.056163789241304
0.060357058851639
0.0555331958982036
0.0647505450951156
0.0844951740595244
0.0721101976333527
0.0636134443405842
0.0714087704536201
0.0665665199784354
0.0680975094709973
0.0917757376196965
0.0634745282204259
0.0626609982362625
0.0519297234004535
0.0566811255480152
0.0536122338999087
0.0574110675287287
0.0611002494334898
0.0796962301509524
0.0691428868882745
0.0534826982187829
0.0594364347216497
0.055105870084106
0.061068841243819
0.090861751937485
0.0731555932883907
0.0533772278535761
0.0575017048716807
0.0563032590574477
0.0655698941553323
0.0838218712772718
0.0665803028235938
0.0550575419478706
0.0561777692133064
0.0526518170429859
0.0478372383823512
0.0604182188848951
0.0767023957942673
0.0595457836680975
0.0592276334842022
0.0661364382187423
0.079589884098197
0.0817764676413044
0.0514143105590199
0.055389370748163
0.0511976894564245
0.0724090418884491
0.071354530837725
0.0512321791025854
0.055417352243308
0.0764818126842037
0.0565421860052919
0.0484966320344506
0.0505738090075727
0.0590085862070456
0.0618065423043176
0.0554738564214231
0.0614063827340838
0.0938575288642038
0.0923457054609067
0.0821471265027073
0.0803340400339644
0.0573496921185255
0.0587714884642004
0.0581490653813377
0.0526378327518772
0.0506243805668973
0.0550164820749161
0.0638234323285391
0.0730641463925469
0.0638223289650303
0.0531076790993504
0.0727033946051432
0.0655312823604293
0.0663614732395344
0.067693061305705
0.0834646427436548
0.0615607397342509
0.0636611073992766
0.0708924647486466
0.0579505049404801
0.0558178063964637
0.0746491119394246
0.0641391572566839
0.0518326721357055
0.0531347835428233
0.0515194622560886
0.0576113994762874
0.0703175861678507
0.0623901644612338
0.0563945896627792
0.0615307049874955
0.0613584797928033
0.0802992600273702
0.0952784461415299
0.0680990680841709
0.0505347638022202
0.0558749517527103
0.0602467100925503
0.0693907091701037
0.0663739149924939
0.0467578210468348
0.0532972798074461
0.0540591126106144
0.0541490707235126
0.0488149200596671
0.0469507862966049
0.0537662022255707
0.0666528883720918
0.0757778338522236
0.0622562012742828
0.044907379345509
0.0584155721981097
0.0629388791775515
0.0662217569723042
0.0835554890609651
0.0715533282501068
0.059877606025948
0.0553622925674062
0.0633802312741023
0.0712344824683548
0.0556599838117336
0.0509371672282074
0.0495218430172861
0.0513231676728702
0.0469258965518704
0.0443795008125214
0.0477017391179913
0.0563547223482059
0.0476906757805414
0.0535024749450589
0.0528856124709911
0.0597359384439736
0.0644862899608354
0.0520172344585109
0.0454386963970482
0.0538660518395769
0.0517651148690128
0.0605464736903312
0.062459885198347
0.0514934525310568
0.0481375066581535
0.0501997038443037
0.048576227970483
0.0471714960453055
0.049993226978577
0.0530373787407474
0.0488526564179614
0.0607820623910462
0.068422638020246
0.0637358117724344
0.0483459086015289
0.0563134114481518
0.065133996524254
0.0670218809669452
0.0491115884127822
0.0585749677235308
0.0537229452415024
0.0541509861520503
0.0620478240943711
0.0757275067544225
0.0629544627971691
0.0592599147229288
0.0640112049458333
0.059376730162466
0.0562783489464513
0.0597246819417095
0.0716472276782099
0.0897698092500641
0.0693395843867578
0.0877202045484757
0.0836671657046632
0.0659355248795237
0.0542562971810447
0.0655226421549371
0.0704576109190688
0.0911377073985436
0.0783132576439919
0.0661570008081238
0.0609715001094458
0.0694995087364816
0.0576624784440097
0.0603036751627794
0.0659657536489066
0.0757254760169713
0.0971858934312576
0.11238927247376
0.0753684466337385
0.066609067638231
0.0750118347371894
0.0675543326665296
0.048177554819183
0.0542561777861142
0.0501169015084285
0.0596946605466202
0.0724024378251063
0.0646497004629017
0.0627567067394097
0.0670243877308568
0.0734762382868612
0.0742509225466017
0.0601852549839101
0.059658348271377
0.0699980183285716
0.064818454004822
0.0554888111986042
0.0592331216209451
0.0634386137553372
0.0640753988347479
0.0569466690192991
0.0761990411162625
0.0910568058639074
0.0758304254263665
0.0760667220710035
0.0748788243245013
0.0573200864516059
0.056511140311613
0.0590773311514239
0.0588754696302668
0.0595102292446541
0.0562620652236572
0.0674690053569784
0.0787576130954301
0.059778549084493
0.0632848785554024
0.0632614082614889
0.0648083344091489
0.0650839431715068
0.0603009061645723
0.0634336557920206
0.0664353683663065
0.0640969388467422
0.0641847769536302
0.0694505880477928
0.0772931388770001
0.0701231925138987
0.0942372693077189
0.0837681426618423
0.0691489105243873
0.0724226068048223
0.0682081532720765
0.0678625970058875
0.0679371414051719
0.0688924358864986
0.0757558223373436
0.0816409367170355
0.086640750393872
0.0760986344509387
0.0781535462199995
0.0916235353453597
0.112368187089864
0.103198203603941
0.08597810964531
0.0796910962467164
0.0910821292470257
0.110480392011084
0.0957934207825202
0.104366566397887
0.0886392621010642
0.0847353074581485
0.0870604871824217
0.0881868433829995
0.083703569731683
0.0833539381275768
0.0926014706990076
0.0911701442606638
0.0887792536646908
0.0969684272873865
0.0938209406113985
0.100197821345122
0.116344487793724
0.12874239824197
0.101705391955854
0.101431932038199
0.103558470549515
0.109658998114708
0.134836871990448
0.13799536885261
0.141805424389549
0.132910621588767
0.139931772358572
0.130533267648464
0.118183424441584
0.11175319212838
0.116890942068959
0.127086835662254
0.127145222576736
0.1257026043805
0.128353273788398
0.132344791368073
0.141937554600617
0.126047925442646
0.132815620239069
0.142115244606542
0.147883601634114
0.159307582046863
0.142331036929238
0.141216408165879
0.154466067914802
0.179066108163254
0.199034182727557
0.179948070493318
0.16277307599565
0.173619894427025
0.158491566503313
0.165239986800573
0.166125857939787
0.174132227815268
0.179397707636954
0.184822341164574
0.195841491793339
0.189016053073767
0.193498793163662
0.189197131419851
0.188378029953668
0.204616093432241
0.199889535590681
0.223355142466288
0.221384131266464
0.196998511157354
0.209735359212604
0.247074912589266
0.209736658991316
0.221650934238169
0.224433770029873
0.217984651395417
0.214998304252295
0.222483871242041
0.223103820955075
0.223378016460558
0.237152787348196
0.240017638567323
0.242556221144205
0.24729176870962
0.25313861982006
0.25890127494994
0.256437757444152
0.252110939998041
0.264422477563972
0.26661461301437
0.25660945776995
0.275158870755083
0.260247815018329
0.303187729562534
0.290083858711596
0.317939111329737
0.287233090634925
0.273632743986977
0.284679116681796
0.289029426849777
0.286216828403351
0.290060272318156
0.290862910207003
0.32126604492307
0.29656586646285
0.300216615698299
0.31709492756467
0.315560487011801
0.318457155292455
0.323759403266062
0.314239071573143
0.325923587868187
0.337932215049313
0.339658176549053
0.347308170707948
0.382908340532262
0.369450651107616
0.389264982271459
0.377130404135916
0.373300053916404
0.370530483033344
0.365695195595279
0.376143133628208
0.396795933364206
0.388975847098154
0.413598856137683
0.374459614128022
0.401326830525958
0.399335180441743
0.38320846480448
0.407939814545978
0.426071831786754
0.434192751225502
0.430477416229459
0.428790035452339
0.409018115458212
0.439711493850309
0.455273647374785
0.438608892828678
0.458115583736611
0.466912232137039
0.459140353628542
0.433803716443882
0.477228404567481
0.45778693685701
0.463664586934291
0.463756768049948
0.494354781138367
0.47331695584902
0.498910335198765
0.480039216600712
0.508261109996606
0.497477274714243
0.506955867054814
0.495953722952941
0.530975389324961
0.517300327075787
0.532604288119461
0.54431251894667
0.540435804900441
0.534770873649979
0.532982326437264
0.540095302797296
0.570796290434522
0.556182075785763
0.56849462116952
0.554116813066401
0.571977221140735
0.586990906219153
0.598445118245369
0.586647706339472
0.577675231864435
0.554137700233168
0.598031433894655
0.597642240086971
0.642480128410674
0.605765880948628
0.61520142812637
0.603878250068743
0.637712305657527
0.628429666796088
0.623780310073795
0.648604098789197
0.665535691995121
0.644059358545966
0.666729958723939
0.651278842822674
0.70234978908355
0.665798073780364
0.665230023692139
0.699078424229617
0.687864135556323
0.687356152135262
0.698444039875387
0.680961907590328
0.711095366950161
0.697654381429459
0.739331983431881
0.742839518996501
0.736570857223139
0.739871800419334
0.758029662710932
0.747925405476025
0.750425438245331
0.695800475311049
0.759881188872476
0.746976793451578
0.770511946931884
0.737466409246742
0.763578678239231
0.73105198700916
0.811549106500694
0.807032026920616
0.821335029502012
0.791137093757167
0.825512202226569
0.784535723821064
0.797435278450221
0.783022938371696
0.829424260173452
0.788676405598067
0.794120252966165
0.811638641785104
0.882784750251622
0.826496635457191
0.885671025265736
0.859328082203834
0.863555334022501
0.84355674827745
0.905035570953427
0.872674479573101
0.865771659365487
0.87154495801199
0.901286169540868
0.847031410000624
0.881879131291935
0.906428948811082
0.982650080668461
0.888915073918336
0.96964633165083
0.943002776915772
0.949275931246979
0.959013064605442
0.909033453811226
0.942959121282893
0.957465878855591
0.916424618208174
0.993654523546342
0.915895363736611
1.03744012619825
0.94534899053051
1.0001201879014
0.902142700171049
1.00012963416003
0.987842923496164
1.04561717032854
0.949427144924878
0.962783782025072
1.00679201609035
1.03314773495117
0.92211110489518
0.995853207401419
1.02184482428307
1.02791815094435
0.945724909567652
1.06909833595162
1.07287424916005
1.08795247350375
1.03315532986911
1.0730521449285
1.02229369400146
1.10489117915946
1.05886745853629
1.06894547920225
0.994518370466635
1.04676317969374
1.00593588063324
1.10046028054617
1.07544652357137
1.12993015174523
1.00321115380278
1.10295163669226
1.0365427246206
1.08844220759629
1.13839189180578
1.07073678825258
1.13179649328232
1.1078795682743
1.1325050753127
1.15256574206125
1.16623552827838
1.18510109685241
1.11870475134535
1.10597421907316
1.05224368192417
1.1342773081952
1.13083044552077
1.17948678278047
1.1713364455959
1.20350717300128
1.07567927449347
1.15079471401197
1.12034252509009
1.22254892056272
1.12071853766288
1.1729625909058
1.17341874288336
1.20092392029234
1.14974607500586
1.26376693778106
1.13781425546049
1.18185854953441
1.27639670337957
1.19078451668457
1.16366281514472
1.39406484569193
1.1821541564085
1.20232431300668
1.35572989429351
1.28511698090861
1.2242522341141
1.26279503551018
1.10242799408461
1.2899271511795
1.18102337773902
1.18787622101456
1.13004601690671
1.27002070628271
1.10318079219531
1.28742308016253
1.27203293303443
1.19446377960439
1.17522501987105
1.31648530259855
1.21217293670915
1.32119920313278
1.15740597757483
1.30903068363177
1.22181649237989
1.2293680575318
1.26109744349597
1.25971285498236
1.21734950136405
1.40370084449751
1.2502672696062
1.25838761040616
1.22024635770615
1.21162040930488
1.19025243069783
1.25951830960128
1.22060693732072
1.36940840848218
1.30394459976458
1.32510466695629
1.25605362131613
1.20244473519246
1.1715296174201
1.25788484564984
1.28115438078247
1.30835314127146
1.29144006540197
1.23983349966756
1.23858370258376
1.33561746753436
1.23095424785576
1.28082073583974
1.23280556962364
1.35269354434972
1.25977109202852
1.3318861857693
1.29368415010779
1.29359045765063
1.19116972101192
1.33910326080557
1.29005219262063
1.21426664519687
1.12310134425396
1.28884730942236
1.25566412522765
1.29622806386734
1.2206460629659
1.306060485846
1.22353569965677
1.30536340813136
1.24824783092524
1.33054898277359
1.30055588545998
1.30356956285095
1.25153791799214
1.25215299327162
1.17091485246013
1.32901019445689
1.20789523955413
1.25702752904513
1.20680678986899
1.33412386716953
1.26503648779109
1.34107171759032
1.26161314871618
1.31587218997769
1.27042452854474
1.27186578936558
1.24280111369971
1.36970368612323
1.29178342962533
1.29855653871494
1.23320857271817
1.30625557292966
1.29149039039196
1.26970835230685
1.18912501133647
1.27972133638004
1.22751719622278
1.30550135324047
1.22888951227449
1.3024987191787
1.19176935948516
1.27415260517266
1.22392611761104
1.28690512053738
1.23725975224068
1.2370526430152
1.28742064147019
1.2875568403995
1.22060422214346
1.22232773893953
1.20821475438132
1.19263156629495
1.21188680524374
1.27200540718731
1.28953895704827
1.24891968902018
1.22892381274706
1.19901259394912
1.24344622599334
1.2417458071814
1.20313170193132
1.23637107974683
1.26758304135161
1.32814648609695
1.22816890339732
1.25777999876557
1.16809361918871
1.22698167636976
1.18475929302247
1.22488874057244
1.18721222499189
1.19480825218229
1.16179156293255
1.23602222963886
1.21357686440352
1.18504362759548
1.20157731960758
1.21646906793586
1.12469906519092
1.18303293871815
1.19425598256078
1.21358521743178
1.17517619825207
1.13708384223885
1.1182811132266
1.20694751777234
1.13431680318673
1.19686262227915
1.13596334247086
1.26042143528959
1.16384371634779
1.19438421314899
1.12058516702375
1.19911423000976
1.16283547863083
1.16334373819646
1.09922589783702
1.16685355855891
1.06479447023968
1.19810460862023
1.16070269509755
1.16428711221769
1.0868607125937
1.12853523210362
1.09830781840782
1.14358558212679
1.10748184608796
1.14097377995571
1.16413921485495
1.11599966470115
1.03673853354155
1.11442757868113
1.08280434491947
1.08746072303328
1.09536228123989
1.14368315320988
1.04326955811649
1.07921637987622
1.06569775385383
1.07703816280704
1.1215437215402
1.10224552955788
1.07751377466712
1.05812205604353
1.04363939073123
1.12663204414154
1.0779858870009
1.06595787229098
1.02616452104987
1.11314871480696
1.03784372560519
1.02926322537315
0.991100674538013
1.01856741388062
1.06799914700976
1.0989905115506
0.976515583822735
1.02692538791484
1.02380244842343
1.0317257245397
0.981917840435176
0.981547910791681
0.972946312067154
1.03020740442359
1.00044478704284
1.00419530204206
0.98105274150953
0.990456263751361
0.975734473770135
1.00027010041239
0.98433958046666
0.982474924308067
0.951212850007612
1.00234500450802
0.919936272219358
0.964899815413995
0.936096674324165
0.945274385073219
0.917364067943744
0.968351376070864
0.914485408850219
0.904970205785836
0.936407460585147
0.947498393592542
0.928306714626312
0.914691445582949
0.893574534275146
0.941439006800497
0.890303744611651
0.887542377855354
0.878026315807844
0.895705927705681
0.892272894215067
0.907680310370513
0.896126691876135
0.86523218223996
0.874652980511791
0.876572624098174
0.843177281257041
0.860993169861579
0.853770266536455
0.851304825828494
0.852116210375239
0.850401643369131
0.838688764395257
0.841247883409338
0.807111890782656
0.853153085873763
0.810870440458503
0.818402355076904
0.823092079496186
0.828240498089897
0.810096673787744
0.802603968491998
0.806215007183998
0.806496898505563
0.802362515629345
0.793590330616132
0.77673346697915
0.769807070987115
0.773647290231943
0.772477921114789
0.780014300813365
0.785516565468788
0.750088849485842
0.758181522822708
0.752522605555521
0.749976159006641
0.738061456266218
0.745028230692174
0.733073553104651
0.735436373493957
0.728907259353412
0.723513574821767
0.719624249308352
0.718150476716441
0.71524673141575
0.713469618931729
0.704526029770772
0.706733899889426
0.702871057124283
0.702690136479209
0.68658991471146
0.685941191882298
0.67520496920783
0.696855527425704
0.687796244678457
0.698825582059295
0.681667395800359
0.662959475330373
0.642837082037103
0.669133668297415
0.651929175344005
0.657854934783381
0.652363717874996
0.651119802565949
0.641996893929588
0.641699563838161
0.656723771244469
0.647396611464188
0.623260581667557
0.641685013477293
0.630346444449814
0.625598483841766
0.604327697938723
0.620218304620405
0.624251123108665
0.606111739218224
0.600965293632907
0.636829128295714
0.605663185518372
0.601141765625851
0.577711359089487
0.614325352643722
0.590635813358437
0.586286883157375
0.577756104843909
0.577057741133687
0.569309594856531
0.576029225663512
0.566874793723639
0.572450980923934
0.555704040536208
0.572127290321492
0.553589666307914
0.552249301151282
0.545634577742911
0.559794755536332
0.552170628375749
0.545509818193421
0.535924919970602
0.549312680690983
0.531095058198998
0.541462013510955
0.530358081204953
0.531779156897076
0.523951035902339
0.538423999068787
0.533479014017018
0.520561099837469
0.520570680846519
0.507900137282868
0.503039030186126
0.51199191248793
0.500621005229358
0.510644952256818
0.488094111976531
0.495656596975695
0.492763229697124
0.495986819993731
0.493808357663658
0.492099248984132
0.483211117176627
0.484086945473569
0.476073882285469
0.476933409473168
0.477451425522443
0.476272445747007
0.468121632329668
0.462015275799822
0.460933149329913
0.458833972970685
0.448306877697849
0.455585655130578
0.460087145492917
0.463214164755561
0.45078397397032
0.453392532340265
0.437299360391448
0.438399173404184
0.436281505802595
0.436008714378323
0.433193055030125
0.433178111576048
0.422507306342465
0.438018653483245
0.42722284103105
0.423544745020455
0.421603159532413
0.432569596431957
0.414690655083682
0.413295713088719
0.403373997822393
0.420597075538217
0.412317661038865
0.410958607250534
0.401163103385798
0.403687690370843
0.404588690749375
0.391008262405024
0.390728364046779
0.393677250285948
0.389346845230481
0.392648160109117
0.386975317428133
0.39360699942448
0.384929072757781
0.390176495091655
0.382829581313829
0.382570034997148
0.377440289012022
0.377449686202282
0.37673462251709
0.377890014578634
0.384693536022817
0.383479033273082
0.377269954954781
0.375171909366125
0.361040219524525
0.378814314029703
0.370175451451696
0.363834881078239
0.371749113345266
0.371712972262901
0.362741191107415
0.373827022052074
0.366826541868793
0.369684341525857
0.358109863600134
0.36596672962808
0.369298623692105
0.371629348811539
0.372291721192961
0.367045561715104
0.368282071424088
0.365337330498536
0.363735910899741
0.367555526634948
0.372273843274609
0.381630319488046
0.371885762666154
0.379642744167599
0.375264150293028
0.382300557339177
0.381428600302385
0.385459665888328
0.379082374792108
0.386301965283485
0.386422345045002
0.389633230129594
0.392313339574309
0.383917890810486
0.397551944851018
0.399166737513812
0.407389794293896
0.403786515598682
0.39996041279965
0.401693983974661
0.40411585202072
0.411314506690349
0.408224969170962
0.410861277118809
0.415874250492249
0.413311863062137
0.419105579404768
0.416998077391155
0.422286185013801
0.428531671049988
0.423024343848242
0.434770825767688
0.424166535334249
0.433051966787187
0.436465063101802
0.43339510934078
0.443832481779942
0.450288100077223
0.449478739395185
0.462402744705236
0.456344022640299
0.469600109215471
0.45895914348024
0.463583277187458
0.474090087291019
0.476838695764876
0.472705296440275
0.472097717732742
0.480974602149212
0.491453962571354
0.486940195619708
0.492069771074616
0.492788353925186
0.494682007286724
0.495915396360929
0.495221727814395
0.49927210955904
0.502780460512484
0.495913259969206
0.498404373561545
0.494793708991593
0.501102370667243
0.501831370249161
0.512467021611586
0.490982833987852
0.500808674042092
0.499849714229908
0.504134802519214
0.495004283670561
0.509607993592176
0.49288195858377
0.500856553160777
0.501246360377607
0.500777016511469
0.489544872646076
0.494049947607242
0.499110826562846
0.502181966520338
0.494534968846356
0.504730464461095
0.505702646714588
0.5019960727053
0.492733856433231
0.495947645622606
0.487532150416337
0.502451232397035
0.497621371965436
0.499014501652026
0.496011788102856
0.500761984540527
0.49294443006446
0.495140811913159
0.49048836092571
0.494589970767617
0.49837884448152
0.499293052746789
0.501905087407983
0.497925802498287
0.487590255856974
0.49641213057062
0.495252026784213
0.504580397878781
0.497455915809219
0.501727342088398
0.504884177706133
0.496962583638707
0.499141912618237
0.489696137595112
0.491029325405722
0.495058270808403
0.485372040365437
0.49312487914162
0.489398371941029
0.492662944414214
0.481891391648386
0.487127150294059
0.487517295287602
0.481988029288895
0.483712493928118
0.479674137808933
0.468908183544087
0.474388751031878
0.471313243089682
0.454513449268264
0.456369733704413
0.462013376850577
0.458972360175976
0.455970706470205
0.451059145963776
0.444296146238711
0.445640223721959
0.447117836978665
0.433464243348625
0.437354399258229
0.432597673310218
0.423375732137263
0.424645521527908
0.422197063433168
0.416636932697749
0.41055518090485
0.412419098061037
0.412281002797999
0.401633846446921
0.396913829946897
0.394535749266849
0.396274673856858
0.384301602361943
0.390791795564177
0.383821527117061
0.380512695765118
0.376913355572646
0.382074561303847
0.371171939376235
0.371490398011425
0.368479179991463
0.363404363908206
0.366910737392763
0.3595820899072
0.357589176266349
0.358546556950682
0.347909947348805
0.354937818985546
0.347218776671568
0.345287290846181
0.341184476804248
0.350060592785028
0.346992824539483
0.341209036684574
0.332630762876803
0.345275397463787
0.336194254099658
0.329166396317288
0.332382921543952
0.332022612468606
0.324389818456678
0.326311777318286
0.321834257711756
0.322902948435303
0.324674464052381
0.319520449591358
0.315331599556518
0.313139500353579
0.311974322616165
0.308463347975878
0.312006905055173
0.308540450118474
0.307670168649777
0.309924859029708
0.306384587045738
0.301094489841589
0.303650591550174
0.302371438536289
0.297947391822598
0.300199464332235
0.301054020992839
0.296282141864243
0.295966245360037
0.296624443589972
0.293407054893976
0.291919127399934
0.291222270555319
0.286108168672362
0.286556689984301
0.284222036224856
0.283737259909469
0.28223911890215
0.281602937015057
0.287492763902984
0.283508603998734
0.280419877175892
0.279040352320612
0.276765495105452
0.279431113428392
0.275265961835991
0.274041090733464
0.271931364840851
0.273710501953574
0.273908654955578
0.274955704611007
0.270300031032712
0.266360479405849
0.269725731455766
0.267587228014969
0.268206939472995
0.267378415234422
0.2676918623937
0.262161988434268
0.261645028562049
0.260512569433564
0.26310437756579
0.258716949759507
0.258003896410346
0.259730628453564
0.256320586446046
0.252447218608386
0.25914242967767
0.256212114899063
0.256651488895729
0.257487256734538
0.253282403212832
0.251775012274646
0.255695479596852
0.253465201669466
0.252169766890321
0.250672170002218
0.251379249945286
0.254030530560229
0.250173435635931
0.244915712517334
0.248908193254028
0.250178455723071
0.246308858146422
0.246801130105644
0.246899809829395
0.245158359144953
0.245880561273714
0.247678299186175
0.247040284639543
0.240850728474367
0.239582452140407
0.241920303701995
0.239532591204853
0.243103821753212
0.239638322705451
0.240230011431148
0.242525283128415
0.241527564032855
0.241363641923713
0.239757170533573
0.237670468833381
0.241069231590961
0.239616704972414
0.241206935374819
0.234348424573914
0.234060896220186
0.238809074833859
0.236042334582089
0.236520649602541
0.238665203642905
0.234643009422047
0.236556604224645
0.232132939529198
0.235113577653204
0.235403222997008
0.236328607294745
0.232170092056617
0.229403216163095
0.228196570572862
0.230981384251151
0.232111700265947
0.228095161529555
0.225880965193482
0.229334107579804
0.226254490131788
0.225444363033758
0.229004764578541
0.229249446544856
0.222548621604256
0.223643281185389
0.226814828992624
0.226767055246358
0.225407828155542
0.221911568972766
0.226137909328272
0.218954846885517
0.213305757498587
0.223680376839225
0.220569025688302
0.218453932841714
0.214980593552681
0.218006085822732
0.21604250058298
0.215060024202607
0.215585363842606
0.213581663097244
0.215183704623528
0.212968598533442
0.212329149395373
0.215373096407826
0.210492719299423
0.208788823471831
0.208334766288062
0.212018700158032
0.207767855800697
0.204240885111293
0.205531170963326
0.207506668224075
0.203225233052817
0.206631648595511
0.204427468644643
0.204894203388869
0.203419940272458
0.200564874981444
0.200575875917935
0.201999500071388
0.202713170562521
0.203526168704601
0.199394855822929
0.200374054372316
0.201987186237634
0.199554467685005
0.195214982828137
0.193151007091206
0.196223325034715
0.196048195254433
0.194280690110576
0.193324595889393
0.191985916505109
0.187750769055863
0.188816303215804
0.191445239337479
0.191775452490815
0.189101542659994
0.183815453407072
0.185915193077477
0.186252603723138
0.18823351140213
0.184719256260918
0.181325882524259
0.180752105996864
0.180571650664284
0.178724547780505
0.17945883793581
0.177140589569346
0.177639373335349
0.178212547991403
0.176019648673316
0.175672600723148
0.17344646967353
0.174852184353459
0.174649619923549
0.169416672563381
0.173693888751912
0.169456864961148
0.16792058734435
0.165732761743986
0.170154606564409
0.167541676201838
0.165652626534001
0.16698820213178
0.163713211868114
0.163104539289369
0.163839710363004
0.161015175308223
0.165224046695256
0.164067110958586
0.162725024507642
0.163078953966249
0.16065555289728
0.159162597091149
0.159736995905794
0.155323246029551
0.158249869776222
0.158796996450695
0.158292488818761
0.156208113765498
0.156189236545641
0.15502715491717
0.153090450162311
0.149774482238405
0.155001211593014
0.154661391203557
0.155077097073365
0.151468985508284
0.152724774912531
0.151178556089438
0.151568128805111
0.148381983325928
0.150966409203196
0.148375748836469
0.149936739336135
0.149630481263568
0.149598611871034
0.144669906338733
0.147430036199076
0.145519666601039
0.145767687904785
0.143159624255616
0.143995750027078
0.143836582717013
0.142460883320824
0.139181675365814
0.143401312952847
0.140726906965164
0.139688229401194
0.140377711906777
0.139711967296642
0.139205997275958
0.141108643468063
0.141142689042367
0.138022650041562
0.138812816507335
0.137685584267047
0.135488574381823
0.139382173973299
0.138757846207829
0.138846244179027
0.133503829605982
0.135748075699958
0.13214199624992
0.135220828393573
0.136346377142134
0.135732620469892
0.134307222978284
0.134570554936443
0.134192556473067
0.136098884056715
0.132129567475431
0.13195718006495
0.132755351926337
0.133233746100885
0.130548429142337
0.130394744012979
0.133937932356764
0.136516892716322
0.128030552004365
0.133109779360117
0.130874317117973
0.129234322429752
0.127770173752229
0.131301353749609
0.130069020860063
0.129178079835673
0.125099889674521
0.129025779255903
0.128456763785574
0.128277353927596
0.128450943325175
0.12824074102651
0.128472714649155
0.12985887448659
0.125441151821967
0.126514619318806
0.125553647634449
0.123651448976201
0.123920986464664
0.125029087902101
0.123690119928811
0.124215646077517
0.121553446567578
0.126134602514774
0.125217569393084
0.122068494122397
0.122896552470614
0.123237213449395
0.123082920805559
0.122722448818986
0.120935340812916
0.127655706787331
0.121107948595613
0.123459848825111
0.121895880405918
0.121989023673405
0.121285708972164
0.119233904366657
0.117725174641085
0.119509635788381
0.121178850752464
0.118540143005349
0.116961049366529
0.119483632604053
0.115976777419001
0.118366337321858
0.115692613072611
0.117087439667044
0.116989957540174
0.119914307429961
0.117159786472729
0.117094645531646
0.118530590018188
0.1171618198653
0.114315678917572
0.115567837246943
0.114405895421644
0.117329628616187
0.114926791729418
0.113673672777655
0.115565906901497
0.118114548894832
0.116083606441796
0.112457398698116
0.111822940187966
0.115701208243782
0.11102301926146
0.113905681451785
0.109978746990883
0.113987241596656
0.11113993174089
0.111495199054764
0.109304134869066
0.108692877614881
0.110208133982148
0.111096412424757
0.109032592664738
0.112222357275161
0.111102481832939
0.109208489417514
0.106954866343117
0.107702944998294
0.108643856473081
0.107429972511272
0.103262737260609
0.105981522313474
0.104833497192832
0.107131874454814
0.105719758800117
0.106074271511755
0.102369104557408
0.104567567795172
0.104413725141089
0.10449871291568
0.101314743462444
0.101287568040384
0.101131029225819
0.103088896967474
0.0986070565655058
0.102303767272705
0.101077135899477
0.103304698671527
0.0977307249327249
0.0988572466570008
0.0982886443475063
0.0998128335972788
0.0983852483061772
0.0987108433953252
0.0960038163089428
0.0979775698710371
0.099274501583005
0.0983413467413614
0.0945128083375753
0.0991062497093987
0.0955427085556008
0.0951243254911265
0.0901391936450995
0.0945847641115342
0.0924156734267957
0.0944612202925724
0.0912345927804319
0.0933250198617391
0.0906076778636266
0.0932373436860126
0.0921092807028028
0.0929412671618224
0.0901804934269866
0.0920125892632089
0.0875403331238026
0.0908615803812134
0.0877928647206928
0.0893667809275987
0.0903433939076159
0.0905598026092489
0.086530660951192
0.0904286950420608
0.0882861614893596
0.091246282684057
0.0886388325027427
0.090963579496831
0.086790404084914
0.0877438733083579
0.0837451117686329
0.0893542478110973
0.0841316872777591
0.084573146542337
0.0840802043705182
0.0863996518862118
0.0812852289200658
0.0838295133556682
0.0822157139745164
0.0837250392139582
0.0839034284210786
0.0832854692996636
0.0815509135661981
0.084092548905801
0.081151538937871
0.0819739483344228
0.0800716626098694
0.0844311502734695
0.0792005021965921
0.0803087340584786
0.0786632646789197
0.0812786825589758
0.0800553922140716
0.0802288729792685
0.076017974907821
0.0785035445195475
0.0774491677691702
0.0813419492678687
0.0797330718426019
0.0791649611664694
0.0771865792184801
0.0806177057099722
0.0772804831984502
0.0803042116418353
0.0779004751823873
0.0787059698175683
0.0751795588773508
0.0764190399421749
0.076279553637817
0.0799372999967957
0.074504506518887
0.0769102618692353
0.0771558048193049
0.0777797698463257
0.0749438364144558
0.0792247761291648
0.0777451494795634
0.0782630864840534
0.0749153223042327
0.0773257366130045
0.0750142477054652
0.0780138129040904
0.0768588213435826
0.0774872686327312
0.0772300262031236
0.0780889110527068
0.0743257987494977
0.0779949693050322
0.0731590909610654
0.0708405584372597
0.0668242304846615
0.0735145900030896
0.069294036420674
0.0713040360205761
0.0663626374117622
0.0675558367326596
0.0639401845001966
0.067708007204999
0.0669510068180052
0.0657362553109472
0.0619838488424311
0.0670143924975347
0.0628646984715942
0.0644954153830818
0.0618930015473192
0.0685543722277062
0.0610234704782107
0.0692188659543393
0.0668144752980207
0.0703415089283335
0.0670636420564763
0.0717792088330844
0.0695911436799831
0.0730707415139559
0.0687905262503253
0.0666493438619737
0.0664967366730674
0.0643325461260756
0.0657046351389142
0.0609670359255972
0.0631277321210862
0.0616631783068809
0.0659766911229982
0.06142700852744
0.0624818885822707
0.0594062328747547
0.0694212641244466
0.0595563268954468
0.0734260624244292
0.0568616935173815
0.0730837851290086
0.054571440243177
0.0747754303689996
0.0515434804467265
0.0823443268839333
0.051463940270331
0.086127630379084
0.047118596880026
0.0856036358079029
0.0448551867352955
0.089924656127668
0.0442492270124222
0.0846329018343981
0.0471504086951669
0.08692511101045
0.0563513086263596
0.0797058846739431
0.0609167861080657
0.0751451251026223
0.0663496798049462
0.067400737054365
0.071471253213725
0.0631433353041572
0.0769656689993471
0.0636583834732595
0.075338557205137
0.0609768227340745
0.0710968377241908
0.0673092074181981
0.0706390050368954
0.0645570974144851
0.0673061679826052
0.0697284144835709
0.0701059326191234
0.0696379399358572
0.0677842413423792
0.0667546882219929
0.0695662173259935
0.0667601526366287
0.0687168823387069
0.0673589313391412
0.0680511731237573
0.0651904655420571
0.0672313401362355
0.0646552250464511
0.0672026277019586
0.0658924578699523
0.0661804562698703
0.0645725381548613
0.0677471626529578
0.0638688936142977
0.0673061436727778
0.0655937627979835
0.0663135666145629
0.064825151831235
0.0648298475317022
0.0643813091919463
0.067799875536747
0.0657833841981872
0.0680853518542925
0.0668961226398495
0.0681342789309171
0.063878003932132
0.0668847666237582
0.064375159737552
0.0671217148158135
0.0647038050387902
0.0688546674032032
0.0666747959091644
0.0677595646271277
0.067146944016653
0.0697431273474017
0.0637197503757378
0.0680636276507927
0.0655872597744122
0.0667474803544953
0.0653730820773493
0.0684579615452453
0.0661493533309143
0.0695896929930364
0.066649678001255
0.0694177677627866
0.0654384490634198
0.0667617724112685
0.0650899303378823
0.0680811885062821
0.0660437931320833
0.0678614307173193
0.0647089089923031
0.0686907272194672
0.0669425532120799
0.0695599078000728
0.0642696033860178
0.067662510155894
0.0662780110809582
0.0681096325063186
0.0649206083245897
0.0686253647748393
0.0666348500972683
0.0699728494235353
0.0671316971182246
0.0679755520661701
0.0661157405174934
0.0680694290779855
0.0675087157768532
0.0688027732124135
0.0643729785760752
0.069019935126243
0.0660787795098519
0.0669581482374428
0.0652395491871424
0.0674188174178756
0.0672055052607274
0.0677169721190068
0.0653478464585414
0.069634464778942
0.065541086564793
0.0689464039587584
0.0660174014373052
0.0697387290304815
0.0677075221599681
0.0711045389047942
0.0672252057793403
0.0676877649836291
0.0662074155536379
0.0705690766578647
0.0700438023234872
0.0697473447554419
0.0673984273079366
0.0721758994511742
0.0683583093100052
0.0704153127862852
0.0676700706067026
0.0705893061797666
0.0669816797626167
0.0698878368358673
0.0688554996138005
0.0710577799858265
0.0689399255895295
0.0698019020468331
0.0682903008590048
0.0729253104649855
0.0705651543310046
0.0713963542443083
0.0699407483024206
0.0712767894572246
0.0697687631221359
0.0706069721043116
0.0703788434632625
0.0691283348387518
0.0671916633039593
0.0724012346477852
0.0701023395665766
0.071309497944406
0.0690271834738411
0.0738427336406248
0.0679521204498185
0.0729510792617547
0.0699827518946386
0.0697202700003599
0.0700883114888471
0.0726113681655093
0.0702272853786996
0.0743652927845463
0.0687410912943376
0.0727961605523983
0.0718520880147986
0.0734773483660304
0.0709673448363982
0.0716410708002369
0.0699936023796931
0.0725752266011101
0.0700041479668973
0.0719871897766703
0.0715173828220628
0.0734717424643904
0.0707065957657349
0.0747963078432873
0.0713653221880638
0.0750006510994751
0.0713832074849469
0.071946460611178
0.0736256132518469
0.0732489770648362
0.070816760988255
0.0737949829264415
0.071004326702888
0.0741983322084058
0.074323272483148
0.0757156140082173
0.0730845928580264
0.0742482114952455
0.071050797348189
0.0757741486673358
0.0724409644057696
0.0778587049686807
0.0703829972721384
0.0745656770160404
0.0716452293145422
0.0743827041791457
0.0721800396229649
0.0740799730531284
0.072025341276138
0.0751477598250813
0.0722159556207632
0.0734130566025394
0.0708691656913464
0.0738577095387134
0.0728984285581605
0.0735518556123573
0.0708141573617367
0.0731258894436348
0.0704924417901131
0.0713892365284505
0.0685182458577913
0.0694448018104014
0.071902200250104
0.0721292493803562
0.0692774827716902
0.0724640893020634
0.0684007421631279
0.0732025000424765
0.0704169465861471
0.0739043680275869
0.0696385496030969
0.0734106963202402
0.0684275327491539
0.0712568669679296
0.0682592648780058
0.0723459225523188
0.0689358719890735
0.071812031818721
0.0693123854992108
0.0713376543830813
0.0693513264352468
0.071363680285544
0.0706381297804338
0.069947581595616
0.0664637033550809
0.0714978024798718
0.0687313883170435
0.0703743539346995
0.0677364675885244
0.0701378713084358
0.066042681046612
0.0701698749380297
0.0684260226384073
0.0699175904059741
0.0676868613118842
0.0708377197950351
0.0665795893459725
0.0698801094011363
0.0668986758312424
0.0701066185293772
0.0650342742394642
0.068537829708416
0.066938045392377
0.0698801976734216
0.06742415073515
0.0690439183289902
0.0663028712034201
0.0689393795733055
0.0672803013158287
0.0709116534366833
0.0676142494620008
0.0694901764584095
0.0666571131215231
0.0682287806063816
0.0650280419722034
0.0686628533692034
0.0649253303002745
0.0679547327341712
0.0662657435874947
0.0703394938357149
0.066218861406534
0.069381481468146
0.0651722185711358
0.0697554378226075
0.0662684258310451
0.067633126966319
0.065697202436431
0.067103563931223
0.0646975821455085
0.0665772499542875
0.0643211396021791
0.0668449628330895
0.0652273525103098
0.0694486441143988
0.06724398870823
0.0687736840594685
0.0642080764932527
0.0683672812148071
0.0659450062093646
0.0658861201940611
0.0647285292877993
0.0661021927036021
0.0645956471447007
0.0677344091331492
0.0661307359924047
0.0662274726580274
0.0646076519770518
0.0687820826534402
0.0639233581890805
0.0652669629868999
0.062055791556333
0.0658491174362347
0.0629726227467242
0.065537542787937
0.0619077199436621
0.0656298354795552
0.0641021872090574
0.0675808400708267
0.0646610481034064
0.0661667058263542
0.0625114900634875
0.0643052669337675
0.0618063622501281
0.0639079887576216
0.0621041784024686
0.0652602800626625
0.0627012007008556
0.0649647090915419
0.059928768547529
0.064118181477122
0.0598788105450684
0.0641037158216035
0.0601726655394778
0.0647914975499513
0.0611117397102523
0.0640003274141261
0.059444346033014
0.0623274003645897
0.0587951768253468
0.0610330954643209
0.0582933600046841
0.0648159738421915
0.0577531615811821
0.0633002051984497
0.0644352966367836
0.0623766752856053
0.0577172727954223
0.0602801155519192
0.058232640243328
0.0623588054565442
0.0582727144100228
0.0573921433039111
0.0546963138783346
0.0597627006894972
0.0565722659634524
0.0585820208258282
0.05408806362605
0.0582106654440141
0.0566657885078561
0.0593541242145872
0.0532019907138691
0.0580292149689622
0.0541117375030604
0.0583831443947853
0.0569464359338191
0.0607449112778228
0.0544170973593253
0.0569187073356402
0.0536285245136263
0.0563907282031711
0.0606823046773252
0.063336406351811
0.0561481520517567
0.0580494395148048
0.0572122807033572
0.0581282517239559
0.0534938357925562
0.0556526780582179
0.0528214626621059
0.0559404611905837
0.0526530278183882
0.0580280540169693
0.0527384714707073
0.0567128532835289
0.0536579852094067
0.0535140517239421
0.0522708422701896
0.0573003002300263
0.0540717077388298
0.0550259421758987
0.052240272532986
0.0569168333223996
0.0535685390371987
0.0551184413480337
0.0530732038355844
0.0549715745128884
0.0539670747055093
0.061787324254956
0.0569851189747495
0.0563331346410858
0.0527235356786678
0.0548061003892521
0.0502441087106077
0.0540154629880799
0.0527906939708197
0.053555750496673
0.0502418934208358
0.0546010868540689
0.0518598670643557
0.0548433866557065
0.0534124245815014
0.0544451767521589
0.0501909661951747
0.0543751202060155
0.0507565679087034
0.0542964783506081
0.0489768603949776
0.0532362555547935
0.0493193737678653
0.0549500666224779
0.0518583697576296
0.0549580905418602
0.048810560047533
0.0603641016842
0.0617258194416904
0.055771084047271
0.04880697211156
0.0524624550096752
0.0503405993377012
0.0529240060504866
0.0506151179983299
0.0516796984829644
0.047996318380013
0.0513987719185013
0.0505815105177643
0.0519429226184865
0.0477042331728581
0.0501110570981788
0.047593871786307
0.053896507457438
0.0489602919788223
0.0492035538293187
0.0489684329304531
0.0513221584289253
0.0572719229156394
0.060974226369994
0.0501776730718
0.0523588367484828
0.0479986529577728
0.0546261948702171
0.0604961958394523
0.0557736984839958
0.0486501766108872
0.0527439995680806
0.0495095961683571
0.0522132566490858
0.0475954204623349
0.0526589119365532
0.0522130059696751
0.0555838439497657
0.0494450361896516
0.0553198925036393
0.0493292765617504
0.0473938308471917
0.0463365311507588
0.0526922346035585
0.0466722021565579
0.0508356228668815
0.0483164905101245
0.0516603171670918
0.0455569738387577
0.0522834690319082
0.0488381685755036
0.0515867138809996
0.0499625601380841
0.055124122893362
0.0484325316610709
0.0503940739767977
0.0514982652588474
0.0504227886402614
0.0563614894283033
0.0612152408561222
0.0488965214259363
0.0532226921869727
0.0478498084735501
0.0506072450075174
0.0492320936129094
0.0490349704275602
0.0479188992326619
0.0522284869196477
0.0452260250349501
0.0517675713930522
0.0476309726314379
0.0534671043550876
0.0475098665699118
0.0511180899704855
0.0481571539970966
0.0508835126954385
0.0483749192508885
0.0512016813519464
0.046712149538425
0.0554260921889455
0.0609187954073101
0.0690480032704465
0.0588922361626129
0.059565797858159
0.0558380581921702
0.0511670249559701
0.0491694366127831
0.0509839362149455
0.0469765821600168
0.0523817546924884
0.0492557550115742
0.0519249368576366
0.049469784585997
0.0505918764020716
0.0475749969255829
0.0525013748333956
0.0449990540351245
0.0501818123425935
0.0490546183511066
0.053080732370285
0.0476345373765514
0.05195744019209
0.0474528481876412
0.0586149417338327
0.0538969531891294
0.0543843001532933
0.0540197529744558
0.0828166765780872
0.061088756659216
0.056949366740299
0.0527777931107432
0.0524829033840173
0.0491569660193179
0.0511887033618099
0.0498203981464585
0.0572448298301848
0.0512571757416777
0.0511333828440993
0.0490536127320061
0.054325482392178
0.0489135564448893
0.0544128496931402
0.0587197171159346
0.0749643124620614
0.0577807929303688
0.0551198578612037
0.0510907494996923
0.0681821469773107
0.0653351137439482
0.0564690916909904
0.0541185033499605
0.0546340626301123
0.0496637750183364
0.0535625092790103
0.0487561924355863
0.0535223794614352
0.0556048165486417
0.0566901790380635
0.05186893781735
0.0563813020473619
0.0518975579030487
0.060020015228349
0.0568782293680292
0.0673379728426154
0.0578254265954819
0.0552167502867763
0.0570708767511678
0.0579153560693505
0.0540483288226629
0.0589471270991905
0.0523420391649273
0.0578049563525839
0.0633624038779927
0.0677103909121591
0.0591301617400102
0.0730831251204833
0.0602608613051707
0.0568313507307326
0.0617791779717648
0.0681972671969531
0.0622353806717646
0.0570946954482708
0.0744763413683069
0.0784505205132571
0.0721216733580124
0.0732943164694941
0.05919505238843
0.0602591436236183
0.0550670816916284
0.0608098686284154
0.061741523924534
0.0766366956874211
0.056352932907412
0.0641671167517378
0.0546927271171115
0.07714975304688
0.0686089250731534
0.0657498657527299
0.0625450212457361
0.0606881002113482
0.0629832628001715
0.0770214584915807
0.0593495002587045
0.0725307674776108
0.0820087867212331
0.0928228034078862
0.0761997869640528
0.0672037411383559
0.06487258682659
0.096273140528613
0.065309261284381
0.0692480553485119
0.0613618740150858
0.068629310685662
0.0616498772897168
0.0782727960365156
0.0855357787557689
0.0733382854843516
0.0669135629248965
0.0731734940424749
0.0688134067325954
0.0883715598743363
0.0722480354539676
0.0730334377067545
0.0666655471468051
0.0760706142136714
0.0739094368854205
0.112969443275057
0.0797036907137142
0.0961295714101951
0.0914848486218804
0.0912074283224742
0.0835194436936052
0.0849266391660863
0.0810397836641263
0.0962718551939939
0.0949902784938731
0.0839255662167037
0.0803652498865509
0.100260425724736
0.0961389240376323
0.0846324340886909
0.0890217286660817
0.0857635503652599
0.0936958679258073
0.127780796289919
0.121036012331772
0.110462967021305
0.0928036243490109
0.101522742170743
0.11534760160405
0.099173566254271
0.0935766596851402
0.0975459821600837
0.0944225484578455
0.100464674116108
0.0978230707539714
0.111939532203931
0.101750339832135
0.104370393455633
0.100753378124049
0.109032556415116
0.127742468179212
0.159223162209213
0.134725551963631
0.127538008432465
0.150380847286329
0.13429939984913
0.120989829802754
0.117485926882344
0.11739035705982
0.13314512257358
0.118149098084876
0.124445984359964
0.122532506323899
0.148745500626379
0.137223759744036
0.139975369199842
0.143749015004447
0.132794092001341
0.148752383333729
0.159913552781709
0.247612967212914
0.162949950636559
0.160980847158249
0.169681547825094
0.171630955721834
0.220844745356074
0.169827010026278
0.17600319578081
0.177902019224935
0.184059535938478
0.191306155127412
0.20340722925319
0.205835838233164
0.220901547998122
0.215315657525867
0.221120840230903
0.24464690244054
0.296186378895581
0.266490745252878
0.259346264362026
0.251955475866939
0.27478553543565
0.273848683615543
0.271276036047035
0.27674709944735
0.286298742537588
0.291217430342551
0.331929096685672
0.300418776359107
0.319884113860271
0.319051126732193
0.357665886326127
0.326424575955517
0.384330956629585
0.359252820093604
0.360871557604457
0.352841220436174
0.36771357394331
0.363891508158771
0.376996615834716
0.405219337810261
0.403602615719547
0.385975810592135
0.39750288993435
0.400309446606483
0.40898191870408
0.406379782702558
0.427057116583374
0.422828077064775
0.468784775932064
0.436288443808338
0.562883508659014
0.453834080492996
0.442582928258704
0.434148547304003
0.442303326167027
0.466574770604235
0.459469778695431
0.465181086511955
0.464261492245667
0.434083987495295
0.444594952972578
0.442675606098786
0.447450925696806
0.440358417455305
0.454049151793127
0.433143924789073
0.478917577955402
0.448952184254903
0.47679904511455
0.483099371205136
0.444151578605512
0.44479815960004
0.440676448171621
0.42730153562152
0.429465578120714
0.437448892901658
0.443006287593398
0.437731212734776
0.425423683311492
0.426596440188524
0.425996209418606
0.451017557809726
0.451465428079904
0.409741588231934
0.415624060892508
0.406239790925596
0.403871241416029
0.393098289541078
0.405720509749878
0.427296800667767
0.390801853216988
0.3930683471195
0.38535088600435
0.381516164438846
0.379178079066172
0.377326246175791
0.379672527967271
0.372421876446836
0.370448928967767
0.372431571123678
0.363077380691419
0.364302093990154
0.361293458106754
0.366750815289647
0.365084890637096
0.356928048765123
0.360055481587966
0.353031551212571
0.358673707036859
0.34926124286108
0.359438540550896
0.357654283069682
0.363527737826276
0.355187709562409
0.357312717258181
0.352115753283745
0.352439911919193
0.346835052348321
0.357427452514625
0.341323655514359
0.351200400462902
0.339163475520684
0.349849459346524
0.34197617071512
0.349444042869637
0.339109319286693
0.344410905457441
0.338460139443811
0.34140721510718
0.33144323082676
0.345106179545581
0.342970451295995
0.388102117733179
0.349848174410808
0.333305745363904
0.33401111124622
0.328656291393159
0.328456755976849
0.321764113875979
0.364111538434002
0.339441790388959
0.322288368879173
0.318369470552152
0.31131630997251
0.322673402103669
0.319631010768269
0.304029016809374
0.310782148006547
0.30632307653549
0.343022428943117
0.377981888929419
0.355443528602972
0.369577168872158
0.304908859423882
0.305474016601411
0.29838673498416
0.328517743785378
0.282549380764643
0.297579023520097
0.284738621363811
0.336355538541357
0.297529678357702
0.280218657211444
0.283972742938126
0.279619577863026
0.291592705073088
0.30432602633939
0.294093328030367
0.295821788745318
0.306116490609501
0.290317898445533
0.326487996303936
0.305513262211194
0.285331173816038
0.260259181322472
0.265208101792375
0.264303663423758
0.255816144518625
0.31532583999758
0.257113597820115
0.272987428838916
0.243739785430777
0.243981558241597
0.249275505667079
0.259725003979435
0.263617407137805
0.249938097360686
0.278862476731999
0.232863827320443
0.253234153632075
0.259580459636919
0.260793342511635
0.279101772813995
0.243699949280437
0.235437127597783
0.258283579902186
0.269359657027101
0.23103246974381
0.243364905749784
0.21812385316471
0.22098435853652
0.235600517514401
0.219171153193423
0.23409055382828
0.238188376239641
0.237608352407863
0.280025168323607
0.266661006156985
0.258875049573431
0.215964974190364
0.207630286696974
0.212912568764549
0.207775771961949
0.213848168126832
0.206553485099519
0.228171817899581
0.22734891709019
0.20344507315742
0.265718741806177
0.21705138923201
0.213867970633696
0.214520097155394
0.215880994221749
0.222846180741859
0.25437474706357
0.255012805404404
0.250944437700147
0.243402590152278
0.264720389777675
0.229945427757354
0.249650773879332
0.23661581480548
0.249211326216561
0.244910135977787
0.264639878264632
0.260272037195796
0.268195960490907
0.263936997319898
0.287046285682701
0.289102852486187
0.323541499269802
0.283029573467838
0.343391122379843
0.318028430205735
0.365295723603751
0.327842329170158
0.320224072518698
0.330991637400584
0.334668955043587
0.334503418511922
0.350883502546906
0.349312000763607
0.387675622014804
0.34823901169628
0.370100958472952
0.356711691815824
0.377439833550841
0.372919857220014
0.414646703361158
0.399055336611296
0.424933759403697
0.434908579313049
0.407470296097256
0.405007731673299
0.388711835305535
0.406896963287335
0.40749662655694
0.394726949946726
0.406996441198613
0.393739586626963
0.426940086899444
0.408529392752496
0.418244235663354
0.406633428355637
0.412677488105247
0.408254697758314
0.418885331606885
0.421729343517706
0.428981524892132
0.419560358315999
0.442158170028022
0.41591367399401
0.505458142137077
0.458123514307185
0.448123427822746
0.447918619580621
0.447111766962668
0.456444429597043
0.454071092894085
0.465793597031129
0.477680842490472
0.463788572909891
0.469181661212971
0.465712247190013
0.478377352320719
0.477811522424463
0.510528925252972
0.477766492179874
0.493486397286123
0.490223859603604
0.495790762209194
0.536095455391891
0.502158575011602
0.529978840900605
0.497545794404789
0.506466022299296
0.495315901779056
0.498620343893618
0.504998386723987
0.514554727467189
0.505503400805067
0.503830797480353
0.502276240376898
0.502902385571496
0.504712547402238
0.507908195638674
0.524633274125174
0.506312071697252
0.502012656588907
0.503953833248868
0.508506840566755
0.500271778387612
0.526932329346061
0.519576856260455
0.501560332076173
0.518378554185662
0.51034697752517
0.510033161636476
0.515278856876699
0.495456848205637
0.500653874510639
0.500710223821119
0.498483403062044
0.504341378859497
0.504224523469735
0.537892230281521
0.507783476340306
0.515293348167838
0.51191206643175
0.515769328266416
0.513066530104928
0.517841354415063
0.51908749769839
0.522873285672196
0.52096408267483
0.526531119716741
0.529132610862834
0.526594457742965
0.542092386963325
0.540082312780203
0.537855328734478
0.52603432322361
0.525070347629929
0.521931264926605
0.518509076548472
0.521243894369341
0.510733174788294
0.507342148419176
0.502892663300966
0.505389942892485
0.492446504445647
0.52017144700104
0.495519447102778
0.495671717483672
0.487069562032761
0.471319563852603
0.475694171305006
0.467556424317044
0.469407060036034
0.463130289931997
0.469583690634782
0.456081795321352
0.458817849935943
0.450617117370924
0.452656934664741
0.450274190298945
0.453484129081137
0.444893062089985
0.450406832016281
0.448158702014336
0.44781278186864
0.44819614047444
0.446135089508806
0.442420284939408
0.442502228361608
0.4511334957702
0.461455022089887
0.457147013248243
0.453928616215876
0.441007711319914
0.450147441475168
0.437078267358812
0.448460429339931
0.437799673982857
0.447112769465237
0.438994104928738
0.442321857605006
0.435365606040523
0.442179134715637
0.434501337162708
0.442174699536508
0.438782795372265
0.440909818115295
0.438006851999564
0.4404573034721
0.434552036202933
0.439428386245174
0.436569362882307
0.442199430444999
0.4393269979918
0.435098921019594
0.437028452553756
0.435799958628222
0.441667924716385
0.439081760710017
0.439003226894415
0.435933054505173
0.430426064460817
0.438435873245456
0.434212241895695
0.432106281947769
0.432701855325368
0.432999533867444
0.428856809571465
0.424254963226856
0.426975192696251
0.424644015516508
0.420688617629255
0.418736575537008
0.415313778622784
0.414894272474564
0.407135433776307
0.41103302756637
0.401881390037842
0.397095804935475
0.397097858735317
0.392853312152888
0.389407734853625
0.389350184250895
0.383417004627305
0.379975112210188
0.380290279757416
0.383766791586673
0.379054339803608
0.380914782280777
0.374697160280169
0.375205160071522
0.375223660856121
0.376847952103618
0.374690846770801
0.375719187711372
0.375246553046535
0.377252370455541
0.373287280961204
0.377020873427163
0.377763146807162
0.381898674035421
0.383613021165675
0.379281017262261
0.379826735144535
0.381943003741276
0.387420828700834
0.386917287727805
0.391210754490755
0.39264143998908
0.391736157180309
0.393187914858603
0.39225956999448
0.395365395386569
0.396409765890495
0.399179905738323
0.397024915967737
0.3989163575095
0.399330401239506
0.403048125865154
0.40016286785583
0.400433773443863
0.398741382920906
0.400227066748366
0.395871158558786
0.397962602278323
0.393946355940911
0.396521637237199
0.391227066040089
0.393665909661617
0.390707725205594
0.388519268680724
0.385495650425982
0.386816939713494
0.388246369809374
0.38699980431806
0.383423446430406
0.385375329913497
0.380124077592556
0.379671807734702
0.37817469113037
0.378668515408706
0.377861303445982
0.375111182228432
0.373752834440136
0.37391614163312
0.3715920477861
0.369307546290806
0.368998878400378
0.366406495277168
0.36772658294958
0.365681669270758
0.36351859225584
0.366971286312637
0.362193943480381
0.364078754358152
0.36151232051219
0.360973301702786
0.358249681240544
0.357613434035845
0.355087398123129
0.354366999958701
0.350682353246179
0.349666520442413
0.344469368478501
0.342439873317597
0.342185253943923
0.339399704199408
0.336567503429391
0.334311149634411
0.334234225774492
0.327660191556625
0.328930991213948
0.326991010126042
0.326032279550543
0.326530308761178
0.325723022615167
0.326576243753735
0.321876163355323
0.323024175518866
0.32168471316916
0.322324703068812
0.319659492155261
0.321475403895275
0.317816375254889
0.315847369718068
0.31383556927116
0.310504935999222
0.305479039057557
0.301490833325149
0.300198186367255
0.295003295768729
0.291247439899578
0.29233130190151
0.286759750814105
0.287845664076341
0.287519645322572
0.287812545492744
0.291401714242092
0.295385989304703
0.299329062352665
0.30634642555859
0.314347669411326
0.322381467621259
0.332264045534904
0.344926032562477
0.356210645520267
0.371109128815686
0.384509422112491
0.402822727203537
0.417348592617962
0.430595004177
0.444567311883546
0.460061824611555
0.473205972881644
0.489472078364563
0.504023480155695
0.52082149121323
0.532657177487272
0.547387990209789
0.56232734730862
0.573048758095832
0.583541935701633
0.595867415961964
0.605688141176363
0.613829810754205
0.625782096791965
0.63275004424231
0.63859816134492
0.648241906703858
0.653423362579267
0.661191813638268
0.661570327080137
0.668533276629981
0.672966165820122
0.671065855037875
0.674804933768369
0.675795482218849
0.678340221721252
0.680819225390453
0.679452124500026
0.676280743439881
0.681024852147001
0.683068102602197
0.68372737546262
0.686246210563048
0.688087779031573
0.691084660287219
0.692280790430375
0.701967167880667
0.704278314287087
0.709965244378811
0.717334652513277
0.715068886387012
0.724413136871185
0.732006854079803
0.733422367337391
0.751459527891568
0.756808244682789
0.765712651315316
0.776522178316422
0.787205736916893
0.796805222731452
0.807947384425054
0.817894744364154
0.830886936137353
0.837171555639032
0.843058500451941
0.845563401139192
0.856185266497973
0.860186663302031
0.866159466406537
0.871263071569822
0.869716830193008
0.87655774039895
0.871213327271131
0.870452528302313
0.869040158520803
0.865741979575388
0.85705237216001
0.847362645787319
0.851380548583159
0.859827304197558
0.86247015448139
0.871631146228935
0.880968602037737
0.89046655884644
0.903054865700512
0.919515140180615
0.932298593180614
0.93462403430176
0.952026951817354
0.973479392409785
0.982105774600558
1.00013872857184
1.02355540785649
1.02543957655635
1.04297123279402
1.06261314735592
1.08718020853091
1.09897062924922
1.10622278649872
1.11498123130023
1.13984512735569
1.1569005227718
1.15701639462999
1.19978573872665
1.22304974127923
1.23342109548883
1.26722658814693
1.25321806396682
1.29332841215656
1.32440277074213
1.32881295300896
1.33260724103807
1.36055439751631
1.36889442477864
1.34144112658913
1.39928859941356
1.43351495741031
1.46935702031967
1.43171976541632
1.42663340465688
1.41894800352094
1.4562013178406
1.43373192457555
1.4302249961433
1.41752606729149
1.40556525995119
1.40294013404804
1.39807447622052
1.39899915116951
1.37031970136576
1.35512935917035
1.40865752524021
1.41241073804421
1.41453479334567
1.40759958204093
1.44051854692011
1.39622833719681
1.43668476086062
1.45453196186858
1.44553728464498
1.42498733064546
1.46805340564107
1.47868101592258
1.51764198151216
1.51768317959714
1.51122976026572
1.51237626261389
1.52815674116203
1.54719566045297
1.55036631860002
1.58741043479432
1.56575740794058
1.54968945628827
1.58880311417092
1.5563614597045
1.61280176857796
1.58885547292278
1.58705223777207
1.55717108949301
1.57153669559718
1.60271083027936
1.61317831563071
1.57322092003081
1.6044894102744
1.57882365170094
1.58256225283224
1.59223005318104
1.56418311834853
1.57243193551084
1.59168787794457
1.5215687858992
1.56251414720197
1.5306988494358
1.53459574795898
1.49006476872551
1.47892432649052
1.47503674918667
1.41400080119492
1.36644275207311
1.34482355376475
1.32520296486923
1.27728332066507
1.20072621433635
1.19082202685306
1.13534338541759
1.08433570523683
1.02767483715178
1.01695583583703
0.988779434856493
0.97013467686954
0.950218740319276
0.926650278905537
0.916862929499829
0.912231314822868
0.906019097763475
0.892508537211685
0.887377092500906
0.880680694537267
0.862561946181659
0.866881391488472
0.854395653357488
0.846357997420379
0.829419649594672
0.813671310793535
0.807378082339022
0.792485254954998
0.774687153183295
0.767020616759695
0.744458530876647
0.719078330131086
0.697039342090534
0.673953986291794
0.663474746631425
0.641365788477816
0.613764808862925
0.596188063783723
0.571640541849779
0.543832763786079
0.518188546485174
0.494194546650877
0.470943159655245
0.452228094173941
0.430335097752853
0.411041280966739
0.398443798708164
0.376863062598731
0.362952914135538
0.354854408680943
0.347635018475574
0.336935784791162
0.320558850402457
0.313851633476329
0.310945179815049
0.304273887879316
0.297344823599211
0.295797347315217
0.29353815959057
0.290440925351345
0.289109317232127
0.287168707794556
0.2866055767325
0.285680371813452
0.286618724246363
0.287715675888569
0.289255623495091
0.293498320652274
0.289847884596668
0.293594286922694
0.297901923857804
0.296466909293595
0.298144163698447
0.30038647347451
0.297613300680043
0.296579709292814
0.293668887912091
0.295457353305702
0.29194428516325
0.288905845285526
0.284143740011782
0.28345962550023
0.278697673422362
0.281327743998167
0.277166335479776
0.278456373184038
0.279888172054888
0.28013340362344
0.281711754659951
0.282556554641428
0.279468692976897
0.281545884774267
0.286130564821614
0.291655865659888
0.289812940300495
0.295890321379252
0.29967980708492
0.304469057695842
0.30166326300748
0.300179716919939
0.304579147042519
0.306823389840127
0.315480602723869
0.313171631461811
0.31234252029241
0.318838006358439
0.310038271110335
0.315590405058197
0.315729104365706
0.317449984814291
0.31404856771489
0.318255497400168
0.32700346085093
0.326085066864466
0.321724442328401
0.33492905191476
0.336059636165563
0.341800428873969
0.344325542550258
0.359821023644802
0.36598447979804
0.37374798579807
0.384917431829524
0.392602602908099
0.402484808823907
0.422716571639643
0.425599102200476
0.425962822465989
0.434416336227279
0.440759658550928
0.436060362805407
0.435712719787638
0.436363033268155
0.421263128348531
0.416831047449653
0.409540652564166
0.401624538880034
0.400122315677484
0.390014133676643
0.391335480735373
0.382496135945215
0.386255779398659
0.38891862540289
0.382083993756844
0.386215827088722
0.388688661402806
0.392874724068862
0.396401480148489
0.39404634130217
0.390367681234091
0.373257007926903
0.376838119026026
0.383518282836591
0.370812422883825
0.365602668162327
0.369371271761852
0.35733687839714
0.350975723511925
0.352559643924166
0.357506313173149
0.346291279671132
0.342743173525671
0.342218845228945
0.34516985943946
0.332253808861908
0.33447942949047
0.334644128121048
0.326002450935144
0.324384378801509
0.329409131247014
0.333436822949366
0.331647621605292
0.331115538710432
0.327553742497525
0.317671597971456
0.315128141067395
0.320678883814024
0.322206970424401
0.321583122988798
0.323875394681734
0.307367811479763
0.311710097147626
0.312674093282205
0.30815509624681
0.311322581851169
0.305166938218789
0.306466825459667
0.307013457669796
0.302901685317566
0.311833299048762
0.306408603958235
0.305033436878494
0.301339452365548
0.296621885884669
0.293432489834369
0.295847115498315
0.292654554332602
0.298417157010661
0.303106332438093
0.301959812077851
0.300012166832577
0.300133750079616
0.30061777317779
0.310108527016808
0.296508847619223
0.296048868325256
0.304037364614292
0.309098267550329
0.307685238526347
0.312380699241968
0.305487086341838
0.314516314009921
0.322383245834375
0.312513551551198
0.313586509373068
0.326031795748408
0.320009433555753
0.320193590425956
0.329540536192588
0.327485775163624
0.334822882106857
0.349220619866115
0.332960906752423
0.346756417609854
0.362751705201746
0.3582704560483
0.360362226534824
0.368188001498866
0.369946351347142
0.3799697173793
0.391870865942313
0.410687558551539
0.399657713684413
0.4071933371044
0.42729384303983
0.440456525869593
0.450639001476899
0.467046788069208
0.468613633006516
0.488038526720274
0.499155557135045
0.520725024661788
0.511715200648484
0.51893962930319
0.542074788965893
0.534693606743672
0.527938575649584
0.550943670196584
0.560608664617259
0.557293365013287
0.546181019282414
0.551081942247871
0.520171939700231
0.520166075690656
0.520632659813557
0.517765209158883
0.524472808911568
0.528124710432059
0.516644885436658
0.508478979855011
0.511275172091451
0.534688575652268
0.505047309101876
0.534768691039811
0.521465128496503
0.505588499492574
0.530280654403968
0.493227686096503
0.502493626465331
0.502360256284205
0.471718220088756
0.504870728554084
0.482411220493756
0.474849438388521
0.452320107930321
0.458629524973864
0.475426417742681
0.488362965510111
0.468203040937015
0.457956614226223
0.472423721703058
0.462464596272457
0.443118711981254
0.481830629507251
0.46276336001883
0.446464212984831
0.477878374613009
0.478036587234899
0.479756058878125
0.456157109568152
0.44873134498433
0.46386537047039
0.47802035329135
0.480052099361016
0.478694996239044
0.490838407794829
0.472763424309841
0.487615829862786
0.477410714165439
0.482669592051906
0.524943870392685
0.503520884423463
0.463523609011181
0.507575444354454
0.488207333973823
0.488126987158757
0.487356987644174
0.531254272694497
0.544015857911337
0.518181035622114
0.565973062561305
0.542219348677349
0.475355826144503
0.531637710840367
0.541033529308807
0.533950882347895
0.562347883458214
0.579016307098001
0.574225139238132
0.575193746462243
0.620511242750668
0.579956789329351
0.531994459532312
0.576684015687591
0.633469486615129
0.645149279210705
0.635166076589665
0.664357417849525
0.690017021501286
0.661188025800829
0.641340950415877
0.646631678235458
0.665131743350272
0.633030897120169
0.641252741504402
0.676328557734944
0.6358202185673
0.695486035589392
0.695041712240461
0.674306642775545
0.626996370561315
0.593604051429398
0.66479088443976
0.654819402062899
0.650064671091727
0.704007537174012
0.681895784966245
0.596960019990022
0.622574150876712
0.644183791425025
0.605051211895283
0.592037802599036
0.607389205829537
0.628172425082888
0.576049164078049
0.560363180693063
0.569868464594892
0.567693162971232
0.688702226523901
0.70661316129013
0.524070734417427
0.588536663219423
0.701749323450636
0.516035772191525
0.55792589036563
0.540126259203953
0.609991096733015
0.734985112798129
0.71489164887657
0.653160553352278
0.868208466289225
0.635720264724371
0.547273888545152
0.55168999206579
0.720737830352441
0.710101832771988
0.666053015436335
0.553650031556261
0.754829599993581
5
1.24127762977177
0.908349631401705
0.765229369028196
0.633140006456329
0.597857327491898
0.830393341400806
1.18754447296147
0.931290047031495
0.561935342461684
0.493504620116127
0.573785297410453
