3596
4000.36533379555
650.420452594757
1
2
2
0.0701775312910049
0.0889584668709443
0.0731271367989274
0.091088750646261
0.0758936245489287
0.0836781788656211
0.068117313881595
0.0784778249750784
0.0696570512583362
0.0925566256645898
0.0756136647024281
0.0832692185922333
0.0689512020027463
0.0842763678148605
0.0756193753773866
0.081252594996754
0.0742755881471764
0.0911302684826475
0.0686182235119265
0.0828062892604254
0.0716399516102029
0.0863645087935858
0.0666002179977708
0.0842596157247874
0.0724392131225648
0.0906716732753804
0.0741942643499797
0.0884152643416819
0.0711147601143931
0.082498513936757
0.0695242561070509
0.0883595763161843
0.0724917085043391
0.0925578771124081
0.0767334736779526
0.0775275181744356
0.0719721695871651
0.0882762238820484
0.0664825095768829
0.0890410629996872
0.0705416020500405
0.0899859505310292
0.0745345902981311
0.0911763310873258
0.0788665320634211
0.089604259224032
0.0798833035762115
0.0850856817752723
0.0726866143946358
0.0823125571303747
0.0712628062490267
0.085262427249903
0.0819966040081871
0.0882678616092428
0.0746039435435293
0.106027777888049
0.0770712350157871
0.0851887430438792
0.080315330691116
0.0836211755598756
0.0927838639464147
0.086902004082558
0.0745854994569479
0.0806217183388213
0.0660999135351041
0.0858055358599076
0.0655503276660798
0.0872635398972364
0.0735060735386543
0.0881612698625996
0.0730367142930632
0.103025703377586
0.0779413777555743
0.0913863374420719
0.0772184109431348
0.0917919467638383
0.0776058540555849
0.0802938715304285
0.0628641182767538
0.103233629060752
0.0732103428418072
0.0909448258228208
0.0646105287565944
0.0863660996137007
0.0839756471584546
0.0902648163683458
0.0525788654009575
0.104004512672428
0.0890497735464263
0.0969146645266797
0.0646478241912499
0.0826274535738726
0.0635684386698899
0.0689714540562538
0.0628981734698489
0.0843211570853009
0.0571686603332529
0.0897113214715456
0.0672960605833621
0.0897205924999164
0.0798009695118947
0.127228886478671
0.0830379640444422
0.0869230198391691
0.121401740223939
0.0767831978024531
0.0974437115001355
0.121999176283433
0.0644020007771655
0.0905742143204138
0.0619467850242869
0.0852147911625545
0.0721881556372547
0.0936943177609842
0.0665835297289312
0.127881275927911
0.0745093289807405
0.079014565095404
0.0664764845480474
0.0816609405688447
0.0662148731462814
0.151052560032115
0.0743285641994841
0.0840468508872692
0.0776164424047779
0.0811757601319704
0.0844684619746716
0.129276098314782
0.0668041982096359
0.0856601403577577
0.0628759030937694
0.0736726711483689
0.0573809706774454
0.0984753757170142
0.0961829172153437
0.0753823807187909
0.0804845467549993
0.0935230329055108
0.124536501981969
0.116486069725199
0.0619041849109345
0.0860267664687922
0.0674236561092688
0.112034373903826
0.0882245794344158
0.0794235277958796
0.0687302743964237
0.108145484345552
0.0556843132439055
0.081130729995335
0.0604089354312569
0.089429288360493
0.0839773027661812
0.0847592736957094
0.0795455717205212
0.183333916887464
0.0870843918596576
0.133643890798937
0.0947711572035998
0.0712151599304185
0.0913396960410153
0.0690246449016708
0.0752655780981655
0.0660336526826931
0.0762039477904201
0.0820395053067999
0.0912452361371136
0.0905382303223433
0.0684271035486941
0.0962666560792784
0.0874571215923526
0.0921394331692934
0.0866515492706563
0.13148767470262
0.0602888673075428
0.103209873828646
0.0890909210315101
0.0860354622655349
0.0645744359524662
0.110246070065564
0.0764423894096519
0.0697553726970425
0.073268047612464
0.0763311552923468
0.0861242461603837
0.0966876039316329
0.0754010143115267
0.0827267966647514
0.0751880518851906
0.0871250651531587
0.105802438446987
0.130374831734823
0.0841503585709914
0.0835053365648733
0.0748037596553368
0.0826407580921953
0.114140907719574
0.0842227681517597
0.0639460091926671
0.0735356838720454
0.061703182955772
0.0797366186598548
0.0622742013371115
0.0734478554310942
0.0699032185517909
0.103395080882244
0.117771165466625
0.0698965682703574
0.0659973861103973
0.0693502902500973
0.0901505068664597
0.106899383345958
0.127153521296969
0.0841483160374297
0.0719201263721178
0.0780086198159495
0.0754982759570415
0.0982632442476874
0.0725583218308707
0.0763143081082284
0.0730934754565589
0.076341224763629
0.0642830396387914
0.0688712504499673
0.0624332379995108
0.0718029348773797
0.0649013219715894
0.0873216317251954
0.0717579378937711
0.0842574908345627
0.0788028239634043
0.0694235670280882
0.0603732987666489
0.0824275970095633
0.0699482858065259
0.108598044143558
0.0765271564607218
0.0724965052284559
0.0658948530586771
0.0745566040261629
0.0686786184625044
0.0722803658800592
0.066528842144825
0.0829408085636245
0.066013567480783
0.0869379831758681
0.110172007748051
0.0698142827912826
0.0799855565786447
0.0725800153447103
0.101552558462757
0.0776166983336522
0.0746835750377419
0.0733130211234229
0.0793689437146279
0.0710193403943515
0.0888426625126138
0.108857977989634
0.0795286208107758
0.0820344626632776
0.0988176907709786
0.079998050721917
0.0779708596773422
0.0949291302935072
0.0992456923137848
0.143798320433797
0.0842091837236077
0.126197557317334
0.117331894471218
0.088333378026843
0.0903712985167326
0.0918963940844352
0.111399464790951
0.19490591396779
0.0804287796183955
0.0814772611896965
0.0827274712980677
0.111810643620968
0.0702950490840573
0.104930183780034
0.0884269997592242
0.123514819527114
0.117904865358737
0.147214500895048
0.126366854585356
0.0843240787137885
0.130854810927558
0.0855475179603799
0.0837143833877536
0.0774874488080786
0.0797526623197754
0.0869571130334878
0.103699096087702
0.0975688848134613
0.0928822071603673
0.093041278380948
0.0983574257721316
0.117820173144337
0.0783894418941301
0.0945834020386445
0.0915624448538684
0.103653058332426
0.0702031870507147
0.0925942280580677
0.081702267134405
0.107280412756931
0.0907292496530776
0.126496454752335
0.126515010388841
0.0971428393374207
0.0946847386243121
0.118404051541659
0.0766167262899368
0.0918907495804153
0.0897056704705378
0.101265163462987
0.0791110980767154
0.101592291977876
0.0936114686152685
0.129895201027322
0.0776779458502099
0.10198748998247
0.0892140037095042
0.0982094878757429
0.0916001019024663
0.0992746293938501
0.0940127451226819
0.0982459935098561
0.0930631019444273
0.105266285059766
0.114491273328073
0.125877027133585
0.0913335465744125
0.174089202144522
0.0960962651273393
0.10660981760786
0.107988320687736
0.113077660408084
0.102023392203122
0.107327276187254
0.102354134830404
0.1197977481471
0.117082311641697
0.133423467666955
0.113255287699728
0.13384842302373
0.14816674045933
0.19032182149792
0.152891220267949
0.112967701940423
0.123232167438201
0.14178332440555
0.179800948757055
0.145620750743371
0.151445477846435
0.146055136201802
0.115206283697154
0.141962882699627
0.119144359676993
0.1409057110609
0.125976091170221
0.152773213390858
0.125583501240089
0.155314926444182
0.13903193608901
0.149709847708178
0.141319043520804
0.192249135191249
0.164744266028154
0.161419076783533
0.141818998439694
0.163097662889739
0.162061476805949
0.230345178754109
0.188444433365486
0.243138001983095
0.191239738402757
0.225080867897407
0.199597990813049
0.166773435307968
0.178547563783285
0.182036471565109
0.184984985559433
0.190531552944908
0.187453314665
0.185673539745059
0.190102729511139
0.204067808656061
0.203807032394505
0.207468723349667
0.21036356181904
0.216277864555682
0.23235122446402
0.206411770056216
0.210779531800697
0.236227510030441
0.283136715251368
0.302874711831139
0.257904181176805
0.236513729567828
0.236000945641784
0.237359690174557
0.240782881352202
0.256868833767675
0.236484405582676
0.274510496215447
0.269378152806896
0.310962713925475
0.257359262476791
0.288686745057986
0.263637195076133
0.273414951501415
0.296664891930436
0.309001466642241
0.307842556244094
0.333597266387599
0.29162726584659
0.302209388644114
0.324731998223247
0.31213389506594
0.309780295907325
0.346977071563015
0.298160610482218
0.316700230044403
0.291067048735493
0.333297687641499
0.311658019921554
0.34609285696044
0.315696231467374
0.355749135518802
0.343252674514083
0.358273059575963
0.344913275582146
0.381756501247968
0.340586454226318
0.371337924927675
0.364406729471293
0.358219981711539
0.383242534425691
0.398809271247149
0.413033645627734
0.425445583161116
0.425674675058298
0.428843041825476
0.377814219475856
0.423276136061689
0.394919265048201
0.412606614666613
0.38839486252785
0.436149789045817
0.411481547241708
0.437340570792882
0.3997029973316
0.434797103619341
0.438779069045584
0.462250183254587
0.439891357647999
0.453170476377838
0.448309774026124
0.472786079155143
0.460391095617252
0.498155766242816
0.513623848070374
0.544700646043699
0.519422622248925
0.540683991035891
0.468321626206318
0.513723645488527
0.472951891678138
0.529599399611952
0.504894577580273
0.531169826773506
0.501066957972041
0.53592989683694
0.513033902311625
0.561317813904585
0.53270009662913
0.552088336846149
0.550490832766696
0.604943934298491
0.588662320102858
0.591822811759549
0.556322046038605
0.576170995754431
0.564283068965507
0.598296616974584
0.553635014633184
0.625926874822514
0.57155436707156
0.612576025596739
0.624671987432866
0.638474258907412
0.586908307196486
0.640573482754666
0.59740558199691
0.658859696621046
0.628478229307483
0.689731962429936
0.65252546824738
0.67578532416713
0.656032999455348
0.690572342169944
0.681440368829828
0.672939435911935
0.678485809649636
0.735438354582953
0.686952035910268
0.738214799813999
0.69107193782972
0.727514895177193
0.679229933101198
0.737727437453408
0.705841325350375
0.737095308852422
0.739068858926395
0.787392998352253
0.74696807052733
0.765608243522202
0.725777717201923
0.782621447449687
0.772218481322918
0.745756929548363
0.787192050901145
0.823856779403402
0.739663022579757
0.8466488688281
0.774096225398907
0.833088559157823
0.768157474074179
0.822282097332777
0.791045812597786
0.833828334205993
0.809510473992387
0.831593476539269
0.833232551610625
0.890138848191462
0.837613239470227
0.898234283439359
0.841398725308699
0.889053281525301
0.839591245783195
0.913525262448811
0.884019569725544
0.921204673313006
0.864193265306214
0.90694796396584
0.897575319379999
0.925781608104608
0.903934176961296
0.928266082341427
0.8758726148726
1.03684144142216
0.913380243951519
0.962304025837937
0.970817937577356
0.992931597870951
0.914568433146332
0.961285057459391
0.950199853635334
1.04501602091568
0.981475675200722
1.03803385456197
1.01467628489984
1.04081315533976
0.990970263654028
1.00287492026903
0.973801898833289
0.985962977114839
0.935243051241497
1.01544580771783
0.95472588090486
1.01329061680882
1.06429805319095
1.10178842261716
1.06015917983019
1.04519292178241
1.03367026744453
1.15005563900561
1.00466310546093
1.13130122739698
1.09682856257157
1.17115359075938
1.09616251860707
1.11474973539133
1.11712738739473
1.11419938636793
1.02558296675924
1.12459891539636
1.12547935320895
1.24611787075621
1.10874563876701
1.16620362876668
1.19684532339786
1.18190249635032
1.18138747901821
1.27174737338539
1.11341132890744
1.09963573475619
1.12375315623888
1.21434791784366
1.09017430065709
1.214892856603
1.16136947071881
1.2047653574584
1.26524534891336
1.27476672352572
1.23021739605215
1.30809735014262
1.15867280564783
1.25283839423551
1.31634749700789
1.28520641935459
1.26586994014292
1.34815023539632
1.32909822398721
1.30788708633119
1.22722851263314
1.2645691548817
1.31761400190756
1.38248442940449
1.35384967587922
1.43944816967732
1.20311090675833
1.42164702357486
1.32286531778179
1.35594422236857
1.24779621620732
1.21602357637549
1.26712568036704
1.45161717722789
1.27716335689324
1.34105449461643
1.29888687499474
1.38064557558365
1.31977224849014
1.42599276959864
1.40834190168349
1.43984971745636
1.28123717209107
1.37001840791976
1.43087563918862
1.35560927838724
1.29817434318993
1.41990982932234
1.3857625511464
1.39008768644794
1.41283903530129
1.40614991711718
1.2549263361125
1.32780482113832
1.4242549715279
1.37506469729427
1.4374731074302
1.55853613607244
1.41654558702909
1.50021026190745
1.6391373992014
1.69164994140767
1.4250608408695
1.39606007690099
1.39510105186562
1.56160422629747
1.4010736722017
1.58821893387893
1.35935637525903
1.46490903983768
1.49144744170983
1.55578032385524
1.41381002576247
1.39298375777901
1.49335117388129
1.75894042697914
1.43877546681824
1.43036610557054
1.49127199555196
1.42284620830782
1.4737835246538
1.56651513704454
1.6201224182003
1.69402924398292
1.48677944946758
1.64310798777123
1.58893304266429
1.55317069671398
1.48356088423446
1.58610309600322
1.49621178896414
1.47359936247614
1.37480431791273
1.57736155621273
1.50967362404212
1.47709752495996
1.56466952710571
1.53639409079313
1.50835278653868
1.57090755504193
1.44708502034383
1.56525821575916
1.5870815483417
1.58732841113806
1.52540930073068
1.53012287809072
1.49331632135587
1.53061576561552
1.58739831271296
1.67401641705962
1.56691217139854
1.37364575934598
1.43134781903442
1.61651383762769
1.64089036205352
1.66466964775
1.57323223249605
1.55081284542143
1.49053402164333
1.6398362625887
1.5850041369614
1.66223751195278
1.66940882725747
1.73369764634241
1.55279839130615
1.64493762211163
1.53916951802615
1.66569571720828
1.58676131716326
1.7176366880755
1.61548094800993
1.50106710837647
1.65200545235631
1.5521232993485
1.54900695775525
1.64974063179516
1.54858160132967
1.62250755791279
1.54419912536049
1.63863178878
1.53399640219111
1.60431137744724
1.58889024222331
1.61750031484793
1.62397860920911
1.58518565403922
1.52318505249147
1.58641288059745
1.49791136823849
1.55473780768189
1.60920515415928
1.59518361754731
1.69774166276469
1.63018130355359
1.56337140334479
1.65985886757169
1.70647384156752
1.85805908732991
1.61221410982584
1.50257431645868
1.44359073936488
1.57374170839909
1.52530199802393
1.60185497131538
1.64410506906329
1.56285218602699
1.5733100000785
1.59772098391234
1.46624623548745
1.5219786426077
1.59184099698021
1.54506869689426
1.54606440393217
1.54169801713267
1.61489525337516
1.66455948432211
1.63581653161447
1.70970103547661
1.51436489879905
1.56919024496281
1.50780984246652
1.58009133096862
1.67583737556028
1.77707216973545
1.65847395270515
1.62980608397456
1.46411489172477
1.49270376717401
1.58007975022069
1.61197482558452
1.54050005833572
1.49241945632953
1.51118772243467
1.55519546532421
1.58522266473022
1.53205095623188
1.58446634975794
1.60754504872771
1.52001261611334
1.49777362531793
1.55331065720061
1.6311855777589
1.5813382518121
1.48277836649667
1.57841479735992
1.58596355209635
1.52311634783222
1.59300459021726
1.5042980650071
1.502346991885
1.52224796813845
1.57171159716228
1.41242003520261
1.58809092656469
1.67526003200788
1.51217325858298
1.64865855232457
1.82415866691668
1.55771576291482
1.52443137660601
1.57048424251803
1.56389157446999
1.50280767873431
1.51826630673514
1.59249608053574
1.56951678256917
1.54767909071183
1.48260789221743
1.53696026241996
1.53375246044136
1.44172088721511
1.61760787055576
1.49441425713451
1.46990942086197
1.45596921106811
1.42454285119091
1.53379504067542
1.52990085867617
1.55680533955552
1.55749163353499
1.46374076563251
1.52423791761738
1.50513702374902
1.42330071573026
1.45033758525803
1.46986255597607
1.56101551890335
1.4848278673423
1.40352130941109
1.53416195820214
1.44234737269461
1.46423628271772
1.49193629283527
1.42779790141597
1.48930217703055
1.48063796051935
1.44914617577821
1.49014624135022
1.42223871768058
1.46346131120826
1.38785476533756
1.32566140073932
1.39088754934304
1.30871750336621
1.30028677180567
1.3455369100164
1.43422890202717
1.5004639321141
1.378018097161
1.29463409633301
1.31841742313183
1.41279722559868
1.37840455945279
1.31007512457303
1.27582444062775
1.33220270200366
1.36001302278457
1.3555334214267
1.32965668975202
1.3027827741308
1.33591785894378
1.3306347862024
1.31888014879779
1.28879860290803
1.28607699838722
1.28313304876731
1.2493913817519
1.25496557573244
1.28166311167506
1.27131801498725
1.27105937321251
1.28857109108792
1.25403405944133
1.23674887022042
1.2690551438951
1.27292787610236
1.23337927905138
1.21869171108538
1.22254793609473
1.19938863311872
1.18253563465324
1.22036137041832
1.23695198906205
1.16376127808316
1.20262863181675
1.2333161422939
1.19039188251421
1.18435505368957
1.18977930985997
1.17443688019292
1.14381263782565
1.16987642311297
1.19191116303661
1.11567862814036
1.09723624662259
1.15333216198921
1.14017374355602
1.18136617941103
1.13959677537787
1.11084485050243
1.09935001021071
1.08408060648573
1.1325579047076
1.09567756785585
1.08949182911424
1.08076052436567
1.07903223430533
1.09987009514179
1.06064057411539
1.0420331325374
1.04612586934325
1.06021448981691
1.08304671165344
1.05087018205954
1.05660884570856
1.03374234483334
1.04833526680332
1.03999547888563
1.01157349517056
1.02477091507627
0.998639360835576
1.01090799067638
1.0166650888615
0.992323273210108
0.98905137370806
0.988351428933822
0.971447014822418
0.961347534490057
0.985348736844833
0.989767049815851
0.968386203778596
0.982329692602466
0.980921796154689
0.954693974315378
0.937821210377512
0.92711809972433
0.925364542997792
0.93320564598763
0.928207285174949
0.904207118202206
0.915916672398691
0.914232712900054
0.934259818293067
0.92154584410422
0.907342754123382
0.898254166195005
0.885804760105331
0.895623092594973
0.89095168410131
0.89226267209919
0.877687138772853
0.860170590521133
0.864332863093855
0.864124567546075
0.853585379749013
0.849545895073925
0.857454994881625
0.848271172326576
0.834024699486848
0.845343865422364
0.84222564329972
0.834319662879703
0.831713521879388
0.814511348724492
0.822301524665914
0.805814440668336
0.820483176445366
0.811141982184478
0.809973880265657
0.792368133775106
0.782983510100354
0.778514330584472
0.78171691321594
0.776468538349826
0.773766240025954
0.798369529082792
0.778475762584818
0.770320427515206
0.762053745112536
0.762559215672796
0.753386785408886
0.750288922262066
0.754521882541407
0.739286866820751
0.744426817316759
0.738290311026518
0.736764821453297
0.744199287593321
0.721847738370963
0.716299468594656
0.722422879877685
0.717286680584177
0.721312252649094
0.71821559972424
0.703427133854017
0.698276182731072
0.697469833615414
0.696451632518896
0.695002084866643
0.67684300614266
0.676804433931893
0.674370946087714
0.680721817996258
0.688099144552654
0.673059136024674
0.673058487486294
0.662719573218848
0.655114224953021
0.654693491923951
0.644197952764216
0.648610972290913
0.657280508800383
0.654617172612637
0.643981353643263
0.638411381343142
0.640945079840584
0.638191644664513
0.630727163369521
0.617586111015016
0.618648142820534
0.617390385870934
0.616665946956884
0.609370554221371
0.612793213290987
0.609022430239514
0.594163939195243
0.609872279891139
0.598095914886819
0.586695036533196
0.591219003818987
0.589013902148669
0.591028367455878
0.587169795533637
0.573068160209221
0.579633726132309
0.574573842399573
0.564106141548
0.563795360042339
0.572695024290811
0.567854671756137
0.558215898410387
0.562484880805719
0.564677798883414
0.557298862095708
0.559559832066034
0.556039528717548
0.561398133414071
0.533964449668003
0.546666607299888
0.558880235515889
0.538628972419984
0.539402232882255
0.548334315301226
0.53233956830938
0.524928950963517
0.537676101670581
0.537959212704927
0.527957002319751
0.526508606791898
0.53321420109452
0.531535944556528
0.521366196096578
0.53425026095954
0.528736254514063
0.533083600524818
0.520620776667161
0.521249959994561
0.528407430677591
0.525524465991782
0.526020658962423
0.527061814344422
0.524562077345346
0.524001089960635
0.529051407142449
0.542821422141614
0.522124418184269
0.532347142378234
0.542030646279191
0.535217357736049
0.528126948439989
0.535562941952025
0.538490366171531
0.536997393530452
0.526544551071585
0.54695343023505
0.551450903329331
0.550524151608744
0.545206154574436
0.55170688423608
0.549278189463842
0.556388245694935
0.549447002528141
0.55314510136269
0.556537165307387
0.563136986303764
0.562118701614046
0.577471193263407
0.570908322380309
0.56558463713208
0.580127346602512
0.572225279124233
0.572331436230772
0.577819237203015
0.585905369240803
0.577244920198337
0.586117789798449
0.580968842328471
0.579191978203911
0.603875564432487
0.612523349786013
0.605977476376812
0.59355676752867
0.610987715947945
0.617689353293315
0.615262055232482
0.615941488654756
0.631632914068688
0.629232981007012
0.638447138841228
0.639116132255926
0.647427977608308
0.645731534395287
0.651030896198548
0.655336080966056
0.655545400941336
0.651639199385459
0.674823329148411
0.67281771520737
0.672828151864933
0.666117719419407
0.675000315962945
0.65927362150806
0.670143448454111
0.67806252052024
0.679019954264512
0.668528826598681
0.672149706887822
0.679920925289841
0.671406824873166
0.670227164557781
0.677189934541934
0.67107401580549
0.683455053719851
0.683312656065409
0.674215317235084
0.670188756944431
0.671654885640644
0.668917142384037
0.671604316512817
0.674493328234463
0.663625507702761
0.669296076100609
0.663158621724427
0.665892775856736
0.665362271976144
0.68106175647869
0.672394263510022
0.665898320998545
0.664621837852506
0.661101803047971
0.676134926313233
0.677753590170433
0.680604914020011
0.668457938093549
0.675094839336677
0.667645400966038
0.666875982762173
0.669597201974922
0.68254274382532
0.681657529307115
0.681672761908462
0.675584899710713
0.675027293820451
0.678356399583604
0.684436425477782
0.664886894291574
0.682139731179199
0.665596482880645
0.665864701381028
0.676353199586934
0.676518528844852
0.678295438080909
0.677582813792107
0.666640866458079
0.673808597763228
0.671340307867084
0.666476495873689
0.665915775541232
0.661196605187841
0.660872987129785
0.66143688317439
0.649127906235828
0.664272902653678
0.651368522491028
0.64451797596421
0.628455265217524
0.638824217198442
0.633865592056889
0.634051852103755
0.632981057411305
0.634461980286996
0.606257774603361
0.625916591500905
0.62799570686321
0.620950923488954
0.623798438363859
0.608230071796949
0.592722907964893
0.605613950192735
0.581454738007386
0.588217014513215
0.57607504972736
0.585024715752488
0.581848103513714
0.576056247985107
0.573192379907983
0.563316669539012
0.555159713216762
0.5586412370881
0.555951752781671
0.564777935131907
0.549694547896711
0.540968198222555
0.533114185810098
0.531247874815435
0.537089386331975
0.529624030797801
0.520028180335528
0.530395593870464
0.515763436005196
0.516611464557467
0.5048264852615
0.5123718390977
0.50803297210752
0.505536388537968
0.495457406732033
0.503090369439678
0.498145550756655
0.495060988059369
0.490799394785169
0.493188255355675
0.481774014995808
0.486967005160448
0.474118366146931
0.479407840876221
0.477741958816594
0.476123784488281
0.470453181810852
0.47616057746167
0.468552645536846
0.462692937597759
0.466903488444015
0.463430007135918
0.460798161518789
0.461967204005321
0.457885805627843
0.458401548802008
0.447732788452738
0.449893489801161
0.448663829514579
0.446985905042784
0.45011894946566
0.442296612142836
0.43181814812774
0.445395171463866
0.439934129152733
0.437689747142579
0.428520173670748
0.438706589597215
0.438167383405155
0.431262921989304
0.428988276171132
0.431507652999018
0.430568437885077
0.435559250998542
0.423341662075106
0.42032624141816
0.414947055142185
0.416294568706288
0.417889584773536
0.417172883843686
0.415352862096058
0.412400764723399
0.411614377140176
0.409089999266589
0.40315669797708
0.41244823452424
0.409278030421659
0.404990254453385
0.407065647588077
0.403519365871076
0.403621933017416
0.399198259378299
0.401470228795837
0.405717152107521
0.386807416326764
0.397175285306116
0.398913405772271
0.396056509520857
0.382336053807865
0.390269288916456
0.387259169638669
0.393064024425043
0.384326522042053
0.391176841116952
0.384062365621776
0.386834430147291
0.381597321925471
0.381240715390919
0.383996620507235
0.377945713336099
0.375928968561684
0.378807946140842
0.373690835880034
0.379337267267307
0.372570111458206
0.377517063895462
0.370965620927006
0.365550363221942
0.374349373015401
0.373060040247822
0.370842839152732
0.373166008083104
0.366169665705133
0.370515490390166
0.362695914835675
0.370282492585794
0.368137692337854
0.366925134154442
0.362444645884298
0.367583593158068
0.369465042632741
0.359021840884188
0.362980779765966
0.3600886882417
0.363621812996906
0.361878290011436
0.356725143658227
0.361564173657686
0.353139068322657
0.359544985753098
0.358202585033
0.357652586674629
0.355270724099646
0.36140548782702
0.362414186572497
0.359735449600191
0.356144366827761
0.358321902609812
0.352025142679361
0.355585011801763
0.352998256163865
0.351651103586463
0.347642110563075
0.350784082904437
0.3479338920237
0.349642125537618
0.348039861387321
0.348975853274747
0.351952579292871
0.349443437767412
0.344743623642325
0.349097887096051
0.346907362003258
0.349295929456792
0.343749614494115
0.346547554983358
0.342409890903759
0.338613419451119
0.342579819983005
0.341731407274077
0.340501086890505
0.332627665300095
0.340748624888736
0.341240292326899
0.333510793010433
0.334315442778588
0.336692242229392
0.333819457824878
0.32772023170006
0.327186645284818
0.323888811165293
0.332412886893538
0.327823687726268
0.326787216688795
0.326162863371641
0.323906156696085
0.323709561984997
0.32418747557357
0.323601345252042
0.323825681649134
0.319921246055886
0.322056293144558
0.322099843791088
0.315988557282634
0.316628546438548
0.320206401458325
0.312502705261604
0.314378252760572
0.308516636853515
0.317841029108025
0.314296253833479
0.316517531113155
0.31636196262657
0.310469111487048
0.310651631302617
0.309394490875688
0.30997214097488
0.308093239751595
0.304127581702346
0.304999647884351
0.303355638538834
0.304319144707454
0.304390192713854
0.298039963732657
0.299420950681471
0.299029817481477
0.303056250247805
0.297854827248618
0.294157052452318
0.297725813244669
0.292455415042143
0.291264783915742
0.285672187202601
0.291378218008865
0.287675973710809
0.294048827580735
0.290531769650073
0.289056324079431
0.283040755217032
0.289938958428871
0.282888422274336
0.284189312224043
0.279759441608518
0.276674080819447
0.278810711983197
0.277934097775813
0.279830409574076
0.275177852985856
0.272355464844344
0.276367820400276
0.270751218676016
0.269501034696301
0.269273009035736
0.274293089822338
0.266849659913171
0.262782077987543
0.267144985515908
0.263524722902259
0.265365759141783
0.266425538286508
0.262283416697606
0.25970416886039
0.260369649626025
0.262778392644463
0.253963703311394
0.25484187930772
0.252653296789158
0.255390638752039
0.253917043660116
0.253636417812291
0.251376353372496
0.250365266945049
0.247798457582973
0.249126304703784
0.249685535497638
0.249119589538637
0.24662396176701
0.248421034464462
0.247446849174569
0.249909973273294
0.241108726062251
0.241033579616199
0.244021564026083
0.241835899815105
0.242858701945849
0.244052006178494
0.23911882171814
0.241375309736551
0.235663776193971
0.238661613243645
0.234274971505677
0.234153999540776
0.237516749008204
0.233528952012145
0.235724880472078
0.232580863839219
0.232886052001148
0.231402012373495
0.226680278555311
0.228985331424516
0.226351085701708
0.22795814115437
0.226267836049946
0.228572303171252
0.227480545145089
0.226118553080105
0.224808983927807
0.229968521268728
0.225949723492569
0.224183862241368
0.221384968017623
0.22101158789718
0.223715386835827
0.224257312969667
0.218923744867309
0.22208311141708
0.218613496327042
0.220701719981859
0.220016508971749
0.223020052599232
0.219569621024705
0.217898849672817
0.214805946279089
0.211159159412707
0.212946707510107
0.215044566019194
0.212692086627375
0.213382776877889
0.21067245291965
0.211020949924981
0.215261466893464
0.214725119424173
0.211803947424323
0.211870149612703
0.213506349666557
0.211444578256196
0.211815129574836
0.210648079251646
0.214005833572699
0.206521663517456
0.208724559009445
0.210219277201749
0.209029540062242
0.209551378534979
0.208648023025429
0.210934007152971
0.206453771346749
0.206541100796218
0.20638907130669
0.205555430647122
0.205946334740138
0.206177638957339
0.205465153627198
0.208193650208285
0.202335435201261
0.202894629259404
0.199965789570181
0.198019210388503
0.202002663013603
0.200123295363853
0.201324747874035
0.200488043768491
0.198935340771007
0.200439594519991
0.198791826195249
0.197648040360895
0.201024426757272
0.200504445206839
0.196530624209723
0.201823543583394
0.196676558001591
0.19511221138679
0.200347240330002
0.198712236962027
0.192289144200713
0.196668270469534
0.196223345408215
0.194770046488594
0.192772260426011
0.189219530220798
0.192893996858998
0.191473581032286
0.191355821732873
0.193304970740454
0.192059000597148
0.190934092217426
0.188870696981257
0.187534754649835
0.19218881893475
0.189672349275308
0.188793056870575
0.188675957601506
0.188513177039423
0.187267071832089
0.190082554286824
0.187074083679389
0.188682447460304
0.190022225728405
0.185145056043265
0.188186376977669
0.18461952841905
0.182460229456844
0.186365974281426
0.186563756466467
0.188160947714093
0.18270044278801
0.186691042987096
0.184878702590081
0.182947031278235
0.182562948323615
0.186373992162493
0.179340277503645
0.185350949365688
0.178790978627693
0.17875935008221
0.181536555151499
0.179012659208398
0.176469662451124
0.178849748451999
0.178451550416271
0.17512870362132
0.177630022913013
0.17409407425235
0.176869004789771
0.175333990921854
0.173902961806617
0.174723965941432
0.173099045736943
0.172028866435939
0.172456135175458
0.171215702624402
0.170407742993557
0.166588696452129
0.169440720185557
0.168940277333015
0.166062867667896
0.167853685656953
0.165989177645854
0.168801544329975
0.164209648569065
0.16935944722947
0.164479240804278
0.167160299802286
0.164521240595677
0.162643223547685
0.163567027789135
0.163225123910656
0.157505331422149
0.164836504645111
0.158666087826556
0.160299871706295
0.160072734024537
0.157941467348177
0.156272888999193
0.160028760547285
0.158227863801434
0.157278087534876
0.15239662704897
0.156090143131411
0.156741053745743
0.154844233883746
0.15566858214313
0.156881340855912
0.150344718534817
0.154540147202974
0.149132846960041
0.150959127249531
0.154871644625919
0.151092798989104
0.148911401962763
0.152491763465469
0.146395968326086
0.148960039339535
0.149124101893762
0.151907358969668
0.144042377044081
0.151294612155566
0.145962699055624
0.147669143841432
0.146276502003645
0.146865128777407
0.145268067416457
0.145552948952153
0.14400555218475
0.148419451073345
0.141262642973683
0.143943709956013
0.14076579220201
0.144923087741624
0.140601984688447
0.141682112086561
0.142274110752465
0.139780624719579
0.13869245784663
0.138648102186282
0.136657463963099
0.140363299932339
0.136138695330953
0.140141457417279
0.136103855103765
0.138674969736731
0.134880434434799
0.138449048751638
0.136696972210503
0.13624633711959
0.134963284045623
0.136566210799389
0.133352972860487
0.136819705151883
0.131129180744503
0.136452774419887
0.13425937686069
0.134490324936443
0.131549525931107
0.133729033211734
0.131599119160057
0.13416521990718
0.130300457625261
0.133361899617535
0.12943703632957
0.133733020946546
0.129519207481444
0.134088487508796
0.129783490514542
0.134921538412209
0.13167134995009
0.132130156286626
0.129996958231468
0.132764150309993
0.131145137330474
0.13433299935012
0.130028851422126
0.132211136763487
0.12720996556744
0.13309372050824
0.132791422808889
0.134289568013789
0.130725792531488
0.134940853175992
0.130673004742262
0.130399978827158
0.126285022768364
0.124368630382551
0.110924468714298
0.117841842074688
0.118103790784865
0.128204430704274
0.120686184569763
0.119122710794065
0.111651430463551
0.121633065929808
0.109873066593087
0.120456950371411
0.113695425351383
0.11636050330136
0.114172319360777
0.112538916373526
0.109617726498745
0.118050072086459
0.10790215131402
0.126759519964322
0.108936180273998
0.124705978994394
0.114752758941859
0.128050256389849
0.113656229744086
0.134501457338853
0.112835530571072
0.122622860319693
0.111134528231476
0.122439114687571
0.106002015962343
0.124068252724166
0.0995322101793344
0.126257757203955
0.103777715795762
0.128318422919661
0.107112157026533
0.125367569946412
0.103513603495035
0.120384182782216
0.104272681928568
0.121372597431126
0.110454187526688
0.129628584007142
0.111829046455812
0.123005375580256
0.108762880598446
0.114116176474728
0.123302055428185
0.118138189745605
0.117888840913837
0.104276211886518
0.134060373602539
0.105838747032381
0.131266354186864
0.0871424812492834
0.14603242569174
0.0977983395923418
0.140786219339052
0.0980338944025478
0.148877925033209
0.0955673201221099
0.137598610242477
0.104397620958833
0.131358437426881
0.111567024785872
0.128383648376022
0.11465553408444
0.122241519591924
0.117804388656377
0.119947774421186
0.119771645627714
0.118756177490884
0.114513990028223
0.122032152681816
0.116482491070614
0.126326215000745
0.116285468174478
0.122731612695074
0.1170067684401
0.12391113026539
0.116686525019687
0.122062930892629
0.115017210885632
0.117648382708913
0.114100618808174
0.119881504886578
0.115671764127369
0.119905439892982
0.115750832564067
0.116918999436356
0.114013625085575
0.118608637969326
0.114243700622267
0.118201151321001
0.1178501066258
0.119566065505335
0.114471409139074
0.119828708390647
0.117308545543954
0.121402705670095
0.116741807937544
0.119817118436221
0.118145836355426
0.120441966013629
0.118048970050988
0.118778054046351
0.117574636926284
0.121942071445957
0.119237293762048
0.120181668219845
0.116356101185407
0.120050239276351
0.118333222231178
0.117824560025802
0.11791091926566
0.118809884713093
0.117893148291757
0.120889056543668
0.118573548724827
0.121598981863867
0.117939129676798
0.120581375177786
0.119489076278301
0.121166105645212
0.118009962477915
0.120260254108763
0.118712940148198
0.120430293209707
0.118230537929206
0.119090056464054
0.120244178013684
0.122270034060546
0.119733836006342
0.121075553649766
0.120906791437272
0.120386957096074
0.120371712347412
0.124792993510482
0.122463149653771
0.122930016463755
0.120441768523699
0.120105772300476
0.118981456997747
0.121361918884789
0.121251338053789
0.12485518623614
0.122324145543197
0.119870554951865
0.121159157528852
0.122167108890758
0.120824541552291
0.122372828900894
0.119357056920357
0.123768971355942
0.121804270627465
0.122133188439026
0.122371615423933
0.122454857729702
0.12195214926421
0.122030367207165
0.123317252065197
0.123116245829564
0.123959270425441
0.12549274388331
0.123166935442977
0.12249218835552
0.123294062460626
0.126318518085858
0.124685260725011
0.124017315246462
0.125781522488727
0.126181960138916
0.125180055935435
0.126906921759846
0.126253654334612
0.125540864078262
0.126045027450319
0.127313883314804
0.12404770976194
0.126209030136202
0.12780926344726
0.126521266908802
0.126869427409409
0.130898965313537
0.129822940771956
0.129182522876406
0.127673560114441
0.128828500944356
0.125394862792345
0.126903075446067
0.12569558968159
0.12732678282486
0.131443448481435
0.128800022228531
0.127331389673401
0.130491885437455
0.131083627152329
0.129687385393567
0.13025613286408
0.129000357092504
0.129134790238008
0.130595330117019
0.130287527348856
0.130479589290156
0.130869006686638
0.130390962679369
0.129955208811088
0.128184637894947
0.129476480601606
0.131704767911397
0.13184256295593
0.129235966855609
0.130710254743159
0.131370222063651
0.131298718353122
0.131028703554277
0.131488254293877
0.133541327006753
0.134436940039171
0.134382374829319
0.132564295338079
0.133324430145195
0.133202424666451
0.136270756173158
0.13389359209901
0.134231668907894
0.135950726582422
0.135163717826613
0.134391122332377
0.135789873893674
0.133858147231851
0.133677270629028
0.135198737372449
0.134423616176356
0.136282987905007
0.135650034181121
0.136684494136837
0.131966820981047
0.135433773592886
0.135829689423065
0.13325002291663
0.132654584182641
0.131900815213949
0.134167535640881
0.135628351401559
0.133174348185882
0.132654748184936
0.134771866886132
0.134682952728187
0.134556227078648
0.134833341600992
0.135511285569954
0.134495798354623
0.132395484786031
0.131306518344013
0.13321070276829
0.129801810942775
0.133802418119963
0.131222646776503
0.130017140440024
0.132187227093396
0.130997556950216
0.132504570390719
0.133224850766475
0.132545075713479
0.130153915929892
0.130517677910044
0.132708437487598
0.129772024623077
0.128516783543011
0.130956909092956
0.130529342323894
0.130453329146907
0.129485071994267
0.130313146656508
0.129883933045102
0.13018329076295
0.129605800017021
0.128150021554305
0.130213094734608
0.128838873468628
0.129175180369636
0.130267955829472
0.128395528796275
0.12774319144199
0.126585957113602
0.12784188995134
0.127253391931421
0.128785927087447
0.127862132991369
0.127577449516427
0.127121961903906
0.126975745256313
0.127015406077066
0.128792964204768
0.128540423158743
0.126318786698807
0.126128229219991
0.126148312070885
0.126575563323251
0.127940451904428
0.124953736433863
0.12590538583783
0.125737235756035
0.126675065063251
0.128747158704182
0.128049918226429
0.125500852938991
0.122280675475162
0.121101057168136
0.12562287213015
0.125766608487761
0.124646178580892
0.122626514660006
0.125212022049435
0.124499002795256
0.124445094548703
0.124840370578143
0.125791079555788
0.125040706694344
0.124239427471015
0.125304423559798
0.124192557454243
0.123570871178028
0.124539058387085
0.124002918387612
0.124534501999955
0.1251106968388
0.125792799063247
0.123050735478891
0.12435278147996
0.121488940498418
0.125051597492842
0.122807630171862
0.122783767724136
0.124221962271632
0.122303388062194
0.122866650492269
0.123287555724031
0.122209196501778
0.121301934846425
0.12216105565471
0.121978597907484
0.119702678044032
0.119862084719171
0.12011212981941
0.122035841933918
0.121010392739247
0.118509340649526
0.119513702034628
0.120300801512089
0.121201547389624
0.122117598801725
0.118507728132128
0.119302438000925
0.119558816033121
0.118675011500191
0.115690002660067
0.116300152114987
0.116495877046541
0.118986607092035
0.118574829097933
0.117064591655678
0.114023037002107
0.11500165181553
0.114932123279134
0.11620348304833
0.113788752184461
0.113328650711679
0.114666889495217
0.115213237786262
0.111831248610959
0.112807335318738
0.114865288017921
0.112103962554732
0.11206790493777
0.111798577202139
0.111704784574812
0.115138406162248
0.113420552563209
0.113773178593237
0.109456277078478
0.112867297163018
0.107548603466098
0.108840160764129
0.109341845305989
0.109871634605942
0.105565165390848
0.109588762933392
0.107442618390531
0.107899729071677
0.103778104955251
0.108078812568448
0.10590625370629
0.107590612973238
0.101971600066237
0.106014642197259
0.105015622653707
0.106234829287589
0.102380958486972
0.106118290387414
0.103629667410662
0.106129794658302
0.0998179879227889
0.107728861346115
0.109991393333148
0.114798033237132
0.103838913305883
0.105819446042793
0.105119836416
0.104333254918187
0.102057261591166
0.101672761146236
0.0997374801532407
0.101603595725316
0.101926222735642
0.102596882337574
0.102355724012172
0.104017013359869
0.101323367011831
0.100971810757898
0.100641237173263
0.0995730259037698
0.100342492232911
0.102206613074252
0.0992964126229677
0.102529407171539
0.0991532165888548
0.100072059614682
0.0988157291119155
0.0995982260186656
0.101644455861483
0.106387537107975
0.105962722354106
0.101125925042129
0.0991496377759602
0.0987059928718392
0.0985276582300757
0.0994523254023744
0.097634309939914
0.0948409510717499
0.0970255546004952
0.097657359510801
0.0977328461733423
0.095705785345379
0.0972436142462526
0.0994872541259748
0.0957367236031382
0.097164443053315
0.0960931110855102
0.0939940955855607
0.0945717784749786
0.0962606574223823
0.0954604747314192
0.0941373988003762
0.0967054721252667
0.0931078836137043
0.0967277569415945
0.105123867930733
0.110004984436664
0.09850671155169
0.0940459454661832
0.0949046056624838
0.0911945255781566
0.0952361961968539
0.0925200546630067
0.0942959422617063
0.0910386834670893
0.096251310938266
0.0940486400713976
0.0929544493036086
0.0899430015251314
0.0922821551278233
0.0895283221670003
0.0932802177728571
0.088931616455506
0.0940554917543939
0.0919441248060042
0.0944285577783918
0.10171622055743
0.106681005113017
0.0964149457052117
0.0935146573174915
0.0902531199520649
0.100793802857635
0.102533018144449
0.1051370115232
0.0864120208615882
0.0991639478746218
0.0868719807965418
0.0961997027934407
0.0868105171606242
0.0948343676964825
0.0931735849622212
0.100164448281304
0.0915479435994353
0.0972008191991329
0.0915506047117043
0.0890124728196885
0.0897310362489776
0.094581241354228
0.0897059796354732
0.0926640373220538
0.092876931650714
0.093809209039839
0.0895634038421637
0.0951898865557362
0.0877685938802237
0.0946296446830253
0.0925161763469822
0.0995872885815284
0.0888338851494805
0.0937540010313252
0.0892309479472393
0.0939199381269639
0.102787727630013
0.105617897735534
0.0907271807044907
0.0912096154510687
0.0927740395227856
0.0896391541955827
0.0926628994893467
0.0878468779185017
0.089110999370761
0.0899918211725257
0.0877908193831373
0.0899410783133694
0.0903714330678902
0.0905252007371294
0.0914270736063434
0.0903727265976472
0.0922372156765547
0.0911247798290782
0.0889010527952835
0.0928304539029764
0.0853522804628048
0.102306149937622
0.107315391009229
0.118054199292917
0.102797673818739
0.104357985904858
0.0951635891049318
0.0928429739362056
0.0897721190463137
0.0928300071981905
0.0893361702213573
0.0938190702849096
0.0913512541902574
0.0929252998870215
0.0921425782675487
0.0926356877085832
0.0904124070116714
0.0912650399644494
0.0880623949698513
0.0911370951298453
0.0904369404993041
0.0906103895990125
0.093146576738834
0.0874732866131639
0.0951422075902188
0.0975037389586237
0.103166365541768
0.0895715052562389
0.114419937562302
0.117917213706816
0.115984369576846
0.0968505102876253
0.0975186049338275
0.0957294464542248
0.0913063330932888
0.0956741193579295
0.0954296579150193
0.0990500880255484
0.0955373503604851
0.0934289193933822
0.0952593445650353
0.0967646202635633
0.0918291053091965
0.0998717828610664
0.111507379148572
0.12026214141661
0.108333937781524
0.0918772538848465
0.0985596391890138
0.117087159302768
0.112840505390378
0.101224572772857
0.0932312883777135
0.103016885639896
0.0908115919801537
0.0993084842440595
0.0928304570940611
0.102092222225456
0.102597002986236
0.100015949186276
0.093562714402411
0.0980958580326323
0.0964525388488015
0.103028337643722
0.106221338934418
0.112667938099826
0.10537577332253
0.102457617711203
0.10245309742528
0.104861730121955
0.0961165213080577
0.103070739379676
0.0942873074272147
0.10537138731107
0.112024496752366
0.114459925840505
0.112521747099739
0.12089337979637
0.107744249967992
0.10512912566064
0.10492727896989
0.119516065960726
0.100898483894767
0.112776335865094
0.121662091235772
0.132423559289238
0.128551637918531
0.116384832655613
0.112680619974116
0.101687601924029
0.107673941657983
0.0993871731849085
0.121772211305031
0.114620200866063
0.116814509700667
0.0994429813398318
0.114384057058955
0.116102405244046
0.124426463007256
0.110909765268761
0.115687457010317
0.10637209689028
0.121649344087614
0.122560717939573
0.115002745892135
0.125325477485036
0.138192008841839
0.152499734098194
0.126770625350791
0.120349071371803
0.128420257615835
0.139971742948417
0.124366351275684
0.110291438955526
0.118704671793094
0.112290472220029
0.117905579624546
0.135548571104821
0.138878493189424
0.127335937209254
0.119852300342883
0.122618398383802
0.131881759880321
0.141211676952946
0.135684276241229
0.120565464325581
0.126554047575621
0.122493496916173
0.150463451455806
0.152144327052337
0.154277243747539
0.145501271686429
0.158725588031437
0.153141886417049
0.145592719711911
0.146153851616248
0.143279926885466
0.163675158713426
0.160120465505388
0.140349394926397
0.145990920512477
0.168687777252549
0.157365152703753
0.156382768310596
0.144269409773927
0.152978057071396
0.163284864161793
0.211511168959732
0.201314206693927
0.17988423594945
0.159961100623634
0.178568210041927
0.179719608145667
0.171631898863402
0.16133196581587
0.166573823928949
0.163207883092758
0.166965338788433
0.176211512287797
0.184535653535116
0.177824032508187
0.178161897598087
0.1785920030293
0.187322935904318
0.221249553322123
0.248947507881076
0.206599496557355
0.226038019308487
0.215867383646088
0.220933663687008
0.1947054701576
0.202351329016639
0.200547437893307
0.215523695964727
0.205821359164147
0.203533047340865
0.219129858885932
0.232295846763142
0.233881395634762
0.244605053875556
0.233284214055768
0.235832815182961
0.236264208106259
0.307018845634677
0.278604165238544
0.287443089952868
0.245869006887441
0.287945909673332
0.291152888249531
0.319799556617478
0.281503217625466
0.281936745563376
0.283739772478843
0.297888637896483
0.305447361098713
0.323723268556606
0.328168389637294
0.343853616019499
0.329600803719263
0.357435606769823
0.365978047192844
0.45507605390028
0.405115122138632
0.391693645337514
0.388029658514986
0.418899570456446
0.416062582708877
0.417635187715256
0.415538808635471
0.436251886990561
0.452291785630668
0.489380588993811
0.460748444635122
0.464411906716517
0.491790386450891
0.508467654700542
0.520564244390941
0.53547533052067
0.545761417662286
0.516174063234954
0.530954890610136
0.545092813916827
0.538795553777074
0.573779067555005
0.587834183309874
0.59570093116972
0.577482022264024
0.589162362684015
0.590299774179877
0.606759110451993
0.609873307111296
0.634956374671784
0.636055425516346
0.688418488034194
0.722660651126164
0.804975640370485
0.668917169632047
0.640403992660219
0.640679403610375
0.661002896071417
0.675263552923089
0.706641104299944
0.708839957850893
0.69817099411651
0.658291312296065
0.671769828719624
0.667171106614029
0.66339266499777
0.677524986088264
0.674187696494217
0.672551945030869
0.70395164217506
0.687663502415302
0.764740339321026
0.760403199865496
0.689217017899925
0.671669634031504
0.6723686905291
0.660182417631268
0.66951822075832
0.660081171421134
0.678055350015683
0.675411079164841
0.667921098003398
0.65815842993073
0.659240610269446
0.649165821568434
0.679712306717288
0.631781160559373
0.624481350444221
0.623838394128379
0.626256172094812
0.605954043841492
0.623100125853472
0.644817044978111
0.611774130229321
0.588435262880957
0.599459959312267
0.577553339276852
0.582998890715476
0.573297163530932
0.575054891650392
0.565007718725927
0.57437918537975
0.553678185768644
0.56969999151626
0.557357357338382
0.55509292065393
0.552875169099807
0.563430075960812
0.548569464202442
0.558849831790937
0.546971123482394
0.549632479584656
0.539504489068504
0.550483165022206
0.536331545987672
0.54567711704719
0.541333304154088
0.543572640185093
0.53443549248278
0.532494784723446
0.529563006892008
0.533788776037636
0.530962221975117
0.528712025166702
0.518165312518421
0.532892145711532
0.520713098591496
0.524959349559822
0.518473882844745
0.531207161888917
0.531118481120292
0.515301154468997
0.509929485413508
0.518665366253506
0.532319824466545
0.555990535958084
0.531178046917751
0.517318319591538
0.504342606897759
0.504485031070162
0.492463152559374
0.509726938782264
0.539556476326036
0.530027639158428
0.483228956427918
0.48547149831006
0.483734718284445
0.506828290881527
0.480625996954457
0.481722720821175
0.460439035860271
0.478886682327423
0.501082808038118
0.5677427792492
0.556638596102081
0.533308954844827
0.472153399867978
0.462698032218884
0.478124003841191
0.477510342591962
0.451873641268023
0.445348145638301
0.454999922911543
0.494506528763761
0.448554076263473
0.438468896706452
0.42899274775532
0.432677220922721
0.457372114475829
0.459858132188802
0.453352579725844
0.465597715875943
0.463469933147669
0.4691687248302
0.497668111321196
0.485080768880799
0.423372588362997
0.400528951483506
0.395981862164134
0.40052525133687
0.422768530300355
0.453730592320049
0.405534706443559
0.404497369446911
0.379519788678401
0.38258203880618
0.386323028228853
0.4016869410803
0.386463428473636
0.41333409843364
0.401124593338477
0.377690991220458
0.385229296808574
0.401198620993622
0.418969641308708
0.421044494341942
0.368337889659403
0.364830824247119
0.410212738494195
0.397687488001769
0.375160785521432
0.372623023924012
0.33662945589182
0.368943289472201
0.354313868573343
0.347838451263614
0.362111755624772
0.369295061020231
0.387729182119797
0.409724960771487
0.424898354491142
0.376311568182085
0.339187587290506
0.330101492193225
0.33172666375553
0.334861313072401
0.32312988942199
0.338773134371523
0.366408868989445
0.337478713104599
0.340478453005475
0.378932043637043
0.343619237417972
0.334024939362548
0.338588444261734
0.345599194853228
0.349114897500825
0.39108770458347
0.396881262731376
0.372593109610191
0.374782910937459
0.384323127747754
0.369161007674494
0.375454426455643
0.371951547397015
0.376417241325894
0.388978175969634
0.405057570903607
0.397531968784871
0.406931395620577
0.403318203155356
0.422922922270728
0.459162540451001
0.449666230550479
0.440859496794399
0.489252732984791
0.489212760052739
0.527057922143664
0.483093186056178
0.486201042615173
0.48855592688861
0.504117910112895
0.497359410654989
0.511707707540618
0.534301559612148
0.560203928475025
0.526800632862044
0.539949009277103
0.535131309732396
0.549586491454665
0.561159355647023
0.602021643736972
0.582818728889667
0.654808198600162
0.609321843889117
0.609349835131407
0.579368312001443
0.576964910850828
0.583988270158233
0.59837025629379
0.577163707917703
0.589547595877318
0.600281217911382
0.626054927832254
0.592478877492958
0.603720938555174
0.600681387907282
0.606432177564699
0.60359135766982
0.615095990160873
0.609764115873203
0.622998135146548
0.616833141392812
0.633051100188205
0.640914607597107
0.71078230198198
0.647956892806829
0.65265722610774
0.653269555718538
0.665897348590147
0.649771206217343
0.662037470895186
0.692195738509465
0.674918668526141
0.679297036647685
0.680990178663641
0.676375661497223
0.686434643753269
0.705247685435007
0.725072396079907
0.70084231730767
0.710363657145087
0.702112910106431
0.762712831163844
0.750244232375531
0.743009768175096
0.726365983706925
0.734050417903651
0.726675111725325
0.72260368460738
0.726132639453704
0.743070807495235
0.728508785347935
0.740601931391373
0.734335990362213
0.736481140836417
0.734848555606122
0.730583950230049
0.734014861146623
0.76828026867851
0.737185580235001
0.738920728794493
0.729591047321192
0.72828930075215
0.732461147001245
0.769594368474149
0.745080883063151
0.745843424730758
0.748301882451223
0.75083613212486
0.757270334294777
0.735275975300908
0.722883095726168
0.740240475817977
0.728755128713521
0.733948543952645
0.729390131669707
0.745355647318879
0.785372314133654
0.754870309982323
0.747169788952269
0.751496644272261
0.749658111284258
0.765465086628799
0.758001836616286
0.76236967199755
0.780848981042977
0.781575770937683
0.779763788773105
0.778348486293571
0.779407839968602
0.795832233874993
0.790391362392125
0.798602362511857
0.779904173627696
0.778119456564812
0.764558645119146
0.774159576036657
0.781755098519589
0.778960579732023
0.762132475876151
0.757264076949631
0.747524857592328
0.750717096104475
0.788387981905267
0.744198164737874
0.753545782271239
0.724195524890132
0.707443240393333
0.716315281317246
0.709026143981502
0.706542672064212
0.713728563320313
0.712469299120842
0.691052564838158
0.694000458890242
0.695319973678483
0.688056604357552
0.687469904550973
0.690550515943002
0.680895300510677
0.686349550878037
0.680588621345883
0.682990621472813
0.677399393034461
0.682853086543665
0.674316423070221
0.683799129230178
0.693667479286559
0.699593392718846
0.701530486456253
0.690237624452964
0.682984563594673
0.678668303610734
0.677931098273734
0.681035396189399
0.66959043361556
0.676128472428729
0.669567072389116
0.684645695972445
0.66167327390902
0.674211875587627
0.672804896773186
0.670072735618273
0.666398463960645
0.676496263298046
0.670865063648888
0.671470961377409
0.668319557953621
0.668394214763312
0.667103076395274
0.674548782219734
0.664192212384356
0.674205849332447
0.666606281390872
0.663260114833656
0.675072120263312
0.67532370634851
0.673619735238099
0.672085171914194
0.660070118012364
0.659576299576339
0.669795027648419
0.663175584825971
0.659967761584859
0.665772014798887
0.663563772830942
0.657689863554434
0.658070210886268
0.651570021547883
0.647495475620479
0.645395976625771
0.635963123490791
0.640871715761403
0.628863280111196
0.628571187722419
0.618179617972803
0.617951548422318
0.611461713833876
0.608944549718034
0.604119490141692
0.602863670152648
0.601462659481656
0.591976797327214
0.591104589753706
0.597852056677165
0.587230023844587
0.583233302893569
0.585261501944102
0.579737650274254
0.579962147810805
0.577571545072416
0.576892739565879
0.580934341397736
0.582519722389471
0.58367340490975
0.578522029705795
0.5885694906532
0.58348619594925
0.58967756777169
0.593707185267145
0.591293054334709
0.593649019042742
0.59281938199233
0.593322271481339
0.598704857735803
0.598071170531842
0.602276806367412
0.611470011994255
0.613233437364093
0.609112004975444
0.612501034144686
0.613106715689904
0.611946604560988
0.614595916798947
0.614177430913267
0.613161604611432
0.620727656856042
0.614928851621513
0.614773773100725
0.616071319245133
0.620604313068903
0.615353026422533
0.61052483392993
0.605692882754651
0.611505069570357
0.607299613683644
0.606607015913832
0.604733179126733
0.600468704930573
0.602159676998241
0.602444533668796
0.598589850712103
0.60217761309696
0.590885828923676
0.59019025596894
0.585619808740584
0.590561959938165
0.584404156579525
0.586516399099443
0.580256504659995
0.577158461190873
0.576122847316301
0.57891722092221
0.57608541874758
0.576980187331218
0.570789104507729
0.570133236693894
0.56734446833313
0.569550806695764
0.564900627397814
0.565741270335981
0.565339143418371
0.56559309319828
0.559542948911253
0.558781393008614
0.557227749374394
0.561204567377898
0.55269796770993
0.551220936000333
0.545095924237059
0.54223103355265
0.53583571373867
0.536212603357644
0.528765972564669
0.53328096369506
0.522944222860907
0.518933894179699
0.514125808086089
0.513143052069287
0.510447697346215
0.513186304474007
0.502000562498587
0.503622421061125
0.502973044904695
0.504040736892327
0.502136040956064
0.502454032960288
0.498245987027715
0.497707043963515
0.493736521071085
0.494345984955961
0.490926264513629
0.484799102112776
0.480825734137027
0.479147616014884
0.471377173228317
0.46451893961111
0.461743336040967
0.452136576985761
0.450113907132155
0.444148627687416
0.442827914963489
0.440069833712447
0.436764844743717
0.439921554319381
0.441222739614322
0.44058857961814
0.45012966657497
0.462277623097989
0.46849862492374
0.482973932497046
0.490771325977792
0.508445444063187
0.521444558224362
0.541946602297638
0.559425664400945
0.581120920698947
0.598701350711228
0.622539567469034
0.638818440672981
0.658615310662818
0.674824343365351
0.700873892340038
0.715512063437821
0.735041453908662
0.758348659498977
0.774371416835951
0.788402801038281
0.810621392636279
0.828353938729631
0.840604687038242
0.856441187273488
0.869921023486334
0.887380355427091
0.899989775480612
0.904320061789869
0.922088845422287
0.921880021770486
0.933058780327484
0.952827646612911
0.948300565799846
0.950889245418605
0.960899040719402
0.94362200418781
0.945742984112912
0.972089502415887
0.956161872190305
0.957614618104677
0.953412228595457
0.963039416881006
0.971688699785662
0.973377424179883
0.96052323483361
0.969461558192227
0.972087894320989
0.982586799262982
0.990444989935103
0.993261877987904
0.990340778992241
0.993562834081075
1.01579215451321
1.0109234841889
1.01706783126238
1.02971089306095
1.04667604565128
1.0670174273209
1.06507229304232
1.08298079829758
1.0904716541933
1.10204703452625
1.12605632420744
1.13865016811752
1.17408027845869
1.16889541989429
1.18918569841037
1.19366071061326
1.18855027243182
1.21049742967899
1.19103172044431
1.21591262219496
1.22619237493204
1.22423678831777
1.20377905977349
1.22355654049475
1.19263765637063
1.20143863089435
1.20627772342004
1.20105030300327
1.16910620365657
1.19317971348374
1.19279491262786
1.20408113559024
1.19814198050329
1.23546817149899
1.22626769345043
1.25695671819727
1.26989316562559
1.3079569301464
1.3113889023818
1.33815774359508
1.35537723323597
1.35834466173126
1.37001471137474
1.40600272529136
1.38511973221529
1.4640798618402
1.44020655782784
1.51786304483001
1.48096479051925
1.50339747220214
1.57984657814225
1.56495433182296
1.56668303032437
1.61090620038976
1.61400234826697
1.6899218002828
1.63644125666019
1.68952622930504
1.73995524601461
1.80175897279366
1.77024303239499
1.78653079752948
1.91639360984245
1.85970685108703
1.8771092963154
1.91789176930559
1.90474484823633
1.89326412129422
1.9028504040631
1.9726366975941
1.83252055630069
2.02099049172896
1.97734377434653
1.91173107012979
2.0008181927927
2.05894295987633
1.9348263883305
2.0195619940609
1.94717800029375
2.15342307662588
1.84055205411771
1.95224410242449
1.81364906266219
1.96749306735331
1.92359355430977
1.8642624897697
1.95722325256059
2.03826868774707
2.00362779358987
2.16806748198738
2.07233539376516
2.16606093982173
2.08311779543835
2.0746797837807
1.90079785298095
2.1183661361258
2.23379150939026
2.59705361419219
2.36412263150852
2.18709043422871
2.08109764088913
2.29684015520832
2.28413635246836
2.17937441837765
2.05629884175929
2.49677473309203
2.04875411216406
2.38210389363804
2.21197752648209
2.49706105726295
2.12091789976885
2.61863477117914
2.38321534906528
2.39110889770366
2.20604148660025
2.21936018554969
2.57752367926486
2.50594303157083
2.43500409070018
2.35077452575221
2.25286163890606
2.23068692931892
2.72406321245147
2.25969492149798
2.170442267612
2.61191581837928
2.14755190504743
2.3232575840291
2.13401767639918
2.32619559412105
2.15148566391942
2.25954205158694
2.09265737505564
2.24170344742306
1.93038646577726
1.8494446214962
1.82206298756864
1.89890437344263
1.75816208499971
1.70733948360619
1.69507245278489
1.67553257497462
1.61922888182977
1.65468957549499
1.60475624821729
1.67872109161809
1.60315295542519
1.56864650192098
1.56979645292548
1.62682802045164
1.52648135510721
1.55481127268545
1.53668736939734
1.55272066254494
1.52041182666861
1.50647086815356
1.44679286862333
1.47162904090592
1.39129231761929
1.41903810137952
1.326364455059
1.32801924949215
1.29927352158288
1.25538200405187
1.22074756114366
1.16825989374051
1.11683055312669
1.09747284601612
1.03974785917931
0.983629995674548
0.963141631457446
0.921544927024189
0.870932187903225
0.843703379159173
0.804203856480486
0.778206593012653
0.754813508576086
0.722813643354313
0.704657168382168
0.690629611241315
0.655114965648196
0.652979779689525
0.639574527697147
0.6237457067573
0.614525302122424
0.607648196688266
0.59503987064697
0.59499589470385
0.589058201653034
0.585654501986952
0.577597011800761
0.581366666651917
0.585796205463104
0.588698306147121
0.587020204387303
0.589778646446784
0.586951893046666
0.591771550905032
0.59197078657054
0.601969351530982
0.600390385919464
0.587999114475843
0.598076192194479
0.595949641085009
0.587350008533838
0.593817746072688
0.581609074295637
0.574399637470969
0.566968199691499
0.561973138734933
0.56946949468202
0.553299596219385
0.546899659218359
0.554442839878369
0.548442149677157
0.556308670532529
0.550404170582064
0.556466474486798
0.559217367637839
0.567440896903541
0.570827024466015
0.571079062043666
0.570965490593991
0.581411777016427
0.582901249266617
0.580061176946029
0.592763241325948
0.591834235655956
0.597036872952058
0.5846484519484
0.597868061397503
0.603715093510615
0.606955488948812
0.623551109850463
0.600913978282762
0.611196863566105
0.606241894898192
0.606615814364567
0.61629563450933
0.617778526615448
0.613474227993253
0.624196231190676
0.616495676344321
0.636173273508139
0.63886585803611
0.648313021272873
0.654143836631367
0.678526280440556
0.668006429919255
0.690546996335966
0.706645507861744
0.73881711320837
0.751859752819819
0.783982443204623
0.796886427345605
0.795774086355185
0.813422446954149
0.814814453178331
0.815939582984672
0.796596838216459
0.780512843086719
0.812987052595403
0.797782988147975
0.770299070914269
0.76858596752589
0.760954595944867
0.738021240047277
0.743198175213975
0.730361289686092
0.738506472961711
0.724877772693352
0.735564078311664
0.735838939383206
0.745392782175274
0.741901874777382
0.751707667797204
0.758362821710006
0.740969763392394
0.731549434657178
0.730516335199459
0.729972337397658
0.723378812438283
0.710825939036064
0.708502919192974
0.688328411283266
0.69124402598589
0.689993780607505
0.694156443726141
0.676943940900662
0.697519267300269
0.660902998587729
0.673782628896946
0.668620987963863
0.682196108397363
0.676202003794828
0.661261629824716
0.663431266884939
0.665735146868808
0.65594488040237
0.647198794697036
0.657510706500599
0.649234320325134
0.646839017509426
0.652930066040251
0.651497779998467
0.64416427003402
0.640767501610054
0.641667086230434
0.631063945967316
0.643175961363761
0.640059156082434
0.654942220903903
0.634852746062384
0.630425068002014
0.617104692788279
0.623134704317881
0.616397970513868
0.630050613883189
0.605430533559996
0.615519505289119
0.618845503113491
0.620783873656781
0.623359006950701
0.612471228313168
0.602664734883833
0.615129902069542
0.606635156913765
0.60604625009023
0.630585274171848
0.626983876652378
0.615473663165394
0.631423887636416
0.632643744626942
0.624618822277778
0.623767579665589
0.645812770415457
0.633577193695703
0.628808105401017
0.629488265545663
0.636360822749711
0.632425086678669
0.64459580710426
0.648227429918819
0.66336428200314
0.665491771683042
0.663793838424709
0.659286428540894
0.639493185111401
0.659708779001404
0.678328236273327
0.670501510895956
0.699433521659514
0.692176149941449
0.730761259305549
0.730789469541767
0.722830737473994
0.722873234431613
0.73804263851913
0.708867779223221
0.789424756229391
0.753413495793835
0.774297072133814
0.815893002976041
0.814865314169093
0.822263696719352
0.901535501525675
0.896098554722996
0.930416523333145
0.958871646719241
0.959005736826008
0.951563955196761
0.983894791736327
1.0466782281045
1.06197887025741
0.98858167835094
1.05640653033646
1.02647472040775
1.07502175734216
1.04692727101383
1.06160779860726
0.960225003824763
1.00458406003554
1.03065566026454
1.03594893451052
0.951700745440034
0.950462476787649
0.967797658450648
1.02433085916831
1.02849341333445
1.00410480574988
0.97107205141124
1.01921285915577
1.01440314950289
1.03638121977244
0.988816559099508
0.987448889167512
0.951312491982492
0.941963513368368
0.968154391901624
1.12273067305426
0.89434099507304
0.906423420776549
0.958232650780294
0.956264306246154
0.924439073390635
0.976351617170309
1.04484767397699
0.916423061350219
0.95626694034508
1.00632938709765
0.890909976657769
0.913593181859904
0.959844676438387
0.933601012355569
0.974090250634095
0.986305843562081
0.90750731487588
0.955819400073433
0.958104390433152
0.950241829631403
1.00049793975481
1.00191141346607
0.947639487744777
0.996537342205894
0.992318292512988
1.00304938155145
0.971702571237171
1.06490536078944
1.07768042261954
0.939273944798007
1.01010435936199
1.01969349671656
0.962308643312758
1.03303201544849
0.870403537485102
0.997913439556232
1.15494024506874
0.993685667884415
0.989807777417509
1.0584551059259
0.981851735803642
1.06968568599889
0.8903544281556
1.02348764497619
0.977626601409241
1.0529270952779
1.12874858579695
1.23619250803141
1.26769120214642
1.11596165956334
1.26215353196093
1.32393369074057
1.14217212157757
1.09452954573952
1.22788780251343
1.46296100361368
1.07770622160142
1.23832326502998
1.34757723551823
1.47014626715915
1.86225152512314
1.35629395499177
1.1438037058046
1.60864280423249
1.18046837234323
1.19266984842824
1.21064070315537
1.05698514265411
1.39565208794499
1.47121897731682
1.1064286610368
1.21181647272157
1.23995256629052
1.28252050290955
1.49259834385815
1.51875422326165
1.21443876068798
1.24814487117686
1.46429380227964
1.39254987960789
1.08897346798802
1.36205342857537
1.3842689112354
1.31430283160457
1.17062940010366
0.968328198133921
1.0794624860868
1.52525553510455
1.3458083231477
1.3407317796819
1.24665153541085
3.75489850424087
5
1.28542255940624
1.13591847159072
1.3184275182789
5
1.34400453713788
0.928019159996647
1.02891047111442
0.745526341828675
2.01054277052341
1.54585835868864
0.884686677981706
0.964129588998997
0.747191600269198
1.92811010104783
5
1.3298838103629
0.977794293851651
1.38451507589092
5
0.808140621856903
0.874692077707596
5
5
2.36421157089666
1.28863458124983
0.55609521769702
