3596
4000.36533379555
650.420452594757
1
2
2
0.0740836460643552
0.0851304431429562
0.0786109636586244
0.0898021943671747
0.0758142857037358
0.0782860852949255
0.0677600891366156
0.0805694115662615
0.0682583878631895
0.0843313472442089
0.0725855241793382
0.087448312028227
0.0674960474317383
0.0858658973349669
0.070215481822891
0.0870357765923179
0.064902958417625
0.0814862442229369
0.0691227768255435
0.0849636975002483
0.0676184643043269
0.0785309237069143
0.0697940344578827
0.0770437799057887
0.0678926170259591
0.0920249295643162
0.0779593201091182
0.0801255649883595
0.0762919525678152
0.0812560970674961
0.0621393131383947
0.0793324820614791
0.0757936408089577
0.0878458003540999
0.0693442742483558
0.0804221762119234
0.0644139515138206
0.077482697632023
0.070250556421888
0.0862305568070568
0.0715701445714245
0.0823853578776439
0.0712594053142264
0.0782728479901642
0.0751349241541247
0.0786006107065338
0.0735308346084785
0.0811901566193288
0.0736691527471968
0.0827891242220547
0.068335534283424
0.0894503740595716
0.0818100805162285
0.08849284428287
0.0776931985886344
0.0972836949804431
0.0739381065485807
0.087212151639656
0.0734070684549548
0.079279658268345
0.0871934601476655
0.0852902645224514
0.0608464543328955
0.0802600970285647
0.0575202418222586
0.0810714836380488
0.0609616449789358
0.0781331420782208
0.068871769613093
0.0835191279757013
0.0699801970970241
0.108340183800718
0.0787565638473477
0.087714191102736
0.0754462773262395
0.0883256034480008
0.0694739212889626
0.0783830475664898
0.0615139293649219
0.0961064390447139
0.077697728509852
0.0858900178819953
0.0697403517572759
0.0771502155512997
0.0808287155437658
0.0903152743540931
0.0593686410320983
0.108298560724754
0.076669386752918
0.0916520461324098
0.0658818471682374
0.0836834861980633
0.0585351174568092
0.0701534527564063
0.0596385647716643
0.0818239309950339
0.0514545217024065
0.0846605202903012
0.0639196022924566
0.0860484421001256
0.077504502775807
0.124849657057906
0.0778581671376644
0.0826794828166259
0.113216767338219
0.0759437640101867
0.0892810591294587
0.122253052416746
0.0642203407192707
0.0826193881646322
0.0639795114916523
0.0812228911206411
0.0720789611814538
0.0872504226577452
0.0651310537051846
0.131402323779374
0.0779661265790057
0.0771301900766084
0.0639563331739733
0.0788517420265732
0.0647465453896081
0.137210002241242
0.0722478126495575
0.0805023562977146
0.0653436279201538
0.0709945099437299
0.073434626364552
0.120946155766395
0.0707036851357205
0.0834386052730866
0.0628145444612029
0.0761709168100817
0.0578518832162511
0.0974279563504622
0.0933064813036271
0.0759481654709966
0.0702171960876914
0.0871290451896555
0.116435297523351
0.116979700993109
0.0644589535146382
0.0789906773976156
0.0606959705209775
0.118036099865133
0.0910469844524516
0.0791257003801377
0.0673555941979666
0.0990679411528231
0.059752674877389
0.0753192530512327
0.066235177308251
0.0860370338136397
0.0855810138226701
0.0894327785989621
0.0738780655260728
0.171244151589824
0.0885447518736153
0.123839111067454
0.0884668779670636
0.068979445748286
0.0781012124802
0.070417454764185
0.0683423676866944
0.0634171767336361
0.0719045158045336
0.0719774883193026
0.0904651608000057
0.0851932055271858
0.0685713892420712
0.0976427136322976
0.0873722693214867
0.0967794661432632
0.0728438071162679
0.1349516684383
0.052868686805356
0.105835880707747
0.0846289480323633
0.0797290768163696
0.0598073868725814
0.103533986985237
0.0744096329769403
0.0747850347182166
0.0639623934200199
0.0779444498645476
0.0807428641404729
0.0945130064223923
0.0612070422563045
0.0779144436320276
0.0654486314859882
0.0748847123836784
0.10081800854679
0.121008026996345
0.0804818394332913
0.0811296719035072
0.0721780518337078
0.075101968148826
0.110884889389744
0.0786675451172965
0.0660001000827751
0.073755198243844
0.0587782602074446
0.074498929445314
0.0501684154151886
0.0697591740734111
0.0588522222046868
0.0969648200179278
0.102621125253047
0.0766819627644739
0.0672954355021643
0.0704016211444888
0.0764429375234267
0.0945314229612485
0.132730400001059
0.0786358323748857
0.067323237417683
0.078741893487187
0.0684892420599865
0.0968152084815072
0.0732979558135764
0.0736816667554612
0.0613031117722566
0.0704157514515736
0.0673854433569955
0.0641257552518073
0.0616060056517169
0.0725322096108847
0.0601183415695412
0.0747204035790789
0.0640866477602103
0.0733080910072117
0.078885581820576
0.070004441887591
0.0564653226852631
0.071880390230712
0.0623427577434879
0.0942260196087247
0.0689828302436172
0.0704907828289384
0.0609092786697509
0.0701358515408078
0.0644931650280587
0.0667327716924556
0.0619402201407586
0.0712219945634404
0.0656817093783694
0.0862877274768396
0.103486902586763
0.0737726075285279
0.0726949489387856
0.0669931211426667
0.101503265755219
0.0705208599916013
0.0696481068503353
0.0719366181932656
0.0740393363077125
0.0668112208212633
0.0838553612426588
0.104515520566075
0.0695487682066038
0.0799053417327234
0.0958575768767953
0.0732774453137802
0.0719163072228736
0.0898699917024163
0.0846648497692998
0.140897834305434
0.0737857739133266
0.131379892809929
0.112228083388664
0.0822358149368522
0.0839227531659705
0.0861050506572891
0.0963592639199428
0.181197202360554
0.0837941415697047
0.0829421031891408
0.0787899512928106
0.102025016882886
0.0604086451260001
0.103913313621078
0.0715280944202834
0.108030473294747
0.103229720577425
0.142545170118889
0.113981667987009
0.0788508597255711
0.124577524328342
0.0754625940610591
0.0721851422101226
0.0812116692553065
0.0675042706198542
0.0753876213690728
0.104153607669816
0.0861659302529031
0.0860716259507748
0.0864530474950242
0.0885644250132396
0.112740866200293
0.0740537825974837
0.0862598785860845
0.0837853617947508
0.0913640769011018
0.0647763908315453
0.0801691926846357
0.0726213703171006
0.100895886349406
0.0750338182404558
0.113642416444889
0.115080400939943
0.0941971978863137
0.0921778549551508
0.106154217903489
0.0714587239119826
0.0835788876621307
0.0721925151177013
0.0849676161115657
0.0751002734695237
0.0885640410672413
0.0834495876866801
0.116180573828861
0.0629386977990356
0.0882603600235518
0.0772150140005565
0.090525989655063
0.0809581331647723
0.0857788692368886
0.0791574500826798
0.0868050018424261
0.0763208040731264
0.0912342083200879
0.104384100524181
0.113820008129234
0.0811877003138535
0.151406005475727
0.0904121496261737
0.0896745445675022
0.0835196435799911
0.0937222111779392
0.0931698834486463
0.0861342269219185
0.0860699720070332
0.0982437505522049
0.09701429625721
0.11447650677492
0.0978694100495426
0.113040553538711
0.133619600204126
0.182287750179451
0.141222906040944
0.0987053018133165
0.102804816414761
0.118141161785141
0.166229508530758
0.117734566298668
0.133543009787647
0.135889577368574
0.0968993530852097
0.120841804807704
0.0970967059303434
0.122578053308544
0.100019029228238
0.126166986626972
0.0999239434684311
0.125298482068911
0.115066253161853
0.131308764923096
0.114920335843613
0.157678096889004
0.155218978309262
0.135491529031003
0.118313307211204
0.145002834568539
0.132044601600332
0.199206386043467
0.159385018013026
0.238808783829738
0.153164420721642
0.201827196027879
0.178700352906285
0.144854879528704
0.152136693227328
0.15611411867771
0.157482726186618
0.165033594957286
0.165627676585599
0.162987311569625
0.160369740521065
0.172409675365004
0.159804851699031
0.166347422488222
0.170651798323952
0.180291295678176
0.192348124377373
0.175008292989603
0.179269816561042
0.204185037175332
0.240777781810734
0.250883080302794
0.21209395952479
0.195263826132802
0.213399991141107
0.205877842771243
0.199467493012974
0.211913220762663
0.202841166852753
0.222871448607485
0.220113375054975
0.267078928645351
0.225545171615989
0.250398819245587
0.229841698955077
0.234504762393594
0.265228089643117
0.254243412385947
0.258116761032558
0.284802076349998
0.239851826189599
0.255786938871846
0.282496850194826
0.265211062683229
0.269901949437927
0.297004457833707
0.243171985611932
0.27134807504942
0.254058556084913
0.283802282045767
0.253471098871145
0.299348080629722
0.266182604990863
0.308126238163693
0.290642314010587
0.306491798727429
0.291848412160772
0.33519226495403
0.284513384916322
0.313934536599132
0.308717203093953
0.308809989225769
0.310589808732737
0.310715761436208
0.342749825696536
0.349915912746322
0.359600184503128
0.372041666310505
0.322577356539872
0.346466865371949
0.333844593888169
0.361258694976207
0.328995238031894
0.363958010881136
0.348450625020496
0.364728110452999
0.346847634115649
0.388434862338588
0.352778928373158
0.39499241018639
0.363331747114578
0.391276561069363
0.379244157733665
0.406887343790275
0.385455089103385
0.410329748140562
0.442766864902952
0.451794744643635
0.432303420659727
0.460812408334072
0.413325298704097
0.460787956648174
0.402346593513408
0.442183579463833
0.418933486029336
0.462389861511896
0.438836558653002
0.455929676251685
0.438518481134386
0.474404090960707
0.428920283411784
0.485012405137156
0.471815702523112
0.496524596830269
0.477095050840677
0.486895442903319
0.469183006708927
0.502752861015392
0.513126101798675
0.512213576051554
0.500923776529129
0.558951942443334
0.522864812430197
0.527010475820832
0.51389793650911
0.532704872482618
0.51256113346401
0.537328181297798
0.511669162521066
0.543000681958082
0.542970868554259
0.593315017294445
0.56877600048775
0.581602175777956
0.558616329929134
0.58816597978903
0.576761363279733
0.603207191501753
0.582979715059306
0.624483757637949
0.600127815891042
0.624149617311709
0.57490553185078
0.63548218230305
0.599260344818808
0.656567708498071
0.620380898395216
0.630840583493633
0.621232618773301
0.678601386235933
0.641562232319793
0.701580079089526
0.611945202384356
0.658838276862288
0.631630378952427
0.678518072968247
0.657193415880273
0.727777308684234
0.664442316195495
0.743223829969824
0.704303774566506
0.695472287166334
0.692640305700377
0.740948884896814
0.697305918030369
0.762815127718789
0.710369543757774
0.753697785951264
0.72127345295642
0.764435262190133
0.73688824017382
0.762152282189982
0.726214743509592
0.784529841856789
0.73986467058012
0.787633143904294
0.789796036913745
0.786053856174361
0.71433632793468
0.837128713453555
0.783201882901366
0.837919832964247
0.820988539823054
0.859351821478626
0.786487331820323
0.844291776948931
0.783353391440652
0.879386214721162
0.839425649644273
0.878427613333389
0.846159502686272
0.833883065844911
0.792851985395885
0.854045699504497
0.8596973516612
0.904980395994369
0.868609115288142
0.866302340948406
0.874410359669257
0.917227905183515
0.876364954175948
0.926325942768169
0.855119420105991
0.919790701632159
0.845080475976701
0.923903648634748
0.909841616112325
0.973445453532574
0.912964485995534
0.961448103470803
0.936056105885208
0.930131071672867
0.887600403222541
1.00568494780427
1.00333215887364
1.03198587615465
0.988503346345678
0.964730574230933
0.967834499143036
1.04698062111678
0.995966081880319
1.06133191559435
0.965066725349217
0.998155329995811
0.991660383752924
0.98800921909948
1.01066964957952
1.1019353581474
1.01089256542307
1.06995496067911
0.99934144115141
1.09620672193873
0.97344060693925
1.0865249454756
0.99891626015437
1.04226038244189
0.966648711174396
1.04874519987215
1.04897128861856
1.03090160496162
1.04947775667651
1.12917581166085
1.04225924520056
1.13407785333816
1.06696327601264
1.17920501702109
1.07518780228691
1.14998123916529
1.15064725900111
1.15924100944817
1.15373754496819
1.1921016860845
1.05224058615354
1.17791559145207
1.09392257989525
1.11149671753354
1.12249064170973
1.23016350817706
1.14314468067837
1.13724213300526
1.15893940477452
1.20405033036579
1.11903878038251
1.20773954001184
1.19813922249289
1.16183963972425
1.10560795972213
1.21400957305912
1.16219803585904
1.28077517094316
1.12877054247068
1.272192727124
1.15758783301427
1.19013993163029
1.11216887378719
1.1477141278677
1.18154467010203
1.23725197154631
1.21915951639311
1.32940891682102
1.17943342687363
1.29379311237964
1.18890264830198
1.26087047417631
1.26328659653741
1.34553152378735
1.29566782532839
1.42828949496181
1.28366613032511
1.29201843515307
1.22595433606173
1.28627413103076
1.25606291680654
1.31622826263647
1.29286799644564
1.28943834296049
1.25420796211356
1.27152908504882
1.31467934320999
1.44776438246885
1.27868391961594
1.3361674077976
1.23140505506756
1.33293961804429
1.23825888052618
1.27136170446921
1.20450066794882
1.32088721912888
1.24354704121721
1.41511023780766
1.34078337739663
1.38685282036052
1.34401801607541
1.48253400113262
1.37239847049169
1.29907529949781
1.27645264498349
1.31709347126657
1.32630145379633
1.37685391346155
1.36336965287444
1.37734872523502
1.36118888685327
1.44471981525566
1.34648113045486
1.39002379755436
1.44629931378913
1.44752009002398
1.2743326565389
1.37497133291028
1.4517585179804
1.51581228341177
1.32016291816479
1.38195112336151
1.32874411544952
1.4201046228521
1.40396770841864
1.37723023642469
1.34294923494582
1.43791908519644
1.38512627927321
1.40684345066525
1.30668513900269
1.35956402373613
1.34130098535587
1.42483182288997
1.44463976443811
1.41559189992303
1.3289645572938
1.34155866343157
1.36106651645002
1.50818265771864
1.39019902760584
1.42076607467598
1.38135429629213
1.48593000225655
1.32988530142015
1.42158721571353
1.40184617592542
1.46967619077655
1.42626559304626
1.42243678147982
1.34963771478062
1.39979276915082
1.37387147398601
1.41047223955844
1.50612604174245
1.45889792751573
1.3476268930519
1.48486895220079
1.34947810863004
1.42644397293903
1.4458349177294
1.39349135183132
1.48112237421421
1.48150029109141
1.37815137293138
1.42597559491701
1.38185183400024
1.34981603148168
1.36195255887425
1.48129647066235
1.41876993767118
1.47701343197184
1.41340084755539
1.34982379384514
1.45411469335232
1.50384215431146
1.3315515669088
1.53381925968224
1.35087029643687
1.38480007805381
1.3161894114108
1.38304007566432
1.39017703540826
1.35554599053403
1.28920816776447
1.45391746025911
1.35648473986978
1.45841513427344
1.42432198422809
1.32565027032006
1.35163142597431
1.55622582800938
1.48224305178665
1.50834083069562
1.51312363200609
1.39700695528276
1.31597433301987
1.42923934617473
1.40201415288524
1.46125544290654
1.41764849217649
1.44220909529824
1.33272665305725
1.43554365642161
1.50947098049268
1.51669849196159
1.41692359640381
1.4485580241736
1.34606691850496
1.42931419647863
1.37927462432015
1.42551718858165
1.39398499496681
1.37524843951859
1.41515437546889
1.43777492998768
1.2903175370189
1.35597628753822
1.38791624061174
1.37408152020342
1.27729941491789
1.42762912490274
1.3778453795892
1.37731904295502
1.41017723147966
1.42990407254748
1.34479959998483
1.32805799042137
1.3379594114557
1.39516491340883
1.33531710540192
1.38387494898761
1.4036608659714
1.37322867487344
1.32383722909396
1.37843808598521
1.31150655998413
1.35195833461628
1.38081595899996
1.32069160676107
1.39578548266842
1.355855683507
1.26366101623783
1.31674488900473
1.26676433339839
1.30358003197388
1.2914725051668
1.33455849130085
1.29702804169397
1.3202689059395
1.29442676976925
1.39340397648053
1.37908804228689
1.31900717175929
1.32290246425501
1.35282395238071
1.26782520387677
1.3462584670131
1.32598560217363
1.28387821165885
1.24554101716115
1.22979790009824
1.25837391087895
1.29289094828233
1.27675831087436
1.33417912444861
1.28115043842988
1.26031211347418
1.2979858422058
1.28732952094807
1.25987170168603
1.21541842902335
1.19618218912497
1.29279871396334
1.26371715657484
1.2171153477964
1.22441963388097
1.24856199368779
1.23250283074658
1.22143063423934
1.17389635978005
1.17963551516624
1.22048381314844
1.19928823631665
1.17403672660183
1.23783260879753
1.16271049865715
1.15680968132738
1.14969135564079
1.21980690808802
1.17400177743832
1.18068923020782
1.21213310561873
1.13757476123071
1.13999436607359
1.18634303772496
1.16057524946079
1.16374160984715
1.19629264498822
1.17945087310932
1.12048175653278
1.13325439599864
1.09531741806378
1.1342037413243
1.12145487694041
1.12635755110419
1.1332936944231
1.11432205777989
1.09439761800877
1.10277069462256
1.1132426528435
1.06141217464517
1.04376208634397
1.10380462662447
1.09423074057781
1.10087716305693
1.06649284570843
1.09157361144362
1.04112873999498
1.0130820436845
1.07359830656844
1.07601644725188
1.03701469026499
1.06556549787085
1.05604382811234
1.0258978852285
1.02386586780105
1.01932696119184
1.03809901873203
1.02704657204489
0.981555580347002
1.01009399077763
0.994128202297729
0.982852143182223
0.988386493106147
0.990216029146328
0.981373390109118
0.972689269278355
0.945270882111193
0.962270338496919
0.975756838442108
0.945299793062619
0.942625322336365
0.942281503708762
0.940214267856787
0.947039398316687
0.924979285693608
0.936045954934792
0.92979812724133
0.922296939562201
0.925818606639896
0.918505677894662
0.899313531804071
0.900217965822363
0.887196061187214
0.898501721544375
0.897176335003376
0.875015779108885
0.882910135003967
0.891548039700658
0.866462528932699
0.872015064418477
0.87449686878241
0.869682436121505
0.841157165276212
0.850366146651803
0.839514816035148
0.851755196386925
0.860780840520331
0.828648990722486
0.826784716322029
0.826965457666404
0.819281372602137
0.813769750823411
0.803503049582198
0.806454930210635
0.807877389706512
0.791259108675007
0.789047708598542
0.809212332430474
0.786025038182587
0.778231307734869
0.791813216618626
0.796781431172224
0.778643042415743
0.788987602402952
0.769922809088219
0.768026987406603
0.755670773403465
0.745134711999347
0.755472745267276
0.741112344759601
0.742519910861929
0.744746924880388
0.73755626015141
0.732700449410817
0.722412290847077
0.727138333909238
0.729728106838265
0.733916392663172
0.723033821917099
0.712061066271754
0.708451141056743
0.72029155527113
0.715101334696191
0.710129519146897
0.705784022594267
0.692076117394775
0.689459287562544
0.700528487427794
0.687748556839518
0.690795552404288
0.685215963063763
0.676741508493274
0.672906408190959
0.674294594797176
0.67270384561177
0.668472545593423
0.658267770368451
0.658208208337684
0.651866311458688
0.649091638389008
0.65677957340441
0.659727623279391
0.656873016066918
0.640085979533019
0.646068669999864
0.638995309075703
0.622932854490704
0.638049145758415
0.63101679604094
0.617798283605244
0.619066790464971
0.622755301059687
0.624251640573622
0.617237341753062
0.602182906653247
0.603069363517819
0.60066047406102
0.59395439042701
0.59716039627441
0.601594419277435
0.589067448035652
0.591397316161379
0.579994312993409
0.563603772314111
0.572297688372311
0.577428774230351
0.567620887978387
0.570478712598747
0.575900112913137
0.565280512369181
0.558678611186778
0.554197679975173
0.55733250368191
0.553437553445328
0.555427269972044
0.550018310875321
0.540303958959328
0.544092788597699
0.540419355462602
0.533755010850213
0.545176611438083
0.548038430074996
0.531168707813147
0.528365680566213
0.52413860863358
0.528543099964521
0.526012013407291
0.515813761348826
0.518380879381173
0.515822089719314
0.504737776903169
0.508331109737598
0.509462619793986
0.503330558345865
0.49357722555925
0.499440881659676
0.497520259866902
0.496712029820085
0.49141583132932
0.491495610530733
0.497358157831393
0.498755010756658
0.494646104600951
0.483830995646573
0.479544419818332
0.481890807167024
0.487107802102118
0.496549260074385
0.485406537533901
0.479333162434829
0.485109215883559
0.471226332841346
0.480489351746275
0.47487495727388
0.466357191484875
0.472840350814453
0.475646792873999
0.476067294643544
0.467223534477385
0.470845221459894
0.472686536232149
0.467972933592751
0.463960159446746
0.467724003421567
0.473669829910709
0.470491045779803
0.470042818224095
0.474690712957061
0.479199200991728
0.477183437940969
0.475003346415546
0.483265264829111
0.467185983228405
0.470606314261014
0.488419402143584
0.490768204729144
0.478290056172798
0.478150484301561
0.487420104961677
0.47900032016834
0.48764016370927
0.490553173098316
0.494519403890898
0.497629242948937
0.499157929285708
0.502290481324125
0.496830774385711
0.497849831623756
0.501745314550925
0.500981176830042
0.509983587011853
0.503727446663168
0.507007038460479
0.510839299952999
0.517031673291866
0.52076330340053
0.516907765469623
0.522960655047467
0.515681089849137
0.523948890544014
0.529559624099748
0.534108606766533
0.539289751770621
0.537778328212876
0.542075369335704
0.549673886860952
0.542404078327435
0.549839161595854
0.551345412720079
0.544973316058919
0.561037834440894
0.578846729216109
0.578848828071438
0.569881577033455
0.569862259156665
0.577483396920848
0.589900822818048
0.588721849639201
0.59762108974531
0.600222143673339
0.597342621274285
0.594320437942518
0.588574431063485
0.60004457696141
0.597943422164158
0.609172535401158
0.62204441062914
0.608918104009653
0.613556151566076
0.616145815292204
0.614378914421766
0.618725517925248
0.626685584232934
0.616060203869923
0.618182185745595
0.623583172693753
0.606459745000819
0.602006149813557
0.605619888319024
0.615199039682754
0.61734358088828
0.611039893303226
0.620657521568172
0.605970615570471
0.612682481444684
0.618542898618636
0.609294037739818
0.611996617593469
0.611584510423906
0.610271452524808
0.631002132669568
0.606462044813673
0.608323774005122
0.611365389270393
0.621047623360891
0.613754585387721
0.612240148774265
0.61239265587607
0.616282831995752
0.618544859104093
0.620944150017572
0.612824432516925
0.605936704767934
0.605591074402535
0.624058133082504
0.620662952803286
0.618231121175242
0.613915604518077
0.620802124195195
0.608885480435774
0.619321092494736
0.616258601415692
0.631062445722253
0.602063997288028
0.617258184959567
0.609923803778293
0.619849516953093
0.623407020410371
0.614395950282768
0.608580087338234
0.613915995037474
0.615229842594203
0.615386745332631
0.606914428801163
0.602879753137022
0.597185923806335
0.610156297104075
0.601369232535518
0.60180822359981
0.598194954934843
0.606369037223465
0.594035938260466
0.588908557493107
0.588034203212194
0.589698483322735
0.579387874729345
0.573335176100732
0.568033002218762
0.579447197210407
0.560194276553703
0.55633758195474
0.555496600027064
0.557604053222732
0.545053683316125
0.549486116390901
0.552154640334346
0.546279657845239
0.538504666746759
0.534716353105556
0.524354848554381
0.534714221725955
0.523469046188161
0.513841260144192
0.515592141140537
0.516901962688496
0.511818826732092
0.506784476994817
0.504743120711908
0.493632191918822
0.498384564432567
0.492765364283468
0.482514234039684
0.486246602734409
0.483390444101387
0.490593562547941
0.480894329718413
0.47110892985816
0.46705556762295
0.470186832205379
0.467731139945772
0.467928672279755
0.462957200616366
0.460478748991025
0.455892484135918
0.450393830263945
0.454424563143774
0.448210797402598
0.449481425713269
0.444862192333949
0.434759314950089
0.44662536164589
0.442874514664841
0.437531448980685
0.442798365698347
0.429866195310201
0.435858581231966
0.436445649996078
0.432044368897542
0.435134443836289
0.424581028672506
0.425404276714771
0.417442666525861
0.414759345961137
0.417077180951801
0.418933215912525
0.413437872209545
0.411146344093309
0.409356068571749
0.411255723298559
0.40593393461422
0.403075378205194
0.410293972728413
0.401849286864495
0.396629935732095
0.402117828385575
0.403746134107866
0.395884029886938
0.391791063696795
0.399356506184755
0.39711022349783
0.393063302396869
0.393078648389967
0.391155436070067
0.391874196553832
0.385783601389386
0.383571641386322
0.387734372681724
0.381642305985896
0.393268876796674
0.385860892192018
0.3784680487915
0.378970587373233
0.387943527838662
0.378640534659692
0.37731131577643
0.374691141330764
0.377726336900705
0.376176416426817
0.37675221887074
0.372861419598394
0.367299748878591
0.367098021391089
0.368068136960829
0.366905653334987
0.369297884564665
0.364889360312597
0.365585982041799
0.360204058201126
0.359102941172743
0.361621898106581
0.3616461154902
0.361063981298363
0.360767314468693
0.35627527571669
0.354082053354199
0.356569437630904
0.357126761985441
0.357491567749251
0.352031185175654
0.356419235323301
0.349189554895134
0.346632328870154
0.353655616296934
0.351445416060022
0.345771209131064
0.348623509026807
0.348580000249145
0.344259595586063
0.348480310017144
0.347097681167689
0.338004991869741
0.351230449923489
0.347497520868649
0.345688791074737
0.339346442361788
0.342166542816232
0.343947426292237
0.342651771387535
0.336474026929182
0.335224172881018
0.338793063574173
0.341201094263222
0.334348148411816
0.334810607090622
0.333884506684145
0.335661719080605
0.336734785340038
0.333076696131068
0.333248296442085
0.332127801589728
0.334494149263785
0.33134830996947
0.337025182099965
0.333977907587772
0.333568137916332
0.331536580042754
0.331417966249339
0.33189667087895
0.330742078672695
0.332042558254187
0.329771630202529
0.327486705550593
0.331492226821132
0.329769471051263
0.328316779607632
0.326798254551389
0.326665229767665
0.324467243236246
0.330317495101756
0.324109111663178
0.325146315697783
0.323088275085008
0.324603042636814
0.324219011863086
0.321530549146801
0.315780804199351
0.32007266767302
0.31896147410273
0.317860743836773
0.316299873988374
0.323344616503535
0.312655773806512
0.319694203387053
0.315500411778422
0.31691418218449
0.315871239243997
0.308573403535039
0.313855700379954
0.313116713205325
0.307829313713805
0.30786172756586
0.307423913669397
0.303863990236422
0.311330536633344
0.301216520241149
0.30763176715265
0.307458922613015
0.303192008772934
0.30462973265868
0.301628593825887
0.30166101855814
0.302933491699822
0.300284703250168
0.298191895690533
0.301063525381665
0.293600991225212
0.295469388598119
0.298850781342531
0.300281506150178
0.299298298071352
0.29842788378866
0.295514293106221
0.29412215522876
0.290874123875184
0.291752809874984
0.287818239006822
0.290728276109947
0.288284309928669
0.293239768735727
0.286951829302024
0.292822971876468
0.29153429259792
0.285338716353986
0.284554733974731
0.284506486502909
0.281776929352429
0.283651698972778
0.28190963154298
0.275131114895857
0.274624404743914
0.275423932002235
0.28100459127974
0.273978395481808
0.277771269941289
0.273033639101777
0.270170808225094
0.271759760907963
0.274140998517299
0.271827373736343
0.267685196550505
0.269675432621651
0.264031448467287
0.268134334978861
0.265034344728561
0.258963904569937
0.262038290862742
0.263377754674769
0.257581933211455
0.257161296678247
0.255766944778427
0.261281932064379
0.256951451298185
0.254138826159746
0.257372443499328
0.25649577265763
0.247338795712205
0.253325568170053
0.250363649408979
0.248821907083112
0.246607370462957
0.254196153048997
0.248140665282338
0.244950859426932
0.24277953288144
0.244254830261107
0.240953574186288
0.247730231225853
0.242421460620347
0.237152505923258
0.242543520009333
0.239709287146892
0.241503771050408
0.241152407857663
0.23741362008815
0.234312149007849
0.23498901066773
0.236727066238826
0.232802867457412
0.233094269824567
0.234953925696879
0.230713361536269
0.228949715921123
0.230276588599101
0.233181972645936
0.231140287066886
0.227233988892171
0.23294123299178
0.2290765991824
0.224349234390079
0.22373506614742
0.226756800753364
0.222896827563972
0.222967003715984
0.222838008355954
0.221873575151002
0.224848295816449
0.21918770255661
0.217982320807536
0.218761618434718
0.217182170349987
0.218987079008145
0.216169169716866
0.214614078184625
0.221411890041478
0.214626253747238
0.212890184313624
0.215319707669037
0.213050458922703
0.213817691580309
0.214187401572067
0.210076830315339
0.208768950524393
0.212099822157268
0.213247893973965
0.20778520561136
0.211616672186148
0.209409868207917
0.210183044510552
0.207110700374085
0.205932074784056
0.205746192967464
0.202996969965283
0.204438463368163
0.207143972171209
0.205728119377889
0.20311319840607
0.20308912717555
0.205032295032053
0.20614801341541
0.199025788833209
0.20243899008016
0.201987252801639
0.200019076359645
0.199462449168132
0.204606384891576
0.202214437810283
0.197761207880756
0.20087063421814
0.198011598039524
0.197358824273924
0.197146099043201
0.200651214545738
0.200043569079745
0.195434580548975
0.19385759320451
0.199001132880672
0.19589389725631
0.1969007431457
0.198080883863088
0.196615577086465
0.197091937219288
0.196590083252923
0.196253872380293
0.194728709130806
0.19561726171696
0.190788053048619
0.19142616791362
0.192067172307746
0.193949055079017
0.19168426070965
0.186647019069727
0.188378343827436
0.189892985742562
0.188724549662039
0.189510236601438
0.189578866248109
0.187400407675271
0.190066277849556
0.186268662836516
0.187371944223725
0.187298856254461
0.186143072961426
0.18425861314577
0.185419849416992
0.187178037321371
0.185822812186036
0.182136234427507
0.180543110312988
0.185509638932645
0.182046835680339
0.181385893129923
0.183490822682471
0.182413799132864
0.1811024966132
0.178694839293655
0.181028555284945
0.183557997520924
0.182840480385014
0.179493079947379
0.17619452492424
0.182008206104446
0.179176903997457
0.176815499597186
0.181263813712306
0.175441926000795
0.181013535211159
0.174552622941442
0.177955940748709
0.178669048907069
0.177841266991586
0.178206486048082
0.17417331696695
0.174516075654763
0.174966277919392
0.174253454364233
0.173893644867796
0.173115054191537
0.175464396058222
0.168740865622955
0.173168162374272
0.169765903782563
0.171046754950283
0.168378266620757
0.171071905960138
0.172407479301911
0.168534565766204
0.166859657157041
0.170142800191833
0.167519084726841
0.164639566477525
0.168866921491327
0.162555131434816
0.16230014169173
0.161308893487698
0.161588478015813
0.162406476662184
0.160264017286027
0.167455289602158
0.158928561152348
0.160784297824073
0.160733685970122
0.159249771887654
0.158379472777506
0.156246718497704
0.157939549398401
0.157448196932719
0.156681458693726
0.15983549661474
0.154641931358317
0.156129451679414
0.15330816778214
0.153285551848829
0.155276932956829
0.151325128484003
0.151774841522496
0.153995755358898
0.151455557757663
0.151066060570773
0.149473565354709
0.150782899990335
0.146889381521587
0.149476392460375
0.145310330007979
0.146145998837357
0.14467753530966
0.148717626057772
0.144781270506611
0.144653700933071
0.14438640996998
0.147491692544277
0.14380535708116
0.14252671175035
0.139254096138449
0.143219842070679
0.138686475280147
0.143584121602592
0.140605900923164
0.14097498796457
0.137018518211405
0.138091128222212
0.140318194177071
0.13955157838384
0.135717907431511
0.137063578551001
0.133811255651813
0.138229095881239
0.135176924504578
0.138610060320038
0.13352670162549
0.135815401634683
0.134485610572687
0.136844729625283
0.130812373455661
0.136032723988482
0.131794196205979
0.131878861104099
0.129353652889895
0.130572207183767
0.13043344177542
0.131064093249238
0.130309686314781
0.128775555930925
0.129457448423492
0.129826702512959
0.12952329434319
0.12796776492599
0.126211941359312
0.127789568996678
0.122880192285504
0.127979107560696
0.127700193093043
0.12401327945068
0.123707014890547
0.126060199501465
0.120418666968756
0.124979433044179
0.125938308271124
0.123425590089001
0.119256447713986
0.126395477914586
0.122320800702711
0.124751428010981
0.122323878967663
0.121933656187461
0.119247502905268
0.123184059763218
0.117835878422538
0.12275360315526
0.117342072085869
0.121765413795203
0.119200376017314
0.122694183607676
0.117753645223679
0.122542225870674
0.116601111471865
0.12314223841672
0.120992397928258
0.120396700329962
0.116976572537252
0.122033130220643
0.119421633722993
0.123584683824162
0.120790304556845
0.120347566184142
0.118478587767212
0.119719352962088
0.116809171043703
0.121302581493008
0.114358995147794
0.111845519492824
0.10159964531237
0.11239802816017
0.106751656730132
0.117965229188056
0.105968584560727
0.109148768339539
0.103821824391493
0.110413213959561
0.0986704725440083
0.109978723709785
0.0996212519106963
0.10867392855277
0.105379802235873
0.102918404106792
0.101797922592089
0.107749887257692
0.0975663925032039
0.117606067549981
0.0972627060464396
0.112506993093792
0.103036237187596
0.114250058300292
0.102211331198046
0.120312732327296
0.100121726374506
0.114110254353884
0.0994881834070573
0.107908965954394
0.0920555668477602
0.112369310835114
0.0903996364824061
0.111072650616393
0.0923547608559714
0.116215834521061
0.0930700650504961
0.111756031940465
0.0887008949558479
0.107989830526221
0.0900286802808466
0.107055099405531
0.0955645197904804
0.121347625565483
0.099934929314739
0.108600119445416
0.0933741640528374
0.106462683921683
0.110696412393312
0.106875749293959
0.104142780791558
0.0948738697174327
0.119385823569906
0.0970696657385497
0.117539901932
0.0812849496687542
0.127431092937936
0.0852928407412286
0.128235539807359
0.0834534352499837
0.13476499858801
0.0835730397526981
0.128142165550793
0.0915763533642235
0.120160631370171
0.0968845013544399
0.114252765615328
0.103229016825898
0.108221027391235
0.107817769191428
0.106787878135991
0.107206297581135
0.106146863829873
0.102926468167301
0.109477520125298
0.103828805978214
0.111333514306233
0.104074304838132
0.111874553437571
0.103313123242847
0.108405251222708
0.101682320508988
0.106868958706583
0.103150167374748
0.104258808566629
0.101084212352646
0.105891206563588
0.10330183362522
0.106945730112656
0.10137399521295
0.104718977130689
0.101936691316883
0.104333131680145
0.101673480974134
0.106175205051516
0.102786424234711
0.105187503094236
0.101970984229278
0.106714893516173
0.105384191028594
0.107209496976218
0.10309170931389
0.107698670449962
0.104691293552761
0.105791565614268
0.103699095968366
0.103650480851881
0.103124211584516
0.106923353893705
0.103562253820456
0.104432778100705
0.103393128474019
0.106701290932433
0.103002725494952
0.105953582297802
0.102241518281036
0.107170137993933
0.102936234951331
0.106506513585152
0.105285127500816
0.105850488610709
0.105150680292138
0.108321325593716
0.104773573395294
0.106693140265762
0.105272495112963
0.106548069409844
0.103816776361547
0.105064232706286
0.10424332544142
0.104499773209534
0.103582493089852
0.106507941725776
0.105233924568179
0.106238134002065
0.105412367823012
0.104533461168498
0.104738980022483
0.109679649556846
0.104991525362014
0.103255032825515
0.105867271428939
0.104427089084294
0.104364070273862
0.105442572371713
0.104211009513756
0.105889221145685
0.107855103994575
0.106185831788217
0.105506738458515
0.105120722737377
0.10425407538041
0.10768690038645
0.104049464153642
0.110651760286952
0.108119729318665
0.10638086416164
0.107868187749309
0.106704648560531
0.103427657591911
0.107462593533564
0.106483432586491
0.108478713371519
0.107031742014008
0.108564520874768
0.104586431901014
0.107309000603191
0.108970308659395
0.109822418382122
0.105615646416786
0.107709148638764
0.110712070026065
0.108849508950631
0.109806068731717
0.110810677383696
0.109785894041079
0.107016357861836
0.108000144970979
0.110068720676738
0.107451753686173
0.108731517288747
0.111122060429768
0.110989816296022
0.109260262480011
0.113957651105555
0.110560417544677
0.110571017193425
0.111557911327475
0.111610075593369
0.108904201156053
0.111144744728453
0.110056925811233
0.111276982172994
0.112272233557692
0.111816028000824
0.109806289277526
0.11296993886758
0.113911115067116
0.112002250801597
0.112582007014337
0.11454836101674
0.11148495924158
0.1114843397689
0.112864931944898
0.110667539175955
0.112551991033281
0.113245155070888
0.112480455369171
0.113680359686626
0.112595940076771
0.114477753841707
0.111606772137223
0.11105672744501
0.112494118914743
0.114379997308062
0.112384406358045
0.113219922118921
0.113095518173795
0.115060677491153
0.114384703024239
0.114475052304423
0.113809006765794
0.116879826766776
0.11543981844163
0.115756613695624
0.115237956337175
0.114049394978609
0.115901526800289
0.116008562699891
0.115834337485713
0.116622673296808
0.115225026363055
0.11704874834561
0.115514215588496
0.115497564412471
0.116270911541113
0.117558261742593
0.117817455760652
0.117396500106661
0.115993913961476
0.114913883214495
0.11513093694108
0.116554291014339
0.114125435856432
0.116029512941486
0.116350510761683
0.116903451719341
0.116583820660066
0.114481004368707
0.115335185602501
0.116998363160633
0.11602702172124
0.115307970336165
0.112733307502754
0.11465554933638
0.11353751723989
0.112955381020721
0.109399823462345
0.114959236124011
0.113550540709215
0.113098485243399
0.113685256718572
0.112608842159384
0.115233596641127
0.112910324257312
0.113650639351031
0.11161309247282
0.112929926400791
0.113027369437372
0.111454897980852
0.111908456366372
0.11228309504495
0.11129186744036
0.112514697623272
0.110916736820779
0.111735707629027
0.111198441511264
0.112965192108668
0.113802493006283
0.110883576535632
0.109073220119593
0.109366549739
0.111654048758757
0.111600360433512
0.109865929338372
0.110293343934142
0.109652014728388
0.109913323657803
0.108502668554844
0.107917683342297
0.110215448361669
0.11120153104613
0.109364841025423
0.10827830463961
0.109089184143803
0.110368074076986
0.108242383503733
0.107248731531426
0.108774129599657
0.108721120893217
0.109811052167064
0.110842545423333
0.109069263299808
0.106279023533896
0.108005458422482
0.108451931771964
0.109153098378465
0.108032956440777
0.10740697814786
0.106659234305013
0.107622483044379
0.107950209153412
0.107805990126435
0.107491011400897
0.106428765768239
0.108744353890753
0.107912947515814
0.108161291510699
0.105911168872098
0.109127586639733
0.108347451916698
0.107587730138424
0.106263387476725
0.107185130564126
0.106156170891938
0.106542322457192
0.105323463468793
0.106078255425774
0.108711713392696
0.107180817049792
0.104982491231526
0.107758926736136
0.103966640048072
0.105933785337299
0.106264098757848
0.104434596076696
0.10553008367356
0.106864307767408
0.105088503434898
0.104974392606248
0.10469054200156
0.10583757403959
0.105720903081603
0.105823309105859
0.103970011747773
0.104202048583285
0.103690952478342
0.105935343260837
0.102649831908747
0.103394301804223
0.104126730101899
0.102419474306106
0.104241237546658
0.103702028607145
0.104459049982867
0.104242814541602
0.102289968476397
0.102394602812415
0.101212409726704
0.101907754241935
0.101784961215568
0.101904361514099
0.102323671989929
0.101652033293722
0.100173407513747
0.100599080943996
0.0979746048039192
0.100283724465617
0.10109232990555
0.0997796214188149
0.0995631565207169
0.0999091514466066
0.0992645245457206
0.0987446097199516
0.0986719802119351
0.0953425631912597
0.0974316229607285
0.0960985875009778
0.0950814589272558
0.101293311161474
0.0998488299462069
0.0979331728080711
0.0945502129394485
0.097988014191683
0.0927482026118607
0.0948322046583937
0.0944502264614225
0.0943472974074452
0.0929659771011027
0.0953292022752419
0.0917501589980917
0.0934303740712187
0.090416454918879
0.0945511271563533
0.0924491952550751
0.0940767296814827
0.0900583051801236
0.0945864132461936
0.0913911241274572
0.0925320876494432
0.0905471970962752
0.0922629567777559
0.0883836216881962
0.0939003531011761
0.0872243867741277
0.0932439820628455
0.095449625102495
0.101033987495364
0.090763407414424
0.0905310275340903
0.0931545543362377
0.0946843987318911
0.0886691965531518
0.0890818052028269
0.0882402633526365
0.0903128160737888
0.0894982298005796
0.0880760077587107
0.0879306402569037
0.0893595340079691
0.0883954247491651
0.087250158209359
0.0872456863260193
0.0892027494837424
0.088085167786767
0.089837039278515
0.0881881395946399
0.08983051756031
0.0856250998807713
0.0876934352394564
0.0850126190834436
0.0880500520492519
0.0905653788888353
0.0944815913161545
0.0936449735133368
0.0880949639045438
0.0878287915025478
0.0863224318149999
0.0862771293068327
0.0867524084006274
0.0843300114781808
0.0833250058901747
0.0857223242475925
0.0862242911930388
0.0868046493844104
0.0835729205836703
0.0847919713614414
0.0866923246634266
0.0836354704292852
0.0846065790681446
0.0834593008271122
0.0843501002612729
0.0853334060383187
0.0846327036756695
0.0862321920321859
0.084734059953488
0.0849519051701339
0.0816358321370625
0.0862733045911181
0.093153805503527
0.100497706926099
0.0860581393762301
0.0827511821534167
0.0862062285938319
0.0795591818675168
0.0832128111222134
0.0817900472401204
0.0813439835639002
0.0810320045862712
0.0844706927194537
0.082252011287343
0.084192104508169
0.0790253769928192
0.0810627719453376
0.0801922104440394
0.0829811181895447
0.0791247265559236
0.0816981522148288
0.079168208362647
0.0830390545799309
0.0896999350600611
0.0949116506421499
0.0864736373651099
0.0811455117334063
0.0808736112673912
0.0910590408954862
0.0916619491455685
0.0947366689261548
0.0745070925167256
0.0875310059405637
0.0753076366797194
0.0846024073292229
0.0763413770048093
0.0871979686617912
0.0829393559971374
0.0902919990256151
0.0807375712311182
0.0850554158967125
0.0797648147281253
0.0790391352181541
0.0792044987517147
0.0824607025277255
0.0795212075061559
0.0821538824739769
0.0791419566938684
0.0812688058714442
0.0763869105553415
0.0828105714017108
0.0777040256558758
0.0840817614096806
0.0833094000535584
0.0893115776046881
0.0772221459710126
0.0837167366275094
0.0778727691165933
0.0845256191375593
0.089756633369813
0.0958885430604335
0.0825469168161496
0.0819316631274058
0.0826646229353481
0.0789808949949919
0.0831559985468577
0.0796818409912087
0.0808558263883285
0.0809615032342099
0.0795947705519393
0.0786549128242917
0.079511915630039
0.0816320100442424
0.0805834559922693
0.0787789724941398
0.0791921687611757
0.0796124770927699
0.0788311656515899
0.0812193052221347
0.0781038869301865
0.0890524202328402
0.0957450290283728
0.109615424212335
0.0900965873732086
0.0960624876666753
0.0846278304874655
0.0834285727000796
0.0772183962772427
0.0819278832755898
0.0786001885424877
0.0836525797171431
0.08190535621494
0.0820139732259514
0.0807072081981777
0.0809432357925325
0.0782403686102474
0.0798253432083276
0.0774168096844008
0.0805832942151453
0.0794747169787754
0.079062058989192
0.0805108601554408
0.0769279917182223
0.0837880727111874
0.0869732711311849
0.0919388844393887
0.0783161239173878
0.103560688111829
0.103304457048346
0.107593053286864
0.0831195467675066
0.0846572619432736
0.0830243616915804
0.0807963029152257
0.0825070666042461
0.083001311086234
0.0885266551220291
0.0836879721633948
0.0800886293443642
0.0833957554046924
0.0855868909915328
0.0797286592167145
0.0880004216685194
0.102612332045058
0.111810537016608
0.0974379744533501
0.0823989610118984
0.0868726573431211
0.100784374071898
0.103957795487896
0.090201194343703
0.0819938883518068
0.0903378617785442
0.0796766955511503
0.0868936178404882
0.0789180414069135
0.0889134058330481
0.0888435763239341
0.0870607671278221
0.0815733891045092
0.0896563575943676
0.0849842615473018
0.0903421302129841
0.0941890767912633
0.100061394295697
0.0949007650300398
0.0908473112584399
0.0895389642538775
0.0935119234806778
0.0847383401179561
0.090668318135932
0.0815119762010525
0.0916439397197714
0.0996651759160517
0.102697243588539
0.0976966168108381
0.106215269517778
0.0930907469801436
0.0917057697488754
0.0918870625871333
0.107829171318637
0.0879783967241298
0.099937356642686
0.106697420860225
0.122134281013224
0.114242150275428
0.104499005978029
0.0989676120493792
0.0868211332632545
0.0959793631634955
0.0870974613733776
0.106355159742079
0.102373528159596
0.104842830313893
0.0843041933063936
0.101924255712755
0.103628753234431
0.113550132956498
0.096160716795543
0.101001797862059
0.0911346854547881
0.108625090270022
0.106649210643869
0.101452190831728
0.10968464097921
0.126910751088674
0.139406638329724
0.111635938541035
0.107497983382379
0.112148336957924
0.123486035819317
0.112132841318036
0.094156055721218
0.103185573943242
0.0969225614857028
0.104844122476036
0.118562036747731
0.126214056800364
0.11349183180057
0.103546523355573
0.107337284757747
0.115955071021199
0.121249211517761
0.118732062749256
0.103121642504642
0.110557399011603
0.104945692659999
0.133235409762504
0.134517402588613
0.140335980131147
0.127909586271164
0.145827260632245
0.135991893216547
0.128275371130129
0.124413564975408
0.12522677303744
0.140842354874844
0.140236035971366
0.121159390701515
0.127758282907139
0.145364922883457
0.138038656359671
0.135836687162903
0.123402619316624
0.133647163657571
0.140735525751842
0.190686305275146
0.188830485769768
0.160401603622849
0.1382403209576
0.156547767657531
0.159162645681218
0.149277608731971
0.135176146605624
0.144694452623984
0.142708223711863
0.145630320561658
0.151736431241448
0.155533366978988
0.155450654563076
0.148252722735198
0.153459173908268
0.165346566858327
0.198438158669903
0.222827994065856
0.181531039516068
0.19312306667802
0.185362657621017
0.197295124423622
0.169206810660101
0.172708225805317
0.169939016869147
0.183678440045286
0.176306961807186
0.173694866328587
0.187835618169817
0.202445048596196
0.201342128644236
0.206802020599304
0.201365214939789
0.199598575018592
0.198569284561801
0.273754046853011
0.255010688547897
0.256384193906998
0.206529728323566
0.252688994731456
0.258138504372645
0.287237929919792
0.238837263359709
0.24110123556694
0.244319352090163
0.257644653607211
0.263009436287876
0.280037741424002
0.283450673942871
0.301825535286703
0.285065746226136
0.308939166790909
0.331944391142447
0.421794691797009
0.358902648603989
0.343083153823841
0.336025739445389
0.364740342423264
0.359220615084945
0.366729886184868
0.356294059534382
0.381160056941313
0.398552548607671
0.427571796059619
0.404727305414289
0.400823305348471
0.437087283488487
0.431897690371129
0.452121444053888
0.473369591452869
0.488322166594854
0.457824306190494
0.4643404144205
0.471041015585289
0.475219078039814
0.499852304371639
0.526603004428155
0.52497337818304
0.506327493763089
0.525952862720578
0.519159539165301
0.533078089382794
0.536780574431092
0.548164496752354
0.564057183666697
0.603695986627469
0.664812111890865
0.736233944635022
0.597478492940362
0.56385862546153
0.56197255809668
0.593507510624945
0.602226261330074
0.635416726456221
0.616034875574448
0.614964618339271
0.575693254265963
0.587957254386501
0.588797883757723
0.59038172904479
0.592087643899582
0.581574628042056
0.588527528727694
0.609446318593208
0.614537905434642
0.667442625719806
0.65686245874448
0.604287060580331
0.578797652990898
0.590015239890895
0.575403010765799
0.584484548284239
0.577088290710542
0.606275746459274
0.589268998594166
0.581181263198128
0.551321827905915
0.587307454385481
0.580438408603726
0.5872458100819
0.547234742116734
0.545421660911454
0.541162875677837
0.536548627426825
0.532623313735746
0.571426429442639
0.562761644086698
0.535577812825208
0.508874687862927
0.531276466866847
0.507011845786905
0.51816992695918
0.50389528100073
0.520016545273612
0.500874223140011
0.508594886692956
0.503201734835209
0.505222547549505
0.484841431072166
0.500591906269311
0.489825852054217
0.496789710656579
0.480751068221607
0.485946549525685
0.478641660290379
0.484847078876808
0.485797414375852
0.489649047496928
0.480615853692703
0.490632818899196
0.475718878715241
0.480174052135534
0.478703030725575
0.480234512284498
0.477768732016876
0.477068647380101
0.467904945476129
0.47712818860697
0.46539714019841
0.471212363752579
0.469553440681867
0.476271546520211
0.469761287714004
0.467843197388867
0.464900332918223
0.468232755709763
0.459492022820908
0.465571285168731
0.483111897834589
0.509817525479348
0.48008619235665
0.458634378575667
0.450416119226858
0.45692045584174
0.441862612792376
0.463186578210338
0.486349791871582
0.473651533138865
0.437080667485825
0.436077682717238
0.427909712592523
0.464015448690183
0.432175349587239
0.432993360219944
0.413235431842782
0.439218989994458
0.461412431777977
0.508139200215349
0.526806058435932
0.494141929791105
0.419326238124904
0.418483112900117
0.444480742890935
0.431676912566436
0.414012114852359
0.399323933702417
0.411019300094293
0.453358608682908
0.41498169514281
0.400421464490842
0.386805341818762
0.400809337615417
0.424881143132325
0.418292543151785
0.40799487381588
0.428219878322707
0.42166210290019
0.42002531209852
0.443097884010442
0.465602553659271
0.384952905856452
0.367144158865681
0.37075083063971
0.369135595238968
0.389095059771969
0.411755444148389
0.368825322591441
0.369891898169426
0.345198888467391
0.348582941923241
0.356299091922758
0.37229687397325
0.349040029536078
0.376732508832527
0.361121503741256
0.344979202493752
0.352635820508821
0.382258782906068
0.382246902559245
0.389084426738968
0.332467655342239
0.336958675170108
0.379687125158428
0.371318159804072
0.341162138481688
0.337951571408428
0.30794389834252
0.332825380683209
0.324210243969796
0.316924683024023
0.330592336911275
0.341384406813201
0.35650725120411
0.386329128960029
0.396964286958296
0.352161733773255
0.304186923950818
0.297835046335258
0.294518261752406
0.309886422247029
0.291472259591114
0.303382511863343
0.324026127627129
0.306571220780844
0.316289770126614
0.34309485927497
0.305475412114457
0.297376044970636
0.297914384504151
0.305507745475564
0.314912875608226
0.352351460860059
0.357408710265138
0.334899984290711
0.343087061955042
0.343325381040065
0.333609302185586
0.331414328597713
0.330754620848259
0.334462591361258
0.345559801873174
0.36328775197739
0.355186598115404
0.362919432402708
0.36393716986419
0.380677365757619
0.421398280900592
0.40514589389115
0.406165725498877
0.443759740307044
0.453558565745521
0.483472338792599
0.440764914359488
0.437223583853316
0.435776371525333
0.448178027534182
0.448554008410409
0.461448190693949
0.480867745388625
0.508975664906593
0.475939540446676
0.480599661632942
0.482562866909803
0.49162587907959
0.502611645059806
0.546699404472378
0.540355143435633
0.605769326364083
0.55264758845386
0.5578307654632
0.527139091473033
0.522135744349533
0.533966129254536
0.546673415329854
0.523273878430896
0.535070211951536
0.551110156850726
0.565711034565427
0.5447288047421
0.550554510108923
0.545550304847716
0.552518772267083
0.548193631448793
0.555915458689725
0.558881719053711
0.563663087526588
0.561665611491855
0.57280141374439
0.591863274466088
0.650808613696447
0.589867266120929
0.590819641304705
0.591130537993757
0.603718800220506
0.58940326160314
0.61564822134326
0.637974735712731
0.621428565939264
0.61292166818103
0.618740923017749
0.629575057910816
0.635509170671065
0.642223279076165
0.660682532061986
0.635474479737031
0.650588263205282
0.646540440146277
0.732523441481331
0.677373378401904
0.685319477959238
0.674227848011077
0.672289780426389
0.657974276228899
0.668997780782933
0.664487683154215
0.677488810820968
0.676196252780627
0.679968663662033
0.676705559937164
0.685924209015079
0.675776271831378
0.672048721448381
0.684737129497712
0.697770595990054
0.674113837439187
0.683113377058968
0.674770194749131
0.677836646788515
0.676393085099993
0.692909878511305
0.693407143512492
0.679215506346377
0.678779875771857
0.70723233876701
0.689134908602489
0.691851946176182
0.663749290875323
0.670645223866072
0.668643181881874
0.690847086225755
0.664311261770867
0.700581548398624
0.711716072930309
0.698229530785883
0.688934276503765
0.694695360215458
0.689745326786043
0.699839233876808
0.698105989112184
0.708657348170571
0.694937434508803
0.710672168099147
0.713933939479303
0.718498382558725
0.720428618310845
0.72945483821496
0.730968577978777
0.737820805670886
0.706605147930301
0.722141219433432
0.711879234853705
0.707825979992995
0.710296218590382
0.701993684171744
0.692419350870659
0.700316286611357
0.67773282158832
0.691799729956353
0.708179331011679
0.690303556601441
0.686591464860886
0.661232786238588
0.655616976836527
0.661020830292362
0.652072962717657
0.646818926210244
0.641934294512539
0.648365622966387
0.6330382775861
0.639704225375557
0.628360711766609
0.628585163141455
0.618342545745115
0.63353449327083
0.62424323796607
0.621970407199741
0.61277195705144
0.62801261769811
0.615538793576134
0.615522895476215
0.620235237602592
0.623942395296311
0.629934836355656
0.643233022094891
0.638172241861646
0.615955055983401
0.627117999883636
0.620062474088804
0.612376084800514
0.615294149396424
0.614335799926908
0.619900200775798
0.608903703009311
0.620608327459111
0.609308821008547
0.615869711385039
0.612400594567077
0.61257300503845
0.604537211504798
0.62084975557115
0.606865514541795
0.616827822064547
0.612025423554641
0.615918183463107
0.612215413180878
0.614953496907332
0.615056685207606
0.619790047930673
0.607945666897826
0.613682075063886
0.610891200041759
0.614359593708542
0.61282694931
0.614521014972738
0.60714950691832
0.609767944943703
0.6072009306533
0.611521151682012
0.601237168881435
0.611291390458095
0.605095268106355
0.606137280061207
0.600046376065362
0.601730132997385
0.591620647176482
0.590441991580532
0.580882029678729
0.578088722481628
0.57494912345584
0.575151170778596
0.56544666974275
0.562737992316985
0.561254563195253
0.55679000623107
0.54811060681493
0.549810209420654
0.540540998543173
0.546615383969356
0.543539491244592
0.545590321405348
0.534417195149721
0.539356849738007
0.531293669853658
0.528225770033503
0.525888383934916
0.522946838606938
0.527802597195195
0.530876043699468
0.527348894673312
0.529389942321474
0.524280311658228
0.531322886802957
0.534268162206851
0.534965382931873
0.536902672934602
0.538074391062535
0.539952551257832
0.539375906509335
0.544800116506649
0.544564920173313
0.546080370163504
0.544295515678402
0.548987910549668
0.551269965775924
0.5536900919488
0.558535886737938
0.557358558582364
0.55576717232561
0.562644559002818
0.563566770956376
0.560750614711111
0.560591740678204
0.562345218287456
0.562123737772179
0.564754759951025
0.561973188790493
0.557129169542086
0.560502402454263
0.555073750660825
0.55405117527899
0.55246265338582
0.552673190328365
0.55420341938285
0.549861640698061
0.547304090697213
0.548558702748942
0.54518528088673
0.544978696749339
0.536424599231963
0.540491084097697
0.535304914804686
0.541099937509939
0.529509762458683
0.531387448337667
0.530182220723304
0.526001140904685
0.525294021720146
0.525976041155867
0.51916740900031
0.522325101194567
0.520562659170746
0.519085318158794
0.517159824687748
0.520622097964608
0.51746379704729
0.515989409302086
0.511052677467902
0.51144497077599
0.509415311254916
0.508802544138417
0.50670329235469
0.502227482280901
0.500079632423768
0.49817314322295
0.494493267002378
0.493370272615507
0.48768799521216
0.485822160690573
0.482295938602655
0.478948600769117
0.478421726535328
0.470527174409928
0.466163850100907
0.466765173488833
0.460716996446652
0.461812879378221
0.454911068550215
0.457849394390801
0.454554979192613
0.45097248507067
0.454710742352916
0.454011711503686
0.449690194428401
0.450496033335449
0.44471994345736
0.4490051429955
0.440666967916755
0.441326552093923
0.43715950347956
0.43167838863652
0.426331249099084
0.419036629517025
0.417036798388424
0.41144381710365
0.402847789562522
0.401315129460819
0.397718422122132
0.397464949115935
0.393490269872121
0.395967139977048
0.398553839643602
0.400571921532032
0.408972162780129
0.41589200396985
0.423601358988554
0.435114957388965
0.44473089158
0.461831238585866
0.476451226191282
0.49159913300857
0.508131660825044
0.527463064324686
0.544015144489092
0.567204411457413
0.585060467362422
0.603845001671842
0.61994556189693
0.644932942652737
0.660355513060016
0.679136449866432
0.695839781823289
0.714708035733696
0.729081281331137
0.744597282979099
0.753900356204215
0.773176536030672
0.787464792989029
0.799701509492247
0.817196502758766
0.820071620207036
0.826775851663508
0.845427181292514
0.852530174697809
0.853730512839119
0.862113579101389
0.879376971383311
0.881598460040709
0.876782387895554
0.878303300490291
0.881403854685306
0.89001341691809
0.885477224655291
0.890776991085138
0.886562180466341
0.883609438856789
0.882009596821743
0.892314254840677
0.897480799515255
0.89708321157091
0.906520569196394
0.907420752999642
0.920094379370394
0.910877123424367
0.919985041804929
0.931999880868926
0.92654721024223
0.933366978883855
0.942900491721298
0.948475895435283
0.960847504291627
0.975279049131681
0.989394520318647
1.00134064603928
1.02393140950747
1.02016982720166
1.03533778130378
1.05639599128654
1.07044128128187
1.08226270769337
1.0984928438914
1.11029500443549
1.10539008819519
1.12392663164179
1.12794612203368
1.13415138712156
1.13374020903503
1.11980405115252
1.12451275062654
1.10756963133192
1.12936956466805
1.11288131441343
1.10267298120816
1.10281597675937
1.09965423948695
1.09107303878193
1.09796634263124
1.11874186102554
1.14170962034428
1.15044793588633
1.1602824547405
1.16698789621759
1.20514176522387
1.21318110571962
1.22106877424416
1.24819374277229
1.2669465999845
1.26100329825196
1.28905999331816
1.33106686347225
1.34505585263156
1.36412230395093
1.34597019771105
1.37210837039204
1.36045130040329
1.39724422562573
1.43281503066514
1.469308826915
1.4860396136777
1.52593296845633
1.53222758106851
1.59304713947061
1.55772647313265
1.64693552752822
1.65369854695859
1.68777821108483
1.67896627554839
1.7542193066028
1.7288716934543
1.71544159577989
1.79542434614221
1.86320180371788
1.77927161669014
1.80268530686084
1.87125659272814
1.77994023809311
1.88827568309569
1.89408980681286
1.95851104407652
1.94708072440069
1.85324457214399
1.92873041574541
1.87116171757931
1.93485362448375
1.88195574521932
1.83417188091981
1.83579456456388
1.9770166831126
1.92929470713616
1.9087184350292
1.83430170376754
1.91771645576297
1.8819258977268
1.95136168633002
2.00708105731295
2.08130932494339
2.00347065908537
1.98969325637988
2.00135146826386
2.06049395659167
1.9462635701951
2.17594865107781
2.21902742472392
2.01948834749028
2.40986652029011
2.6118786801413
2.16336108651311
2.25768207938404
2.06724926213151
2.41646484505503
2.46225005717447
2.23175164347958
2.10503729069086
2.33789673693067
2.14740120296915
2.27913719523285
2.22412367029076
2.17963425209347
2.36791366322804
2.39608529095575
2.41709896921724
2.65333680926421
2.57558291472513
2.36348530537744
2.74782944503591
2.20248527148931
2.28096002027405
2.2854540058352
2.32723556173793
2.29289534278599
2.44188677198769
2.59722774683788
2.32448218082465
2.52305163588081
2.53404901039969
2.27988324078836
2.27484929693913
2.14678912608901
2.063870572502
2.06254911441348
1.99114480133309
1.99466508591886
1.9062917370206
1.79262473088733
1.75047584505579
1.67797293285956
1.64910020370391
1.6754359109704
1.65264354720659
1.62476194710168
1.60311196226192
1.58259574364925
1.62737775357484
1.55150544650003
1.55342544126973
1.57995793596942
1.5481284326962
1.54717297683041
1.50367841701163
1.45876822467999
1.51975367473883
1.45567219301858
1.41145507620953
1.4090561706501
1.38780996023353
1.33381405570798
1.3141566627511
1.27144028937659
1.23878182649916
1.18946761895015
1.15456239815724
1.1338782373375
1.05704162515759
1.0206528763021
0.982946120537124
0.941302757517022
0.89163839321032
0.857674652926856
0.827049210108427
0.793893007103035
0.758683057462395
0.733980798091963
0.69513463900985
0.677497463365315
0.662808295729094
0.639277160836638
0.616042747310865
0.60120884628652
0.590860286138672
0.573703975622799
0.560675388190954
0.55760136307482
0.553926511732059
0.549629909306133
0.536660798135506
0.532822805683138
0.537130496279622
0.533267520641799
0.532450752780116
0.529919609128932
0.53058434002401
0.540729774911075
0.540686193142098
0.54152778063776
0.54676822866952
0.545291012510176
0.544588616447165
0.548441006041518
0.539079341760127
0.530470748110526
0.531020999956991
0.527379424725629
0.51827720643618
0.52099856889794
0.514716554564081
0.511607688742519
0.505572782188696
0.501969871619035
0.499091694840947
0.496725397104776
0.492364184088018
0.498513587575525
0.496391242066218
0.496344117795249
0.498358498114624
0.501779696874264
0.505826032304392
0.511592815635654
0.511469290686946
0.517529735306739
0.529605483374151
0.525242091718655
0.527874434824605
0.530169548634765
0.530514526343489
0.534461562265248
0.541304535829663
0.542705904160171
0.540437338720064
0.544934762199568
0.547472718541582
0.552868203684129
0.544686891000819
0.545527911122218
0.545341085845374
0.549593469426123
0.550436796773836
0.564934198699096
0.56189061457213
0.569461840925081
0.570677534066906
0.582719386629365
0.593000755294662
0.608168224688232
0.610557790835497
0.627634079078077
0.643404305436007
0.672628326700376
0.678828119444255
0.702364349403741
0.708210170290842
0.718450945918576
0.722531371620946
0.744734423992422
0.742756809115391
0.731517015779267
0.729643829720495
0.731567189085921
0.714192017695684
0.699694772615266
0.694265927759537
0.687499668117658
0.684156115209141
0.661229349845703
0.661353661415261
0.669701824128508
0.650260418684801
0.660599868630855
0.651883501639042
0.669009208349968
0.675059270116351
0.671923356928964
0.676213247854082
0.662191602715846
0.642045721867049
0.654494323235869
0.643015380474391
0.634955804656112
0.637669820670651
0.632966262844684
0.61712736799632
0.624130675299335
0.605592190415893
0.622238105565948
0.609998465280585
0.603773819538179
0.59350337018325
0.589257830642519
0.588761245703523
0.590294294117415
0.579778778435866
0.584946289161378
0.565508704649837
0.571082533428799
0.574157875669179
0.569225541803681
0.569777617547275
0.559863520600908
0.565230892571834
0.573298905808695
0.552607594985641
0.549031536627701
0.566362011633305
0.558684728726507
0.538505181106212
0.539128718542183
0.554482535976746
0.536112568657716
0.532789256713357
0.541955225179056
0.537468137051289
0.528898758954423
0.523693130618819
0.538995370306199
0.514748464546853
0.535025890255495
0.514121500905118
0.521950616467768
0.517749819770313
0.525713782887868
0.507561329072792
0.505545014184078
0.518039768868128
0.526581684588227
0.51586552195671
0.524935957950246
0.525028333338165
0.528934944390295
0.524390110092058
0.522811769957977
0.532181608960507
0.527653215240099
0.518230209568329
0.523972419906729
0.528487466627869
0.548915375445963
0.540842934001349
0.539183418589062
0.541691679855337
0.550108653306499
0.531190887154907
0.558879022814867
0.568979140277855
0.56468479043329
0.567785854704523
0.584614856246267
0.572443082862589
0.581733671084808
0.587559892984905
0.605713163417558
0.604847116023795
0.609458436027345
0.624284534098677
0.64678079344609
0.623360063217482
0.640549853854998
0.659653417311738
0.683259264999991
0.674877450734133
0.71002473967941
0.710169754875669
0.746314672894964
0.771098162112439
0.795949270660665
0.8034644339977
0.845195072107411
0.839691294252679
0.857316478428964
0.878701910779274
0.894094304867607
0.878393544555626
0.929949775143688
0.900196785940589
0.928082072503217
0.881361580830016
0.893252388499494
0.89338111082049
0.896892738742867
0.891615199408469
0.924952438395878
0.8502769315308
0.875161096940448
0.860862467603942
0.90075297142274
0.895349868461965
0.903726945421798
0.885295185586918
0.950289950518638
0.836080527236648
0.857137914688924
0.931201905681891
0.863309540481498
0.847173664383555
0.862769908773331
0.810365491479278
0.840523942366098
0.840956599215833
0.818395910059909
0.819468128944614
0.841502070920303
0.821912342092315
0.850267654828798
0.783746401323762
0.775453566554552
0.755075434773897
0.760204523078234
0.769107397262053
0.833999458930837
0.802656801444595
0.800808083780811
0.835805290308511
0.792502874061706
0.78415111604156
0.845175749457447
0.768067325321514
0.862169033206254
0.824747094375108
0.790732344698195
0.830573090687172
0.80595449621571
0.792804001134134
0.789818320593685
0.768670543820331
0.774039045451734
0.812119097466746
0.826995959797801
0.807750880951502
0.892333569523312
0.828806025148082
0.880097841687952
0.826054867883531
0.870566795514732
0.920134268377143
0.930708520793318
0.962219848439799
0.952578608558268
0.87476669442337
0.922062989215117
0.899700583333192
0.89727309923928
0.868799740657004
0.916848265835383
0.8761974918997
0.88437082576881
0.804131014223653
0.966494886943129
0.978973391972772
0.996982375648441
1.05951728670005
1.06128113640147
1.05924209020526
1.0758033290876
0.974952627037773
1.09348657184486
1.04842931272981
1.11765198587404
1.17943841626804
1.2178067686028
1.1315472380693
1.1424754288536
1.22506840764993
1.14070087379385
1.0218215316554
1.07054761751083
1.06254518617247
1.10502999826524
1.01623368263133
1.11141182711559
1.0882182098502
1.36484086213638
1.17187140743039
0.974627832137406
1.09921732107707
1.16490725374012
1.10566817221413
1.04470020091544
1.06857094142786
1.24099839374824
1.11720641735948
1.16491671348547
0.935152569455303
0.889591676994855
1.04279513875931
1.19754581746856
1.39993881260517
2.03153398711774
1.0153888465917
1.22383728543653
1.66452233219961
1.35665427001045
1.16242056166101
1.32403772210748
0.84894144129627
1.19632314156637
1.52461690990813
1.12593311677356
0.689194351234144
0.835741667567738
1.29158823392514
1.00878045116927
1.10910245066168
1.77022173548449
1.63399423862172
1.45331977372011
5
1.72332045431924
0.738590915677783
1.87031211868692
5
1.35563444739386
1.03748526252874
1.87755668054606
5
0.660887792817324
0.75263701373455
