3596
4000.36533379555
650.420452594757
1
2
2
0.0700738637235035
0.0878807559495262
0.0730447935336631
0.0861011675706435
0.0682112895500663
0.080117664834795
0.0710067187314782
0.0854774640751697
0.0716959136796991
0.0874674518354773
0.0729871903701135
0.084620672280855
0.0754927588256701
0.0853925624930744
0.0684002299278527
0.0841855113655387
0.0716336721653018
0.0918161493843263
0.0653486607706397
0.0841981478764246
0.0784433509792148
0.082962697141933
0.0708488613135852
0.083298733754716
0.077110089047471
0.0907697043807289
0.0781302159866671
0.0847147070151338
0.0797174913378456
0.0832250284307015
0.0650254847558693
0.0842075791572328
0.0732092462591688
0.0847865421538403
0.0771440359786526
0.0826260996698329
0.0716444816077299
0.0845793640823095
0.0712014600528951
0.0946383659003352
0.0741431897477395
0.0848037377169179
0.0712854176109581
0.091711312384742
0.0765327313866694
0.0810234580557879
0.0667986826240833
0.0803215058066492
0.0766324320673509
0.0858965914563277
0.0720582376171296
0.0865529904057155
0.0842678734082423
0.0920338151626853
0.0895677975487141
0.108654128060581
0.0798414516694036
0.0900509654461737
0.0738250931581516
0.0911764794378984
0.0945606106734918
0.0849063722705055
0.075411817736597
0.0830871975040031
0.0728601572448175
0.0834761331470474
0.0634802479232889
0.0848796121502126
0.0718898670079892
0.0823173604543389
0.0786027860339207
0.11147158336241
0.0805949457802462
0.0893379919383237
0.0775148931217195
0.0940896311782644
0.0780883045987379
0.082880174397304
0.07299374811576
0.101338728308984
0.0813483550858382
0.0888435289998143
0.0697139266039983
0.084425610307656
0.08905482294266
0.0916146799578414
0.062911313857328
0.113355187370702
0.0869567985743001
0.0812547803421247
0.0657300223067088
0.0860706441695884
0.0607389955086696
0.0802457828694937
0.0641911409451156
0.0834067401832929
0.062181621606461
0.0881572103431588
0.065311879455801
0.0944715038701489
0.0817948885744321
0.137893560013518
0.0796989788888585
0.0990839383879064
0.108565046011671
0.0835177827818795
0.113023700728182
0.112670776374505
0.0758731108605479
0.0865934581479704
0.0665169744225219
0.078983430475925
0.0732887976247655
0.0933230248395282
0.0919863676092261
0.1289704856989
0.0723814392982528
0.0815179464567348
0.0693222725014728
0.0797752634304995
0.0730012665879366
0.145885639662796
0.0772734084090257
0.0860841769356366
0.0763634156107456
0.0742972319630524
0.0866691206723521
0.128079889871098
0.0662712342974346
0.0860474177885019
0.0664115842375959
0.0886842658840672
0.0581733128204604
0.108948955430057
0.0892259282501344
0.0842695770543285
0.0936357950245697
0.100420212967319
0.125127734275915
0.110709307411617
0.0736213704600236
0.0815903375189168
0.0712025661390501
0.120153368756266
0.094976810441324
0.0814608279173869
0.0754588684388695
0.112454965650919
0.065001213170316
0.073823166452786
0.0645409875320603
0.0948000853970405
0.0853553416261164
0.0925831147988889
0.0898679738004028
0.184106521440497
0.0793667882969285
0.142889601986358
0.0865608114415427
0.0791835623915002
0.0788707539225768
0.0792028423820605
0.0781322528428352
0.0767150552262013
0.0781563003335346
0.0843961611673947
0.0944595647434541
0.0928540515524636
0.0726195069693518
0.110557564623643
0.0855745454282664
0.0928672839487904
0.0918449779074584
0.134360517670244
0.0638129558883904
0.119395794135322
0.0856707310077066
0.081704252903432
0.0631983591047908
0.110833395041296
0.0707078375938649
0.0729480475666901
0.0698630632431597
0.0789837726288608
0.0819962395025875
0.0997153656281108
0.074441392515642
0.0847016925304435
0.0754680445149335
0.0983946407659606
0.111027859613834
0.128813547900402
0.0844358619273495
0.0874664202725746
0.0699223912152954
0.0910077559528729
0.115763366149276
0.085110835151045
0.0764862071102917
0.0781938566232306
0.0650908334051633
0.0758402411391072
0.0643425072288576
0.0737839661635477
0.0710415257647033
0.111261175540761
0.106802940698776
0.0747372360642041
0.0633431173863308
0.084497927095865
0.0846063616900886
0.110043583543562
0.131297206651306
0.0870392682539197
0.0729699170102984
0.0815476658618201
0.0826731753670045
0.101079918441761
0.0758634272197551
0.0791938021330222
0.068803428891328
0.0781973706866144
0.0633442228265376
0.0736568292335181
0.0711238368314094
0.0791024087026278
0.0627381942006556
0.0884523245916611
0.0720481102987618
0.0900347080870353
0.0838422179755897
0.0739478697814939
0.0680126718874335
0.0823513927211922
0.0736949170542779
0.118251507327788
0.0751073145865564
0.0794245466550701
0.0652829965743666
0.081480291380141
0.0697298896422752
0.0729623554140578
0.0720640988427432
0.0784228280316146
0.0706044393804692
0.105301038279616
0.100086353336026
0.0795036285228784
0.0778246875758837
0.0780466451854254
0.10395436513911
0.0759879631886257
0.072738972093735
0.0822268506710084
0.0847836415652435
0.0775584336193186
0.0950915309859438
0.118149323858044
0.0791210931507533
0.0925852853781365
0.105215271419834
0.0822860994324156
0.0779964678372867
0.0982732732440503
0.106665424600488
0.144620178955162
0.0861741089913196
0.140863281793391
0.104587515144424
0.0823744698286373
0.0888611786439433
0.0893573689383383
0.119241006714236
0.195529484159643
0.0967902325801821
0.0910233944018526
0.0935814538752418
0.105080640422996
0.0775740905221974
0.113697750151249
0.0879230578944024
0.134954883491497
0.117571387941553
0.156051424885586
0.117287680918727
0.0917897866310964
0.128609898422423
0.0857558042270085
0.0860195253301132
0.0798314869841779
0.0796096066567776
0.0992772835262567
0.110645341404888
0.10270471158814
0.09966411043398
0.088656582170265
0.104664161881484
0.120130347630548
0.0874390227477589
0.0936953478794959
0.0977577812831822
0.096621018736724
0.0837311344617074
0.0927057899522536
0.0849821514985968
0.101404142791842
0.0915368154122612
0.133613334846721
0.124771428579457
0.104063998155394
0.108976408424272
0.116199418108659
0.075330657206886
0.0913968998177917
0.0841629210072793
0.0988452017979917
0.0822837439263773
0.0993701091130739
0.102013040468046
0.132084497655714
0.0810736658379347
0.103546662084263
0.0850236882879947
0.10580880130508
0.0854695698521961
0.0995156404620068
0.0949986521439009
0.105606485795371
0.0856317066597446
0.106040158561272
0.129310072603078
0.127275106531975
0.0974915925173616
0.169712658635908
0.102336857966736
0.106889984662991
0.102063088694087
0.120787099483463
0.097313035894223
0.111501948894538
0.10255771782605
0.120893598097752
0.113989488717076
0.131289887334463
0.110261598649063
0.136180009188569
0.146233678744047
0.196522988341828
0.131541737949651
0.121301403546234
0.12295026486139
0.140820843540968
0.179350383922349
0.146701856647575
0.161870206423329
0.149012309136375
0.123778964748922
0.137972205647778
0.129797216512186
0.142190336003683
0.125980391426639
0.156693146348496
0.132837849819857
0.157628415447841
0.136010425149964
0.152531529716834
0.148286486140521
0.193001071191462
0.174708410518764
0.157522756291234
0.154727109230281
0.171719330463249
0.166331864032935
0.233606276159975
0.18833631703205
0.263189867746932
0.188515394357222
0.24117296940723
0.199220460619146
0.18395560009954
0.17878732935734
0.185489302477572
0.183375870445184
0.193248433912362
0.191428907594856
0.19640596990314
0.198292980247601
0.221011399727137
0.205511131272141
0.214778886026048
0.214372951300262
0.229009662907384
0.235024580977273
0.220652628867172
0.219553042131724
0.239950048142616
0.283503496215133
0.299940809325679
0.259856768029693
0.240777470239403
0.253023572218719
0.238954785470935
0.24910517032699
0.264064082383659
0.256873884087146
0.286634675112965
0.278113486822015
0.316020219833571
0.267806031501413
0.312829288989805
0.270417795941685
0.28839306086487
0.308440252665404
0.302019302752888
0.32737518286432
0.336705695463403
0.302359584572065
0.324567325953083
0.346100264842145
0.309564044773821
0.323156221747882
0.35765260373426
0.298735541221517
0.329191916307243
0.312955027595562
0.349326019103436
0.327534281568895
0.374401307196776
0.338851010250373
0.364370850776487
0.348394011416538
0.383929498210799
0.368892791377646
0.405519744902782
0.358256282909579
0.402196952229253
0.374243657858752
0.380887546413081
0.385211566067062
0.403772282114873
0.433795391760238
0.426651113972499
0.445494790876363
0.435446769906837
0.380224658100357
0.44654632140596
0.390641543509482
0.438591029695921
0.419243889278351
0.457947730844509
0.418878634083226
0.458192643394576
0.442445230900165
0.482373526748645
0.436110805880828
0.462817766375696
0.46464815189011
0.461856499266646
0.46807150708767
0.48802687083523
0.46623931310272
0.510120588708357
0.523940347342042
0.54384062177131
0.520915688121497
0.560324960299064
0.502621596320585
0.53220429212202
0.492529495710011
0.545480729998973
0.533810426876123
0.56368884467161
0.532146568099102
0.541026700987951
0.544242145932078
0.573351031964119
0.535721272424838
0.582399440802947
0.568910419354324
0.617846454652172
0.582213164553632
0.615538913751063
0.56490845640768
0.639555660790987
0.581235745056229
0.628033447498532
0.58739177738478
0.661865689404393
0.590222017487766
0.663305922751548
0.622013196241648
0.671747301221897
0.61613451908368
0.667452390570928
0.628918681871624
0.68545869047684
0.645282240688949
0.690481644743017
0.65733623460833
0.686706708300883
0.689002298998749
0.721601046812105
0.655788014527937
0.729762815804851
0.695103382243905
0.727434347098185
0.691681595560301
0.751103389110431
0.705778802980218
0.768508470266841
0.739061841868587
0.812591662921143
0.717439881290579
0.816863362455473
0.773831595283407
0.818837747494376
0.734063878762249
0.784019981249877
0.746462327714734
0.834342775890909
0.788362405051626
0.800014723242224
0.793557138663191
0.829639591886213
0.776535808159428
0.835082808358382
0.827557051901316
0.888069272800634
0.822347016514653
0.838283054201973
0.788771983370628
0.85229657790604
0.831331296341713
0.821995581352147
0.893060909317965
0.912111542014599
0.866056975285877
0.921120477660729
0.84200371756207
0.955253695820653
0.832882150322058
0.921182453395856
0.91201075708111
0.93426307985441
0.896227280672751
0.991021953389446
0.879224268429547
0.9313951222771
0.920595803158856
0.974506373296756
0.919953826845088
0.970379754671294
0.950275201358043
1.01126778847367
0.921116313211399
1.014640066178
0.912691783264974
1.05488321675661
0.962930322122246
1.11133045434644
1.02781742211896
1.02600851962069
0.961682762300856
1.02081246561287
0.956396564663338
1.02812386994899
0.975179900356452
1.11310608695596
0.948273044089521
1.14643039719941
0.982722580326691
1.10015194656662
1.06268346917552
1.15705031217477
1.06112400510512
1.11178704759445
1.04478268211992
1.07451123572821
1.0120217007186
1.10537250695053
1.12709046771281
1.14902554002162
1.11837959752297
1.19059909101266
1.075625995486
1.22197030521832
1.09470729090429
1.17388215985799
1.17339899944781
1.19484627361804
1.18269454360708
1.31305587461422
1.11770418956914
1.26380985277387
1.09565612145701
1.20245407054436
1.14225752032619
1.19373810250796
1.12141925517312
1.28172394990451
1.20534909571375
1.21362475310426
1.15874995496516
1.21553803229391
1.15411751485329
1.18926082758623
1.15479306093037
1.48827470272365
1.1513124258988
1.30598251716043
1.20948785276264
1.38300722617271
1.19352234496187
1.44751521088743
1.23364975246447
1.34463682431515
1.31565721123042
1.37975931749093
1.19227491207759
1.30766331868512
1.33085553379023
1.46661540692504
1.43140890735528
1.30530326436571
1.21793772681379
1.34381341427528
1.26219531638506
1.34260873586952
1.24775009276659
1.38973909591837
1.29699322259879
1.45944412194422
1.37179881995908
1.4146638722542
1.32900444868286
1.77448966389236
1.32937127670069
1.38026238799814
1.32967874555211
1.4013026169536
1.35087213308125
1.45093944893942
1.25850013120634
1.44502478449904
1.46294107711504
1.87858897913745
1.37605578257031
1.55330850737512
1.45894665365769
1.47444065209456
1.30179822197446
1.39991553146805
1.47652167905399
1.5858019572837
1.37499276470231
1.5855086970445
1.39174181411182
1.58354790579919
1.38826995678329
1.47448968216823
1.46743102308303
1.58327590165051
1.3330592517287
1.48986254250114
1.39063947620499
1.73712232076582
1.41171807347003
1.40899916313403
1.3377135225033
1.43684969002713
1.45993337652601
1.66839990560142
1.5253521558742
1.54697769457763
1.42845213281682
1.54393265928266
1.35707678439169
1.53594356505632
1.4517078288796
1.46652335942957
1.42808467588829
1.51882378510163
1.52071860150664
1.76645447289657
1.4802390732727
1.69230152025459
1.43218614159279
1.4752784736845
1.44329605615613
1.60822422468364
1.58450798729613
1.82382788824749
1.57019225661839
1.6549550627741
1.35331927982009
1.63987220100903
1.50477437304445
1.53122971330314
1.43911033329857
1.55018629656708
1.5594346485011
1.7875919771413
1.71085572051623
1.71559577685734
1.36474952136712
1.68538622233593
1.53827767818097
1.51546449232771
1.4289690034875
1.51761535933162
1.55811721829957
1.64724322822641
1.67720318104018
1.58608332482421
1.51587375712778
1.83427536042941
1.5064179089206
1.518208583204
1.62040920908566
1.6517257528373
1.37267445374219
1.72589901175517
1.56565396039396
1.54159373063628
1.47337459476184
1.7380744402095
1.49332536856977
1.77114068563626
1.50465556755424
1.67293272680444
1.5279687185446
1.505889609239
1.58800849000224
1.5840402218751
1.51203761958331
1.6484499511537
1.48330681735997
1.55514110838764
1.6451008208264
1.70923626994051
1.56203059363596
1.5708560881991
1.48125905729142
1.49695003413786
1.41992267155645
1.52918889020803
1.50093760881639
1.65138858586247
1.49738854055987
1.5210844468993
1.60509434560733
1.65275082642503
1.72721561662112
1.60810393768427
1.51148469038879
1.78864029487953
1.4771883360355
1.65992967220834
1.55026035187888
1.54788593214094
1.58794496008378
1.60642091512075
1.50737500229438
1.67689320491086
1.52341462470529
1.61236817734532
1.54632511210777
1.68506108572749
1.61620231825934
1.58034037460736
1.59611315415472
1.55796428711039
1.52123998414228
1.50015909073547
1.48949879621801
1.63696060208154
1.52721480755215
1.5669266763311
1.6539381559458
1.55587355820923
1.41724633655594
1.69940372546946
1.59171608759138
1.48542259430587
1.5862320705117
1.69458269215114
1.54376614937758
1.46076722558184
1.51595749419611
1.60857212065767
1.49574305348864
1.46692855620705
1.49347542910213
1.57579647075153
1.51371320105244
1.56340750147632
1.50351583690233
1.48070690182296
1.4937915681927
1.643179729538
1.46637014093035
1.48463521760225
1.50744508697485
1.47649442581299
1.42374447714831
1.52800690773542
1.45247156126601
1.5241484927586
1.47670991520792
1.39569000316053
1.44962112974289
1.52217829833288
1.49188512688424
1.55732768393337
1.46788355186294
1.48430376647902
1.46157562530559
1.48124801772593
1.52314356926512
1.46394171211603
1.41697965807567
1.50097167643248
1.52827412220518
1.49695881626687
1.46114685043543
1.55677350571945
1.46695366233198
1.42109345094534
1.47329189724825
1.51896787952466
1.46284692273971
1.46305874850399
1.43751721650869
1.44015573602634
1.38297362626123
1.44283017300809
1.41389433822049
1.53351018031501
1.4302071615277
1.39521850605509
1.42416957113031
1.52255891938351
1.41643113311304
1.4141055497905
1.34044547208032
1.40262018451528
1.38668649043958
1.46346694949343
1.38036915139369
1.38702857064709
1.34634066970606
1.33761311122835
1.31291397734156
1.38624010818298
1.32208108151498
1.37110667791512
1.35478842962711
1.42242439232777
1.35754732473825
1.36487423826589
1.39082181571403
1.31056941077464
1.20954311171746
1.31395003875912
1.30602103536165
1.23771211459946
1.27162325066137
1.32680618755461
1.29255039253591
1.37311101487892
1.27874139301698
1.2997711721462
1.29323072461692
1.29693456611385
1.21963076824241
1.23951032134935
1.26560506336402
1.23518775429731
1.23949964205013
1.25731659577462
1.19268668083146
1.22432095872496
1.22374826766026
1.2145329651938
1.20958795421997
1.2341298474148
1.20176794256691
1.22776614542235
1.18991773629096
1.17761854370415
1.13772377545798
1.19156789681074
1.16949282535923
1.16638573181061
1.16324151654429
1.16566771755506
1.13675080250653
1.12152940692729
1.11687643931855
1.18963848957951
1.13302169511776
1.13399436653758
1.13466744746967
1.11193673104187
1.09349174854294
1.10609208487269
1.10555047820265
1.13317276450567
1.07244540396022
1.08584411119892
1.10250796928298
1.09882104239602
1.05529839619603
1.06065971799937
1.0699119029189
1.07935486951797
1.06567206854548
1.01298295205272
1.00844374586896
1.05603173793561
1.059319970312
1.00022471216839
1.00843716986845
1.01740459705996
0.975539250644176
1.01445473518383
1.00560687805596
0.999379733234453
1.00602566200926
0.98247957504228
0.95605943304432
0.985841494641991
0.95282935051788
0.960857501449563
0.958020639196672
0.964901427017447
0.963503331352973
0.956945475343078
0.972710165268352
0.956596842766921
0.938578884303988
0.897649879117914
0.897092022794315
0.924627588447211
0.906338618801987
0.91356631206759
0.900067708563487
0.907728355041678
0.905966339655228
0.922593581077463
0.895942178037808
0.894118025097464
0.866022653973481
0.869856181456187
0.878911656214691
0.86078216961059
0.85460344013182
0.857356378602717
0.851367183787299
0.875403898818174
0.846397715052214
0.831129262585888
0.844246351668545
0.846778351257609
0.837631073021906
0.827692969304081
0.817275308650821
0.817539029799726
0.826326117918461
0.824451218827016
0.795838510203493
0.817910550803631
0.801823825380257
0.787215810096491
0.790667912149442
0.795532947667523
0.782748623462666
0.786852540313903
0.781551299870696
0.770520804300485
0.766347424182735
0.758516968134995
0.751047452148181
0.780096717849253
0.764677952259622
0.745070252440387
0.75725915829766
0.755638842735261
0.726351789345941
0.735268056003817
0.729230765685335
0.729422943197015
0.724595459473176
0.720988232564031
0.716401906392542
0.722165369009336
0.716270581462266
0.719931536453647
0.699397264456606
0.695468707366565
0.707026348463856
0.710601287663287
0.693368998356859
0.698366728956005
0.679149092701696
0.67420962853064
0.678322537852521
0.667536931568697
0.665191064728728
0.672311060352323
0.669304721655
0.669669429823717
0.656713367507575
0.653667858219605
0.645297582402539
0.6444249497188
0.645452086208496
0.635988882256276
0.634196975942345
0.634111091100768
0.623128454477169
0.626882951703928
0.621703459335011
0.617258135339313
0.622304748423266
0.620662694670203
0.607699179079028
0.608361148525467
0.608228483737225
0.601132756740465
0.592878967948112
0.599009250950043
0.58946720932265
0.596194691101817
0.594685327648131
0.589040286004894
0.578967314797743
0.570878859138457
0.579974896185341
0.576865448681483
0.566576133171428
0.582954462639079
0.568869875231547
0.564367833749985
0.565028561926763
0.553084764058932
0.551610477219627
0.561929025466569
0.560414301366575
0.54677800048955
0.542401584372258
0.548471496774676
0.53772062495559
0.533339571803995
0.538810376422366
0.532989726008194
0.527286088131291
0.527165384914159
0.522893195810133
0.527483279550447
0.525087211176337
0.523579032241119
0.523821379480143
0.517488548982477
0.512208744485974
0.517143958673537
0.512877316464842
0.511589792315291
0.504256684734236
0.505798020285143
0.499144676904723
0.500643938131558
0.507171604048616
0.504769372814999
0.495376919524059
0.50573561792826
0.499841899140663
0.494171165349983
0.502701682528003
0.499531225079905
0.495310482617377
0.492645535385856
0.495229049569656
0.495105344996904
0.494954576381908
0.499748776066446
0.499811006129372
0.499577820683186
0.491307756824808
0.493420350511575
0.494043222385268
0.498283640353544
0.498306756023372
0.496816810405619
0.496407692605793
0.503069975144973
0.503932274903972
0.500399681630447
0.506612012645047
0.509827579871983
0.514077478741835
0.510777497264623
0.507694651373173
0.511036023417279
0.515315989018737
0.51295950376743
0.511545698296258
0.524835233154718
0.518824664311875
0.52241150858097
0.523677288367973
0.525282801918257
0.536311875152304
0.535146349300445
0.526445950098475
0.535338440144627
0.536602909042902
0.53614562496643
0.540964908440484
0.540756531663118
0.539484643745165
0.547740308616816
0.552915746795067
0.551626177523891
0.557101001618763
0.555821434476941
0.552360275821242
0.561751424327332
0.568123837916643
0.572822448910198
0.576853953203117
0.576541079548875
0.56930889823254
0.575913026270489
0.590740916459526
0.595892814896352
0.601876586145538
0.601437860436823
0.599667115456088
0.613547520049449
0.610353033222863
0.610609393600079
0.613764406537486
0.621892556544974
0.617789212055884
0.618187816696752
0.611954088918846
0.61508087544378
0.615577296954458
0.614575077059485
0.625617431791111
0.63124471409513
0.626162360681594
0.621404488982184
0.62244666031186
0.61394931056479
0.619534571984365
0.62982278493248
0.622136253702902
0.609078309045218
0.62452112841117
0.616881234442333
0.605906424208605
0.614117424539447
0.615628393948889
0.613424899408972
0.623331791643838
0.604101991374464
0.603168079743138
0.612280204241813
0.617651855774909
0.615643252024791
0.617007563204107
0.617514355871913
0.615132481041445
0.613244575386953
0.616791339782956
0.608032471388341
0.611601602966905
0.610218012050193
0.607278345433259
0.606173328331772
0.615862577437404
0.614500547163281
0.615954548199062
0.613351988952803
0.611240236373445
0.608160864230938
0.609217263869442
0.607640565990291
0.607321358672922
0.610488514658187
0.614127682406534
0.616722533020026
0.609157537086938
0.610291696304436
0.607843524691917
0.608402407501931
0.606781219981623
0.605608690870163
0.599090490566061
0.593464720841141
0.608716575120139
0.601654472507537
0.60044455200398
0.593457349809082
0.603103902139919
0.602245654139952
0.58543930737655
0.575107940982524
0.591399389328371
0.58925596581695
0.589443110183285
0.5796318962806
0.573990029368918
0.582871624697713
0.574234640377089
0.567329921923776
0.569074500444414
0.560730608935188
0.551813202809934
0.545056674039785
0.542999977710782
0.536584903353409
0.54207729741199
0.537471183878004
0.533287022183134
0.52788349592354
0.525076183561584
0.517093007682056
0.516683550850967
0.507899565215683
0.511589217881568
0.505848305283884
0.506118334675185
0.501799790939526
0.497824394292982
0.488119337296579
0.487822616743722
0.490180879473958
0.483284397520225
0.479338549741218
0.480537210263623
0.471495794124704
0.477510320045112
0.472052724199241
0.461350354730087
0.464309071840358
0.460382365848621
0.459884636844693
0.450459474365934
0.449890704243637
0.451097481770273
0.45102939416187
0.440981085560827
0.438150653325233
0.440220942576936
0.435825876962102
0.43697815296911
0.428531931884037
0.433652455510255
0.430058609876259
0.426619931351372
0.423591189481101
0.423535007219204
0.417870000483317
0.417045546190693
0.414202136009355
0.419848092446865
0.415762201191769
0.413919237038778
0.404991566109821
0.414430964959324
0.406348186717232
0.399056446015104
0.402398843409962
0.403702373809183
0.408707809221796
0.398353856918341
0.394932962939163
0.39642035605367
0.390223262251481
0.394999925797575
0.389115719902136
0.383496338877691
0.38899471958926
0.388413631271675
0.384235919447032
0.388349079045443
0.381245091348214
0.383156447371143
0.380789142457624
0.381376342128558
0.376828747320323
0.370615389830289
0.371546188930206
0.377201236358471
0.364632038807446
0.370144648906082
0.364753315444511
0.364971617953616
0.360581781173914
0.366031721022062
0.363639199701787
0.360618261515455
0.36016029029648
0.361924159485601
0.355212499395372
0.354130184520013
0.354941249053585
0.356284703731398
0.353270113249495
0.352849884158382
0.351791567955198
0.349829234406758
0.350331353349446
0.352613737714622
0.343523230839721
0.353350398034136
0.345117168701103
0.340896659622586
0.342176811806892
0.341872736936358
0.340542877749665
0.335355240053769
0.341082565998426
0.339888999928707
0.336521317968907
0.336989255589449
0.336855255315691
0.340112590156877
0.331192067707369
0.337471124005241
0.334286220327045
0.326988293193016
0.329266461812651
0.329207415672154
0.330954924107629
0.328215009665527
0.326501251976407
0.321207982224176
0.320102610778029
0.322025896585603
0.324774242606391
0.322033581735492
0.322698309428269
0.320406811358443
0.321166885809936
0.325402043432453
0.320264148812001
0.324112305166843
0.318622062679432
0.319248784092167
0.318681264503952
0.317774059272713
0.315864503114704
0.318881292862634
0.317401548145632
0.320076496061428
0.311680147143746
0.313231845650405
0.319251739548406
0.317400918091688
0.313617563876455
0.308884022084766
0.312148226906145
0.313085942051669
0.309295075802918
0.310027146300448
0.310996217304083
0.31208684077093
0.305765643089419
0.306516279118908
0.309857322945814
0.306891052543806
0.310437001120177
0.300282115853794
0.297571583015708
0.300903685826518
0.303844564784132
0.304274724833431
0.303556452105985
0.299237563880488
0.300362196523128
0.297770046000011
0.296827465485531
0.300407365300756
0.295854234303008
0.296866537224148
0.297823685854442
0.291875501981862
0.292669649621832
0.295985456311995
0.290786873195502
0.298252641817171
0.291080403513586
0.286259360826742
0.285555548309733
0.290936602490341
0.286785824078097
0.284767910880208
0.286333188588749
0.289268988467489
0.282138041127372
0.282275977249133
0.282861305645421
0.285077899893985
0.278402300147343
0.281143314074956
0.27796592763763
0.279342325364857
0.276564300410846
0.275364018089738
0.276478776381434
0.277342483253973
0.272463901674384
0.275414959725928
0.273987391432226
0.272813750248826
0.273549184677012
0.269819485422024
0.266085622992426
0.271158037892912
0.27143978327102
0.270602159521408
0.264297447553183
0.268471610442272
0.265366424172506
0.266582997593971
0.26591903362042
0.265886004057793
0.264867284370392
0.258251830943779
0.257932741037455
0.257240321657314
0.256554382268354
0.256747782316658
0.256325809548202
0.252303077276708
0.249828801715534
0.251103769637795
0.250637539521284
0.250426760958548
0.247428647606738
0.243025411196504
0.244019550627106
0.245215999692084
0.246417843921242
0.247227603187756
0.242516719416962
0.242653648056114
0.241778281529387
0.237782783269448
0.239012013835585
0.236155311275759
0.237024710040224
0.234543005324069
0.234250033886075
0.235044536645609
0.231836880122991
0.234663299294389
0.234270516965495
0.229462858053953
0.227160742233836
0.229260512549961
0.225156845588656
0.224347011255263
0.224694674065826
0.225498774917075
0.22306799612798
0.226360542167259
0.22224394685073
0.219652581331734
0.220372194900079
0.21988982224588
0.217888107557741
0.215856138979263
0.214737797677147
0.217358292534015
0.213166697776885
0.215783530051479
0.213599232956461
0.208663220350764
0.211259076675227
0.21259367427581
0.211173765771273
0.208256591068844
0.210576040653708
0.212369873834677
0.208532691248235
0.206888874771441
0.206095634431161
0.207123575278424
0.206564276651124
0.207632585453914
0.201288580978465
0.205888888752679
0.205384735941058
0.200616418112745
0.200238757360657
0.200971768820538
0.197576312369961
0.202569954926557
0.198957679782313
0.193410869021982
0.199140517035747
0.193798378032268
0.194018629019178
0.193133638914409
0.196340249366773
0.193433221794492
0.194481990984396
0.193202983915842
0.190257226873704
0.191890786182455
0.188923436903969
0.193083251084462
0.190430734041921
0.189929494929729
0.189025476245162
0.189093424170027
0.187074421719227
0.190794237259157
0.187676982325703
0.186859854208837
0.186151104087375
0.190478621442471
0.183898140394689
0.186365448127473
0.186340139938264
0.179423615903384
0.179889517519052
0.185761665110646
0.1846088531615
0.179932216439919
0.180797060306756
0.183372944279418
0.182869352634476
0.181297764646828
0.181388069813371
0.182509755260043
0.180649033239069
0.17842047599333
0.180788863574323
0.18093898285829
0.180306274052713
0.175759988428033
0.18054774019573
0.175895430295458
0.176894188206001
0.17907085009821
0.174922769692659
0.180277900566035
0.175286730828425
0.175458380570829
0.177908205701983
0.175501201172139
0.175048930803407
0.176694137387937
0.17520621870083
0.174485302006857
0.174368486145112
0.174625346716656
0.171099084853452
0.173473878294259
0.172415248558335
0.172731997783967
0.170193040369356
0.170551605080627
0.168752867785902
0.169214318506346
0.167492915774108
0.169160306961298
0.170564839900204
0.170711015335097
0.168161838039961
0.169478410100125
0.167213669846522
0.166328182888826
0.170654632744443
0.167868889377351
0.16718920815471
0.168195878280083
0.164561217260156
0.165683510824854
0.161276593322579
0.163604173293434
0.162618271627664
0.164621482354078
0.164069281004373
0.159954902034917
0.165220650529491
0.163213937307717
0.161804550699605
0.15923342538994
0.162619970638919
0.162239154366192
0.161386540069722
0.161733056094932
0.159851309968274
0.159370732617563
0.160251288728536
0.158645244505967
0.159211677999238
0.157858624485235
0.160013432119354
0.159459048380304
0.155222724044149
0.155412776430923
0.159555007955892
0.159998500838473
0.160014068224126
0.156650646296361
0.155896967627891
0.153574555182328
0.156209736099926
0.156145489320556
0.153077662097639
0.152438257129213
0.156637107499503
0.155374076455948
0.153042774012528
0.15471714956065
0.153296270120871
0.150952460405042
0.152092849143429
0.153146615617483
0.151814905960935
0.149293864988531
0.147995052730481
0.150139900374639
0.147021112930769
0.144715481005854
0.151441969836983
0.146683389672909
0.145394723459134
0.147487251157152
0.14680304855391
0.141456754976228
0.143599868426932
0.144143226711486
0.144686086658947
0.142381324032322
0.14351656975405
0.14042844837183
0.141869524893758
0.138726184317146
0.142476958135553
0.139525501674132
0.143405482634171
0.138996808794685
0.139736954275901
0.137655374626898
0.137878335453949
0.135722331311617
0.139792319891439
0.136612544184521
0.136823052723874
0.138166680719429
0.136150644826091
0.134041497284788
0.136786188142129
0.131888494139397
0.134293359850594
0.130091642659234
0.132406581124714
0.133554254147845
0.132271676130489
0.130165022078836
0.131877939527193
0.13096723888526
0.132705040153046
0.127542692569896
0.126187128351333
0.130323652498796
0.130470273679703
0.12782016768028
0.127729224724874
0.125779461755238
0.125895839477189
0.127014553001197
0.127563496368489
0.123448491439609
0.12725788202329
0.125753403265236
0.126372654135148
0.124039232826512
0.123903487078165
0.122387658143288
0.126664334615277
0.121317267611439
0.124734506078131
0.125340253393782
0.122585311993891
0.121463098716144
0.12202090864569
0.118724666948897
0.122916710763402
0.12201764842321
0.121216011849736
0.121548571189902
0.120149280456959
0.121852559699114
0.119854588952949
0.118935655367599
0.11906666588328
0.116079392745145
0.116106300730248
0.118744172573447
0.118409016831462
0.114858261181957
0.117712258125644
0.116035238503523
0.11591532227648
0.113746306956051
0.116781263944772
0.114442524476778
0.115907952662205
0.115173112309084
0.118449642326252
0.113399590946371
0.115908901931472
0.111173756967986
0.115686845319291
0.112919276786806
0.115680231321996
0.112373634954156
0.113711105037598
0.110901914103534
0.114607217480563
0.110950258693039
0.116892289308751
0.110218359176953
0.114220751628469
0.111665310831243
0.116350980373132
0.113268221536886
0.115840736248079
0.110104526540513
0.113297011933684
0.113926135069385
0.119742444094925
0.114429419240663
0.115901110796403
0.111322090755415
0.115775400092652
0.111551506563481
0.116435600364552
0.108095217331136
0.103272878237317
0.0990805939488608
0.103645874707222
0.102952496808782
0.108693086674383
0.102212949303914
0.10017206570722
0.0968645590611812
0.101605907462431
0.0894268797987886
0.10192561241177
0.0949259741438757
0.100854083748791
0.100647148915691
0.0974236363090637
0.091179713849399
0.102601770852529
0.0949521760959136
0.108027201627869
0.0929424307820401
0.106637609568032
0.0997773068647856
0.112091285780212
0.0969699809173225
0.116488106459136
0.0967430267268367
0.106082686568237
0.0956583130593594
0.105955879481881
0.0883456546137406
0.107165617905927
0.0848933134832558
0.107097635892733
0.0895617949927618
0.111071709734538
0.087407960779307
0.111782967994207
0.0881893193018494
0.109180109710167
0.0848570365077258
0.105065702418826
0.0899853278619506
0.117481204437327
0.0898148653905338
0.110384314217528
0.0916685977850207
0.10538202610033
0.103063496382562
0.110726447219556
0.0969618463699852
0.0958328685771849
0.109409074987021
0.100707271677073
0.108711469438492
0.0840690231354743
0.125346642644205
0.0898716285034912
0.122250514592884
0.0865379889438504
0.12816206979761
0.0838563693702959
0.122647141524678
0.0908142026926416
0.117471186695173
0.0962031609234175
0.113919845375653
0.10004828092964
0.106061462999108
0.104070293072906
0.105225842119351
0.105018752050765
0.107347407705131
0.105299568446524
0.107911033936183
0.101990712126301
0.10935920910765
0.0993822303437471
0.108162896467246
0.0994306242106005
0.108079078175768
0.100847760550086
0.106842665804944
0.100320538424207
0.104242865843046
0.0996768690820676
0.106600477321228
0.102896026796543
0.106756040959316
0.102034577604585
0.106010481644984
0.100159155174952
0.105880318637892
0.100342916159463
0.104631241246278
0.102802075723531
0.106465733983318
0.100964903184531
0.107359339737045
0.105567787534113
0.107561707348466
0.0992871957835586
0.105747753893741
0.101582240179447
0.105959651621596
0.103195206835298
0.103667715386695
0.104150440170584
0.105383639960031
0.104612310190656
0.104689405507857
0.104356372557012
0.10801216574058
0.104139785078685
0.105845376402431
0.102000290789826
0.105288512305839
0.104694159115049
0.10594779088952
0.103644104990605
0.105635215710911
0.105645420838813
0.108737489389145
0.107644636354174
0.105998160219389
0.10563998372735
0.106867768508531
0.107250079874154
0.108406677425169
0.104882752281733
0.108026045409576
0.103589008546529
0.107588363497332
0.106408455791247
0.106988187279205
0.105832128382725
0.107737178938067
0.107740717490426
0.109896775535578
0.109571838365347
0.108501283495537
0.106327840483155
0.106937776477609
0.106022135376953
0.110245118095012
0.106372632323966
0.108638677455972
0.109650704237684
0.108540162049241
0.107362264674205
0.107945399304528
0.106498699200464
0.110489954832972
0.105451948076046
0.110795842092166
0.109163215195211
0.10860782852685
0.10995411943427
0.107676876891328
0.108053102403571
0.108145783616141
0.110403279094935
0.112096381161423
0.111704970578595
0.111088562795021
0.109262524836722
0.10980221284302
0.111177591358756
0.11384850796615
0.109261084612879
0.108335323756743
0.112996751200599
0.112779007862274
0.112507632944862
0.111271344843175
0.10932639816309
0.111407211152587
0.109178676450262
0.113845482013208
0.113876978344773
0.114026878302446
0.113494566079499
0.115176414654983
0.113620180859472
0.115480251042167
0.113250115195393
0.114424836774609
0.111822230509797
0.114711728938493
0.110949665956966
0.113414703518394
0.112939848971886
0.1162813009372
0.115669703159147
0.115659419114888
0.112052800328577
0.11353200588953
0.115138977865503
0.115427184662969
0.115381501144077
0.116931551135223
0.11350546905877
0.11668160966132
0.116793645310668
0.117023044476353
0.11616896045155
0.115159725841997
0.115797158928016
0.118221919852292
0.118550860391731
0.117053439498944
0.116412725260746
0.115797440758301
0.115144108577003
0.117523763354991
0.115787423324392
0.118087001615147
0.118889915413376
0.115904370383724
0.118551249574317
0.118946162633433
0.116863969538637
0.12018364878767
0.119217654672238
0.12045327464886
0.11850557699334
0.119980884801928
0.119196212556213
0.120136960477414
0.120107950369187
0.120862664121819
0.118513398353753
0.120861653130603
0.121660228551563
0.119428796308878
0.119516156352835
0.121253489144052
0.122301749529117
0.120704920248461
0.118421939038049
0.121049260965382
0.117989428375319
0.120810798078038
0.118805700409032
0.119943826958999
0.118309476244804
0.121312222652208
0.119463859832519
0.118981346953675
0.118175798141241
0.120269267129099
0.11962631863344
0.119589589113048
0.119653309080928
0.120156204023548
0.116121744763106
0.117358010761969
0.114929994531844
0.118441693940877
0.118363061737641
0.116230158114557
0.118316050657198
0.11934136301864
0.119775884304607
0.120442670185618
0.117812081657162
0.116142583819049
0.117178661395645
0.117925409857632
0.11727353940071
0.117451782156156
0.116631284737131
0.114256356968296
0.117611369762653
0.119093410137916
0.117079544582639
0.118011839336349
0.116608527442729
0.117894638751293
0.113182278114112
0.114567508691111
0.115114991897108
0.116317398174213
0.116803869381497
0.116105494812796
0.115540428655017
0.113454321371696
0.114693028314796
0.115832674486827
0.114371224360843
0.112657871954859
0.114417512570065
0.114812554962598
0.114370782482087
0.114391375207046
0.115743216580257
0.114052563241678
0.112899010293481
0.113868301288639
0.114225178255312
0.113790604354172
0.115370953921461
0.112717410162188
0.114127588196368
0.114598541382595
0.113665351432516
0.114953613940728
0.115666262034064
0.114040768642354
0.111140453691992
0.111731779641996
0.113455458884604
0.109560487946632
0.111057907153043
0.111907645960879
0.112620762543414
0.112798714557558
0.111485683767449
0.112298193542293
0.110637224192641
0.112964184341527
0.109932076379724
0.111929488228174
0.112461886113498
0.111508048177112
0.10973647191492
0.108689713024146
0.109987567551879
0.112732251786552
0.112804910885167
0.11011604369283
0.112111803410264
0.108655669975
0.113441717721224
0.109458396080158
0.108454725908719
0.112138093339464
0.108531722720844
0.110377196136632
0.111711091203171
0.110446562063199
0.109678331598353
0.11014483741683
0.110266978259848
0.108015730013154
0.10838022084159
0.106564468157317
0.107021833909983
0.107137542038363
0.107316208880186
0.106642629182495
0.105344820508262
0.106222016181744
0.109531300677308
0.109269564679249
0.106672326285134
0.104758769555926
0.107003510173808
0.104241172239189
0.106192580265038
0.105426267031013
0.107217558704728
0.105426984859262
0.104282823692971
0.102894982479002
0.103387978878687
0.101799693990864
0.104184885309086
0.102643137618393
0.104061106401457
0.101531277870169
0.101992420141432
0.102058252679462
0.100932320908137
0.10216904042789
0.100441658054524
0.101948759619645
0.100144980052291
0.0993769645811184
0.104800263529251
0.104234108281233
0.101171743452264
0.0973823916677539
0.100760019921009
0.0968417333846224
0.0976572664108426
0.0960266555100245
0.0988427939443711
0.0962102385204385
0.0994815593261256
0.0973159934047046
0.097351950050746
0.0941629066781637
0.0964696836196366
0.0944753208876495
0.096690722185904
0.0944883489458377
0.0983808630505155
0.0935059480876449
0.0955556555744937
0.0940770674776625
0.0954636167573243
0.0913433156056633
0.0956558770489736
0.0902641287292069
0.0972046573705311
0.0999362539344865
0.107284464044811
0.0931793273701877
0.0954829628917085
0.0967251091040127
0.0954637885492478
0.0913573793113492
0.0916838713933839
0.0919575307460263
0.0945432293429481
0.0921035921189798
0.0918484796542991
0.0896484839561036
0.0932523078790236
0.0914320269359612
0.0893921937076251
0.0903149739611525
0.0919570239485454
0.0917896384808916
0.0922937697206271
0.0898757451080676
0.0929059463677505
0.0883636781580051
0.0892193814230493
0.0882604830127359
0.091046148931109
0.0925265042653132
0.0990426568016937
0.097664748519118
0.091065358792341
0.0906365565363061
0.0896548774210423
0.0876647067126442
0.0882942427134889
0.0897017608783334
0.0854095592357274
0.0858592530208791
0.0870549918227934
0.0872166562899553
0.0874209856904596
0.0879858033141509
0.0890103899010657
0.0867797455234495
0.0874458347723323
0.0876150654099814
0.0837668385104895
0.0842860077779342
0.0866027573962521
0.0857998192088413
0.0884954960170732
0.091381482915487
0.0853791931824025
0.0872901384074324
0.0938661375179976
0.103844568179695
0.0889454400916954
0.0849604813015549
0.085023368997777
0.0825755120964918
0.0862957694902543
0.084789018752504
0.0849304413402085
0.0829732067230607
0.0854167541186452
0.084355374147475
0.0838513054682444
0.0824657787128665
0.0856646790498162
0.0807344572883233
0.0851607923174243
0.0833551515395564
0.0842232599143736
0.0828599721858252
0.0854373683498565
0.0928706910402919
0.0965335276961368
0.0893415848668345
0.0833856899014942
0.0840333234937782
0.0930033538328381
0.0929871346011642
0.0963353058669373
0.0767426775447263
0.088089013566502
0.0761814622657464
0.0875885515143587
0.0782371957883168
0.0884438562888143
0.0838167556439646
0.0934894258333513
0.0828912268751647
0.0857841820516162
0.0823768322256873
0.0820978325573096
0.0814568133029501
0.0838676804839369
0.0800795730130112
0.0827807637563024
0.0805153849860615
0.082940827604269
0.0805596017194502
0.0871233613747281
0.0799725544116012
0.0852501296638085
0.0831693373005896
0.0909403225606598
0.0770136867952914
0.0843067727951881
0.0794938981310229
0.0863921896395732
0.092655826366564
0.0990262368380093
0.0824008283007028
0.0820926203674884
0.0835599369677613
0.0806484330753572
0.0835084541451204
0.0799777721983146
0.080747818577483
0.081231972647593
0.0797752671016837
0.0811081520606965
0.0803988251241199
0.0805398814572535
0.0807332601214556
0.0785246470763226
0.0806023558885071
0.0813180494063186
0.0810000409255703
0.082223386409114
0.0797427675800243
0.0926177248437137
0.097792686467097
0.111442803146097
0.0918832265728696
0.0968417960528442
0.0851689013164295
0.0833271721388071
0.0789849584188538
0.0846419561239468
0.0795081348992031
0.0846759733936436
0.0810825064788667
0.0828512128131545
0.0819882663918127
0.0821002384604179
0.0789437081402722
0.0844107472765178
0.0794850300789596
0.0821237000075963
0.0814163647628665
0.0805921743219041
0.0826187397702894
0.0798359311868943
0.0847352783056702
0.0887099411294552
0.0938719066043914
0.0795973173178504
0.106960727889587
0.103500709842669
0.107986901086749
0.0846604107990391
0.0884037384145729
0.0837563445044648
0.0811212434059207
0.0843417408138192
0.0872238937237254
0.089364071326036
0.0851749264295895
0.0826552792781796
0.0848424669770494
0.085302832344037
0.0813483333253988
0.0891025152226516
0.10240711399986
0.111048537622993
0.0958719355837841
0.0792280545054674
0.0884738257847596
0.10222777427745
0.10535200042909
0.0926486237976056
0.0831092110938417
0.0920335470095668
0.0808082223585469
0.0875303436945184
0.0807731999980639
0.0893740241612333
0.0889108355343029
0.0913957717908606
0.0833191655700732
0.0898511973310861
0.0863457370204433
0.0919620101349526
0.0965398711444003
0.101141253140463
0.0950525037521659
0.0919219734330721
0.0904312282636149
0.0925721928460901
0.0829195420481528
0.0901442021680622
0.0830577007083711
0.093697257104673
0.0980658245731622
0.105548138264569
0.100797966215587
0.107823579988038
0.0986806785941649
0.0949234947817178
0.0929253530967895
0.109334559464447
0.0882231261469881
0.103042205812702
0.10790106898045
0.123388743974866
0.113716581230019
0.107722321616795
0.100114934128925
0.0909252742034651
0.0967970250325327
0.0890473361582746
0.107826395329097
0.101180336006255
0.105889961948797
0.0847830999706363
0.105481431314724
0.101088638950081
0.112215153847362
0.0971373945429952
0.103323698026649
0.0923231941764011
0.108381641775746
0.106839725982182
0.105059986748548
0.112222656220527
0.130698609974862
0.138541013203027
0.109448126606076
0.110538400000676
0.115948709525381
0.125298132734003
0.112701790955836
0.0969897110859565
0.107672841358827
0.0966504172546355
0.107608258623204
0.121074905900494
0.12658075456944
0.111813887725396
0.103772694994302
0.109974043661917
0.119893154239408
0.126625899654407
0.12045390704243
0.105920336596921
0.116172858626737
0.10743977128496
0.140215546940947
0.136164551353492
0.145567364627886
0.128263935919839
0.15225001648947
0.138195787441442
0.134297046690919
0.129929075811169
0.130706805516936
0.144502032663776
0.144846358572541
0.122428135519201
0.135236585553654
0.151972981622942
0.142162315057615
0.13754817886751
0.128073231104712
0.135215039970385
0.145976909974213
0.19642487552046
0.192298497548664
0.161021985372177
0.142449831696728
0.162041502265648
0.165185274419706
0.158447320025995
0.143562927053993
0.14910744088138
0.144312063107629
0.149063924574935
0.158750730472329
0.162046183818929
0.161001060443999
0.154403805171599
0.162741881676713
0.169607807094604
0.208007279373218
0.228959896420506
0.187236310804031
0.203247491242164
0.196800742728901
0.203640935399522
0.174032476592504
0.181042914650792
0.180833414100948
0.193027099960286
0.187366797929451
0.185076655892013
0.198475314660235
0.213767361607372
0.218828729724165
0.216255182281616
0.213431437172254
0.215800720107314
0.217221624954804
0.283192823314989
0.245693553066231
0.271267428737796
0.21937129047934
0.272812663596358
0.268442502410991
0.306492669345515
0.267458014816095
0.265171265799185
0.266749491073814
0.283702010252347
0.288738097364082
0.30400091789749
0.307414809433448
0.329305544759128
0.312122362492527
0.341835284457975
0.361131537825219
0.449957330803741
0.389477732861361
0.370641509087399
0.368092629423681
0.408097972380615
0.398241151232489
0.402658531363358
0.39337112724774
0.418378028344114
0.440708341523225
0.468350647434425
0.444473688051875
0.446087988203244
0.476579910191814
0.4770142062525
0.49885564919471
0.496882097738734
0.534100978376118
0.505040993662208
0.510983326110738
0.522145528080813
0.524067661478846
0.555857924837745
0.581375373175626
0.580166200021966
0.561110779226998
0.574073448952081
0.56975653114148
0.587389836871383
0.592680311216769
0.614262968297679
0.617895942763146
0.662878732940266
0.711126864039128
0.739338084303163
0.670536022489541
0.633070170400994
0.627043889734466
0.647580855262721
0.677481434389797
0.713942687854417
0.683997369225473
0.681974386561062
0.637983540750218
0.653915877685681
0.659880752833856
0.651165195154038
0.657067747479474
0.660772932119843
0.664178825464967
0.669714276015466
0.69650220759128
0.727542422494963
0.716242017358252
0.667279737945405
0.645901014013522
0.651220835329405
0.641726411049567
0.650249660249042
0.652094245113571
0.669316571888608
0.653667177356389
0.637621269394858
0.617244400994777
0.641843263427721
0.641983144320195
0.638744636975984
0.589808367790345
0.611698033877696
0.583812020173166
0.571624941024957
0.581736180889574
0.60522616063318
0.586548531146564
0.566203210443483
0.537303063731812
0.547228736852066
0.533679752705152
0.539227069898522
0.525263835525808
0.53656010180558
0.515211055617373
0.528323422056596
0.50696999238989
0.520179307546795
0.502743198481468
0.507280553375672
0.494303283172825
0.50664117141712
0.497505575696982
0.4928843136048
0.484762479336473
0.491247877311872
0.479122888420024
0.495008725796167
0.484749973124127
0.490509514878243
0.481743942208283
0.487391528943147
0.474711966944053
0.485687713343507
0.47946509317395
0.480966776438629
0.472455679351433
0.472676570107259
0.467885100676959
0.475734846468269
0.468520311072648
0.477354742661022
0.469451467016538
0.47776713536402
0.467266171971077
0.46547298918049
0.467307455189902
0.476028939769423
0.491176513312884
0.511868465331643
0.483002962732817
0.471178224824949
0.462276362981783
0.461460775395794
0.451085017389429
0.478694255522944
0.494434130873123
0.488812159813506
0.450687645395499
0.446041082718693
0.450316821654832
0.466823007288023
0.44887652555451
0.448298747351608
0.425749789989251
0.466015929374019
0.480393979952889
0.556543847524292
0.522961201693158
0.524314650636056
0.438286482634323
0.439745750389934
0.462852856483578
0.453277867999429
0.433002193308312
0.419009094437456
0.426429088266035
0.46198363543262
0.4404020351646
0.42077132534944
0.409026037779583
0.421313907097183
0.45689726007425
0.439335196531592
0.4306593466122
0.454485798564401
0.443711012008227
0.448051091951965
0.477477882298559
0.479709490337092
0.405718307529329
0.388544885661787
0.386096046888015
0.392219872956904
0.417158721870279
0.430862151573121
0.389554040746314
0.38356581784929
0.368448651395061
0.368847279893331
0.372948106261721
0.387985414193667
0.367149540568972
0.398408069043305
0.373817434744461
0.365437942496224
0.367339141072182
0.396167018296763
0.399700661971778
0.411785883509221
0.347869465148981
0.351641679470655
0.388353805959209
0.379105462897053
0.36047236113259
0.349117843130998
0.32549812536254
0.346457054215578
0.331391517502162
0.329879780315213
0.343368652584611
0.349214287279929
0.375352652076533
0.386646937351136
0.408164546423488
0.365982376675892
0.310971194808632
0.302651545580381
0.302008581368836
0.318591262949101
0.297576908193596
0.310528437946194
0.33654751163618
0.312708964814161
0.317212466339665
0.338736173745825
0.308196052924411
0.301435796298974
0.300335375672135
0.305387069172522
0.316943010095807
0.356662098586421
0.359752939194129
0.334523888164318
0.340830169336534
0.344285532509284
0.328277706872383
0.330417521986673
0.33096264562256
0.329481215860684
0.345359065016067
0.358890874516271
0.349707287103408
0.361745248470701
0.355297477081925
0.37188032779547
0.410534900792004
0.397394206068195
0.400308092055207
0.424845439267519
0.444286552337673
0.460948638671331
0.435731354967935
0.431301033864768
0.426679025293223
0.439874785869058
0.438883021283534
0.455077749982718
0.479199176216154
0.485099623805077
0.464290534627158
0.473418602901571
0.478622190972903
0.486096315433775
0.493161957401975
0.533720958400977
0.534917649899445
0.577939326955627
0.536915234708234
0.532629974420869
0.504754849012808
0.514135209564024
0.521947493860517
0.521737673523123
0.507087819957258
0.518930392732259
0.53046295299435
0.555291275105055
0.521425159500263
0.534033982143007
0.524427061937143
0.540432901568881
0.527720712767673
0.54093780788744
0.533372247454317
0.549540790473892
0.54562381170258
0.556278073392414
0.570254567020214
0.615741758798244
0.577607875661896
0.568617268914695
0.562193226973226
0.577582892533091
0.574384309391702
0.589131677681367
0.607452008837946
0.594638571293798
0.593069880536931
0.595757257450645
0.59742639184847
0.606564775345162
0.623435817172635
0.62772309675625
0.608952854115964
0.617731372226966
0.612610913950876
0.683104943580528
0.645031851246413
0.644739166081125
0.648394565063668
0.646944695817391
0.628053382675966
0.637591362621277
0.628602483499561
0.643525991349509
0.63680350908317
0.645787030582057
0.634920212391711
0.640507519340434
0.635985738953066
0.636891320526474
0.646325984502438
0.668974148320844
0.636629153489603
0.640884374184639
0.636133683264537
0.643009637745965
0.637944304182594
0.676330155797735
0.65725502948966
0.641188180029227
0.643426799755351
0.666467590979014
0.66192398337874
0.656225179229279
0.625912648321264
0.636827658378632
0.639521901502457
0.641981697778671
0.63577544508694
0.664911074005347
0.670987802740974
0.659517427949721
0.652012260880817
0.653765332304813
0.64902240981259
0.662612899370052
0.655835043520919
0.666494129134474
0.662245660841131
0.668484896191395
0.678976405874216
0.671857537140592
0.671739894652717
0.695012749102201
0.688560033621242
0.689881142593839
0.67007559665942
0.67785851193484
0.664333929769517
0.677961027124708
0.668670156377952
0.65189524361605
0.650762969766725
0.652683153925447
0.643655714968875
0.660760777334964
0.673284047276876
0.640145437945055
0.63861163981644
0.625985976563189
0.615018637315412
0.612425841170393
0.612386422687364
0.603198237151451
0.603019315695279
0.607948743458811
0.597787093939663
0.596550407289159
0.59308927936585
0.594012863062635
0.588629807908244
0.591901171189439
0.58439411915643
0.585975933280595
0.577168470109547
0.586132829950779
0.57501050666373
0.58257291983992
0.582000132954246
0.583250395066405
0.590861259441367
0.602780447520322
0.606629615811376
0.593832881161434
0.591210274333172
0.58437852407102
0.576599660765564
0.575821529176305
0.574327623790166
0.580732106213515
0.571956780570813
0.583427722910067
0.573415069478012
0.575525806167047
0.570947163655642
0.578009737017617
0.570912170691412
0.570943088543374
0.570317944216181
0.5749604245088
0.573258650227525
0.57512939526437
0.571689244433102
0.579576517099173
0.57389192032741
0.581297197094077
0.571317237792887
0.569253187832657
0.568309057505542
0.573914221118619
0.579837233696203
0.578293246904243
0.569404331556024
0.570926539053778
0.574770601525611
0.572947967420084
0.569138280666617
0.5714653010505
0.562504004553337
0.55818600523308
0.556179045436588
0.560317407139167
0.553293112675319
0.550692009022739
0.545526441143676
0.542812463253239
0.530305572349397
0.535567029895838
0.5271868365566
0.524902962941036
0.522667147894955
0.519960867380631
0.510180961390657
0.514315424487002
0.505202522938348
0.506405438422649
0.503282970623864
0.505285141429358
0.498055795224629
0.497424485759517
0.494524348484389
0.500738619812277
0.493303341402672
0.49750792190987
0.493022367889414
0.49371839997295
0.492823849429249
0.496811211129756
0.494246403764425
0.496627433966618
0.495315461976444
0.502206305571575
0.503851875110906
0.503290677885845
0.500836432363011
0.507897934774966
0.51015288503188
0.513783260080887
0.513983717685241
0.518077406857419
0.515748062364879
0.52088704171569
0.523367788746406
0.522125943185685
0.517692785735276
0.522128323584763
0.526291055873914
0.523976028251952
0.5254231192689
0.531035099160808
0.521662036447575
0.525488307031475
0.527785127465448
0.522819564640655
0.519049045226801
0.524094112812527
0.518490978614112
0.523935375533966
0.514220261719075
0.520933264609269
0.514944540089037
0.515379202333522
0.508067475087858
0.510103592483265
0.50825878359152
0.509341712152184
0.499973249692991
0.50761894578444
0.503898437258978
0.49925413188584
0.496491174328299
0.501102468417333
0.494774805467086
0.49532314640437
0.489988081766629
0.492281742438609
0.485983253381111
0.491909228563412
0.488778276174797
0.485212527778748
0.484487756002037
0.486356645938644
0.48034279118185
0.484256067730365
0.484173813470725
0.482548597091959
0.477172156582387
0.474543358387998
0.47463073574304
0.469760835918793
0.46707197981509
0.465492038666764
0.462812887437638
0.460163001903619
0.455136316502866
0.453257648090923
0.450517744289824
0.44840207624734
0.443648951776394
0.438070610276302
0.436435128396722
0.432834094897331
0.430600056409661
0.430829160535127
0.427765730450081
0.430053581593066
0.428277186117045
0.424435897176784
0.422342353365115
0.422641780506906
0.421473904322007
0.421283462990078
0.418760903725533
0.421683570525189
0.41450917229784
0.410928535642835
0.406702169702757
0.401573724183392
0.400013014105616
0.392086862898364
0.387153661351952
0.386145168856073
0.379353869482671
0.377271550405613
0.377054971188952
0.373651685040813
0.373580797049794
0.374146558772328
0.377929481791627
0.383631936859254
0.385084372089702
0.396885310229691
0.401209331238942
0.411647855228972
0.424215849025839
0.438588050934078
0.451321735847854
0.470835128043447
0.481961478294886
0.501566305113804
0.519735775829436
0.538586693960368
0.551564328771184
0.574327120342929
0.591027081677386
0.608375579411012
0.627664760790313
0.644413212446526
0.662296837311006
0.683107283744776
0.693568255391551
0.712763393457104
0.722171803255117
0.742620006453535
0.75322016887172
0.757792237984397
0.774043724923961
0.793477871972099
0.795542516678542
0.806747977790441
0.808804329955054
0.817538201782399
0.828488591846196
0.828264346906326
0.830977427747079
0.84071216080601
0.83398830521044
0.836168616619062
0.831921151062431
0.836011344231634
0.837043670988788
0.83962469969501
0.840688774319998
0.839764856786111
0.835494365766317
0.836502557826432
0.84239944082122
0.845854046271662
0.852639088316998
0.851459696962077
0.862169784485316
0.871273679081307
0.876743370552552
0.87698514998446
0.883512839626784
0.90694628786421
0.905919319756073
0.910339204954151
0.934930514667162
0.947593831087424
0.9453038105473
0.961493688129434
0.977935232104699
0.994391733853856
1.00270476083607
1.02257292703353
1.03569811972986
1.04921740603912
1.06185193261344
1.06477162426053
1.05970382925806
1.06943249689242
1.06318819330756
1.06666200473101
1.06119116989195
1.0668468864351
1.05634737373013
1.04926746191434
1.06247031516578
1.04655032965374
1.03509830481126
1.03934052243756
1.04733437952688
1.05618051166297
1.06719004623375
1.0642425381971
1.09063302044827
1.085177002779
1.11514137223375
1.13567536359968
1.14032559959188
1.14810723948144
1.18556249343731
1.2010641070769
1.21253087446879
1.22234024935213
1.25835372323406
1.25171790048866
1.25854948745016
1.30209238443672
1.32828454142115
1.32798106306536
1.33405856102652
1.36773134504357
1.39704902400269
1.43639427642958
1.46102025813833
1.45542649031945
1.52559239770852
1.50912890621945
1.59911209221054
1.53516253811307
1.56297296806269
1.60204651790778
1.65282600793599
1.67243979153606
1.6718176761506
1.64275244723379
1.69587956276493
1.62627957977855
1.69690899128845
1.68355287042784
1.80826051164387
1.68859425568126
1.72706593046059
1.73600913843229
1.81207700479472
1.72347848889311
1.74087504507397
1.69389963745325
1.65783232734729
1.71242703772198
1.72840138562604
1.71819718698837
1.7059202061831
1.6596620789939
1.75185439409994
1.75069471616373
1.73151190546267
1.71147276189585
1.70471963713651
1.76410872080192
1.79527225136623
1.74912035224833
1.81024870861893
1.83242383044845
1.82205261772777
1.86240303276919
1.98403574028533
1.80352276029859
1.9399872712575
1.76155949413723
1.98090338905903
1.9259691471655
1.93452880395332
1.9669990008616
1.93465286609001
2.01755324563517
1.8206526777221
2.01649023798674
1.99096685249887
1.98390103313657
2.18549664370943
2.16417171234402
2.03386644261881
2.01125815697406
2.07834016867414
1.95276348128702
2.07450483254315
2.06346956147521
1.93236827925989
1.95470242387296
1.92885940882568
1.95000203468769
1.99331987323157
2.01949189738949
1.95199060461298
1.8330645681303
1.9133651419005
1.90809962610354
1.8748146548076
1.68395282071703
1.76455387898778
1.67888163468805
1.68096806846917
1.62210327248214
1.59483713850308
1.52933891993231
1.47155152062639
1.4221067499101
1.43458920635788
1.38605461107961
1.38464672992556
1.3259125474807
1.30547088014782
1.28540467037123
1.26033277708223
1.23437132188304
1.25290157737681
1.21465441630797
1.22867228836415
1.20506501882448
1.20899119698792
1.19996453764586
1.19173564184434
1.16462392760919
1.16956049312898
1.14845971809114
1.1189182661227
1.10937855100425
1.09114825395142
1.06392743390895
1.04933775138581
1.00770558433952
0.964172254883356
0.964291672820159
0.930098233215111
0.87946995341032
0.870538346962138
0.827840171661422
0.803672047757682
0.771825410682608
0.7356885211303
0.705405380613497
0.679353107748868
0.651076621356785
0.630893699339152
0.605210715494806
0.582012664422091
0.563004737187604
0.55081586892073
0.538472074910546
0.524663740214421
0.505478305807847
0.49097209939969
0.488809670252753
0.483579807117108
0.474641679005999
0.470651226708608
0.460693254726868
0.459546861735349
0.459341436847703
0.455354589428021
0.454413323319371
0.457470942767627
0.451190824321724
0.455592280858046
0.453128416724968
0.457768581156174
0.457345418044715
0.464730245114489
0.467962468043494
0.47068678257865
0.469202823117362
0.46846776511177
0.469928640367411
0.464915124477155
0.46332692917062
0.458382444237537
0.45417587294963
0.455354844867153
0.448136344724282
0.450559626268497
0.444109561455813
0.43849213038813
0.434260673988888
0.438586311897346
0.43442077931975
0.442514401813478
0.436412188374091
0.437245439232068
0.443329800629883
0.448660872577236
0.44938795051975
0.455224073855238
0.458787840720402
0.459175169076371
0.462761810088207
0.463901470631727
0.466991280151235
0.477254408917669
0.472644254940241
0.471654522807648
0.480380375018591
0.481061518078794
0.477085546222534
0.476635108703097
0.480404274809794
0.480675949676205
0.478221049842407
0.485897875979623
0.487950906659454
0.492393325137329
0.486360032291805
0.494577732126972
0.503936696127503
0.506856567855655
0.50836448128976
0.515785775598208
0.519998298495012
0.5359216317971
0.533373663865559
0.553940017805587
0.571180540364711
0.591080135414773
0.597999392715672
0.616091612008847
0.624100055461427
0.640631365129465
0.639956817420389
0.639625790327567
0.63844972522279
0.645264326839009
0.637131579987934
0.63337387973748
0.620689259221972
0.611617309899127
0.591913115907266
0.602961242200599
0.591810830830258
0.585244004298307
0.586968579581469
0.586315373454246
0.582012212150402
0.587277590424623
0.598769707836338
0.59259577214997
0.586603210791458
0.596659345511492
0.590450642653409
0.589182156140115
0.585629132480368
0.583857405365509
0.571332056098089
0.577083522525264
0.573503941295097
0.573193347147948
0.559066237050326
0.564062519423802
0.55275554635181
0.558654210191275
0.540754034328975
0.563201082163712
0.539206430466084
0.54130984894597
0.538549075128784
0.537846343573496
0.546884253161339
0.545080409498171
0.538533311186003
0.54673063445844
0.533864316049241
0.524625486694367
0.522090312721996
0.519329605442434
0.510376203902488
0.529955373055398
0.531599882707227
0.527445117769151
0.516576610669608
0.536464017022526
0.517511486688085
0.527853742411492
0.524784796172006
0.531288754977619
0.514960371089204
0.502293790474101
0.510741817626798
0.519101815834248
0.51034006687112
0.512832259626108
0.509567619184235
0.531193720147818
0.516884255875371
0.52688727534648
0.50962258943612
0.511988732816236
0.503950577835621
0.507076177721085
0.522779381022782
0.515263736196077
0.51508458557832
0.525931504224924
0.5078407184223
0.532625542783506
0.528813291683259
0.519174096710309
0.504520139894153
0.527140512406894
0.530260286575343
0.531927483916897
0.526804566048644
0.541073283946035
0.541341312459702
0.549837393141278
0.553301628567037
0.572943285709015
0.556308679247247
0.547560848566532
0.551183521800416
0.568729250116491
0.572994182100885
0.585499094664637
0.573919003349471
0.582855121719919
0.581834920168476
0.586758882903805
0.609227465460174
0.615610815711802
0.624305746547331
0.631581315766561
0.625416305636744
0.659249053135271
0.653319284052721
0.664973874740708
0.643442092582491
0.702738850286875
0.704149318047405
0.753055423033946
0.728965664361641
0.753590473599847
0.767843148018256
0.783110950479134
0.763241971929573
0.83204176846494
0.841489264085104
0.830175889337051
0.823428224634244
0.899694935177375
0.86995930742856
0.843810243184927
0.815255490905843
0.861069226514808
0.856874597067755
0.879662720180969
0.837138724103211
0.852612885207576
0.849934334998623
0.853436415253825
0.782072316283934
0.810094919044159
0.829249621342103
0.796402964884469
0.816403308119913
0.863505916010655
0.781185276962204
0.837353298244609
0.782024802237117
0.797650559550172
0.823470843612148
0.821782874868258
0.750609521516291
0.80255204138962
0.778540663612632
0.825192168451674
0.781805315713633
0.783787969591854
0.751156823083525
0.76864553770738
0.744540259790518
0.808457491755052
0.835958832510451
0.812329415764601
0.769560461053207
0.857874787313056
0.777190046729544
0.767527588216771
0.781235653325774
0.770567524967896
0.785249412062363
0.827833047352558
0.809290367891336
0.839218243190114
0.821772449219635
0.847959157636194
0.816561843215082
0.795352694831839
0.752696907108391
0.782755116199337
0.78459700278906
0.779706859335114
0.837704745246105
0.867388174379577
0.768256568139757
0.857059830066977
0.816092808243413
0.84865125631941
0.803982445811639
0.81264842218807
0.922548505841821
0.868465730722654
0.762166760694361
0.954932051621699
0.903211266398349
0.956685423417199
0.90827641957112
0.993164111690758
0.880464080724024
0.93551278528951
0.982120578241008
0.921954053970314
0.989503948082962
1.01532127962246
0.959159573131319
0.939198138499575
0.924378022864289
1.14316883242785
0.911174898688091
0.920655681483342
1.02431328000723
0.948886687214273
0.979671658506137
1.10205039336555
1.07417089005879
1.0748235126435
0.881296955498426
1.11036829275593
0.923795025877926
0.964749527504926
1.18358791460391
1.12444771536377
0.991919666348793
1.11463812123746
1.07002169604022
1.10726242705899
1.01811576016946
1.05221291409172
0.963491225913991
0.874002317990484
0.882945951606582
1.15492970583666
1.31584320326765
0.989305276648299
1.04158730988135
1.41435216277639
1.12442768246395
1.12293567354054
0.814893581518165
0.863701971907255
1.07378014318655
1.27144160114292
0.895967013318866
1.08386756517759
1.25680054938076
1.32149725644332
1.12878638773267
0.820089945662555
1.07626928525788
1.60671043999578
0.734744650928248
1.85184099935854
0.852866142017078
1.22231356068167
1.28541815143936
1.1576948914716
1.08548624439643
0.939334614427108
0.936701343172701
2.44204503759929
1.5085726305279
0.864051548082257
0.77593724877546
1.40083983720796
1.07410205503021
1.08218423243087
1.17864951764059
1.26256998845939
1.6618771951097
5
2.00308233460584
1.22163597564679
0.718324358091923
