3596
4000.36533379555
650.420452594757
1
2
2
0.0363301173894898
0.0316087810806501
0.0358284387623106
0.0326946733823705
0.0337673372717636
0.0265146788988485
0.0380978744067142
0.0321802056060305
0.0300094674385967
0.0342509812190808
0.0362367255778322
0.0349145170710313
0.0382942765051031
0.0310416980971957
0.0325781430683945
0.0325547797774113
0.0331022800911983
0.0309134732030094
0.036043669771862
0.0281632559472143
0.035661356624277
0.0312696578070284
0.0342645515294399
0.0303175806513418
0.036995295224476
0.0340830204698721
0.0326891684546286
0.0356903966995149
0.0316853533610884
0.0304982244841462
0.0289251007320491
0.0270671076876862
0.0387831032247044
0.0420711700182534
0.0388545309159002
0.0270679563191324
0.0314542900172893
0.0334591818466908
0.0303463472686994
0.0366685969114765
0.0307868300023091
0.0322557702015238
0.031448705847268
0.035725293114076
0.040363841997458
0.0296760042019116
0.0333832189664801
0.0359218152611599
0.0356697876369172
0.0341934123474659
0.0306909595859221
0.0318427899344141
0.0442901554600732
0.0328275801700662
0.0398888655023125
0.0442570648910686
0.0372658408790441
0.0325766571922758
0.0364108094517597
0.0267969159831308
0.0403109680622015
0.033714301133847
0.0347415208885548
0.0362653796801913
0.0317443019135034
0.0317837838283017
0.0243823035159023
0.0382663605568803
0.0371064398129485
0.0420879973051843
0.0348134616121199
0.0396313454915222
0.0470259940340259
0.034823420251062
0.0362042634786429
0.043103336550418
0.0364429122114213
0.0361429057051258
0.0243491498520279
0.0446403850540982
0.0407777834779905
0.0338427195507594
0.0342629437295378
0.0316175649936707
0.0360795938969493
0.0369207464017875
0.0227478990402624
0.0471848250412804
0.0496792325577803
0.0399282295618041
0.0337935314875487
0.0316020915923727
0.0274421914436192
0.030760498895789
0.0254136199095327
0.0296104178008796
0.0219668846348807
0.0362809824759023
0.0280144811592753
0.0327664679242191
0.0424954436499413
0.048251354539491
0.0557085376230435
0.0136692599876562
0.0688996825412843
0.0293754907462904
0.0415552775197552
0.0638497184515728
0.0324553310612611
0.0369626268252334
0.0313442984528162
0.0379861181568592
0.0303577570831621
0.0443734918507617
0.0318966045818607
0.0557175099735662
0.0431097442555727
0.0417504425019119
0.0276957203474844
0.0274604254313155
0.0279010352608233
0.06784075855359
0.0440990620608798
0.0275495966488921
0.0373740584751944
0.0317312435749709
0.0260743549287393
0.0576919170165221
0.0459879304734951
0.0330967370826879
0.0339541302924752
0.0281172543090748
0.0294765789792405
0.0259500440694842
0.0615310217344076
0.0311926035195328
0.0465348240859783
0.0324814498281503
0.0675883151270081
0.0550043569314824
0.0308923986651935
0.0351343032866165
0.0304198041453692
0.0475831003992646
0.045437761269501
0.0319195012863992
0.0358792308899807
0.0469422687185107
0.0366727644860047
0.0230046242382163
0.0341547375392579
0.0314416086461457
0.0460966419211034
0.0419314440150453
0.0230456198562664
0.0504413841734182
0.0710261374622538
0.0377702002319197
0.0698941172005301
0.0174269360438188
0.0517291669883955
0.0270677086593865
0.0418006936970075
0.0188111267277535
0.0443385647381314
0.0276360338823518
0.0442590790234128
0.0431010829634024
0.0363610221377299
0.0288725649453162
0.0364145052802385
0.0401055241553191
0.0299531467190392
0.0697519063395151
0.0352758597985954
0.0401678622024225
0.049642970828991
0.0331233193532202
0.0293506849587548
0.0427314574876751
0.0513541120862808
0.0233758193856391
0.0370425718920498
0.0288696133664539
0.0387224651220951
0.0387660708237228
0.0352651477550385
0.0325243438736609
0.0400681185607187
0.0189624840716166
0.0501586656691912
0.0598711841300489
0.0523863762530568
0.0285963428344104
0.0465410940190037
0.0206724564833406
0.0658790545299656
0.0380096527611513
0.0396694638086254
0.0345765207144461
0.0327963092194188
0.0283880897271474
0.0256493502610925
0.0206714716806729
0.0380688632316856
0.0279797187195735
0.0755556144039675
0.0285398132086101
0.0377184648967185
0.02084248099065
0.0424370986471516
0.0308664163515899
0.0904726024983355
0.0365482592706301
0.0363666674161501
0.0325136127766982
0.0346404959942621
0.035175446656268
0.0426237969475248
0.0297784141019629
0.0387931412911191
0.0281525336018263
0.0269508305242857
0.0204810362818366
0.0276394583463832
0.0280754275152772
0.031518479114005
0.0299543144004586
0.0356673195302351
0.0288696157764329
0.0372036608151823
0.032700442961736
0.0263784563905684
0.033080330566112
0.0315015554237887
0.0322876197206244
0.0399996248922507
0.0248956402741307
0.0391997653791189
0.0231058404550402
0.0362745876854969
0.0233188547172978
0.0367118040651285
0.0279160984580077
0.0385577588923035
0.0189823759509825
0.0640355995527538
0.0237985489392586
0.0437343293153437
0.013999273407202
0.0535624720522835
0.0296226024031983
0.0386906854113999
0.025768812247546
0.0381148171291678
0.0202605088912389
0.0377697480875023
0.0565366969954803
0.0427735533728644
0.0257093575730292
0.047903708621221
0.0323828936001163
0.0317876396128399
0.0362378439449019
0.020944543341467
0.0849411883096251
0.0413301770792063
0.0388525488845417
0.0749652340004972
0.0282149948638995
0.0449916821546743
0.0369711495585785
0.0360165307483831
0.088253845892708
0.0603702802473737
0.0372922264895712
0.0315032122800966
0.0508421420046434
0.0236280576363489
0.0489844562565676
0.0386646604303388
0.0385202810037712
0.0694039171942225
0.040316242350939
0.0791566545548326
0.0229878824527755
0.0725172157620101
0.031892885776949
0.0388705827768413
0.0271306578612901
0.0367429647094421
0.0309374495600705
0.0486255666038105
0.0354122907598445
0.0469152081237572
0.0392723456023161
0.0342311605232087
0.0525813837678064
0.0356476787674702
0.0400362610560781
0.0389963437367891
0.0496384033268206
0.0301411628196437
0.0381471039158944
0.0302778314926994
0.0444754755076245
0.0360879002005764
0.0336011755742769
0.0625192467906935
0.0418724521435444
0.0396272522935102
0.0550149497825107
0.0275437352834964
0.0310193716423973
0.0316655901488629
0.0413687994567528
0.0334967646706493
0.0388310285911087
0.0318051883667004
0.0552549975608132
0.0330569839809746
0.0338540783544736
0.0352271350440008
0.035108617976475
0.0383331197882812
0.0307642403457015
0.0402199407798925
0.032750010950278
0.0336453027727658
0.0264013753559047
0.0458438944343172
0.0597940255736877
0.0273891280207798
0.0658925932940283
0.051404879853744
0.0375041817727681
0.0465785521451676
0.0332877600385571
0.045364817142025
0.0265385903009376
0.0422366484598085
0.0427428813565638
0.0427286726489551
0.0411672958407741
0.0446020755188256
0.0449355703795015
0.046424492954901
0.0552966977733081
0.0829858257808603
0.0383793882477739
0.0582644246897675
0.0316279374938491
0.0850742680237547
0.0597707508804209
0.0538916368492308
0.0634613816230756
0.0353847925387075
0.0528794590508131
0.0374796881943456
0.0471166306783843
0.0380500016081576
0.0522309481674974
0.0393260813430908
0.0495510030578955
0.0501538482948671
0.0520447153004436
0.0485101251218148
0.0544352783788925
0.077427549552739
0.0525898832301984
0.049240602533436
0.0586818741760235
0.046552383564655
0.0819847831350834
0.0620142424509076
0.0854341521921332
0.0865117896007956
0.071435074460463
0.0963953852753053
0.0478134444812198
0.0686305426250292
0.0493601939565188
0.0627610787083974
0.0574767326156671
0.0730432614915701
0.0549901683111968
0.0651649684908032
0.0617728041489526
0.0755090720515706
0.0641003612459155
0.077162379295368
0.0641380173614997
0.092533133545858
0.059521851879474
0.0789642024382451
0.0665674208437092
0.107503186600016
0.0976294122246783
0.10296717534914
0.076702979463539
0.0955635229229945
0.0828723357801447
0.0788773918261624
0.0902309128650652
0.0787275871800509
0.095044141730607
0.0894887222602186
0.108901078342994
0.0965245681718892
0.0969548697419108
0.121824531589726
0.0852944281373531
0.119057747658126
0.0995275858048678
0.126367893466291
0.123592984948075
0.111100765553337
0.101128584163909
0.133116910073622
0.109999570728597
0.1101111771724
0.135698806265691
0.108938773622542
0.115215305110256
0.102964782358165
0.114213547627937
0.112430964543788
0.126053602868752
0.119656983281152
0.124215055793747
0.128280718138359
0.135050010231313
0.133552148514041
0.140084396674437
0.135225258776504
0.132682202576601
0.146814189609544
0.125973563598795
0.143662595219694
0.130503526110447
0.168205641303503
0.145364166128757
0.168429091199373
0.17587447801378
0.144491109837591
0.16129256665212
0.15399134808792
0.158919396223852
0.159348556211247
0.160706825438898
0.160047361009398
0.16044127936924
0.161005152556327
0.163755803706127
0.175686797567448
0.171240339141095
0.176286324873689
0.171920566477019
0.186288316834294
0.182597486793327
0.185270643867674
0.175111474318131
0.213041382024455
0.225381483345385
0.216877373487156
0.22015246139475
0.199175558894954
0.212286744524256
0.199387211991979
0.214199430222802
0.212819953542052
0.221631803681272
0.21552427539024
0.202833974060752
0.217508291994026
0.226960689963954
0.211596744901949
0.212129124733039
0.22067462401396
0.234892132080712
0.247594172838796
0.227726055125099
0.226589520417723
0.235758559374351
0.247528336197651
0.250995806825305
0.250377757638344
0.260431097709628
0.266357843560317
0.260527204667325
0.266673363597221
0.26039561037468
0.254585665275445
0.255670470237455
0.27510243504132
0.26208784442707
0.278385512758352
0.27659774855167
0.276501760285654
0.279803545083503
0.282377019190236
0.274778364793434
0.293040545956071
0.29494782335682
0.309374598559947
0.302124346577634
0.309191309093118
0.321025300936673
0.330795875731821
0.304919175857089
0.316448094302759
0.328850170271795
0.326663238771718
0.315624230158123
0.314777546008776
0.326551989467197
0.345875789393174
0.338111604573787
0.336589684016634
0.328439327564325
0.339346899068256
0.322520110398872
0.35981851481771
0.357304539124866
0.352911947280635
0.362967940055351
0.387646275044505
0.354241751673839
0.357635687412632
0.379986845485206
0.392161730318354
0.363512143488651
0.38566567673486
0.370378125142217
0.386832838449292
0.385696616914006
0.390498628524661
0.378443666125449
0.393685125276987
0.394887119959253
0.421990487210435
0.411324789788601
0.406486047489271
0.403841316350858
0.412923815329381
0.402325073161118
0.428073749522057
0.429510306414801
0.428768144473074
0.416983461472785
0.436071522562077
0.438526022953542
0.445409331855971
0.429998336019553
0.448366114671828
0.439672469723313
0.451467068840422
0.435768054458049
0.453434582141134
0.45631966301325
0.462346642147907
0.459346175961791
0.480644804353568
0.45809779278341
0.467174897785006
0.461753898497914
0.502206047033819
0.483179089117391
0.475285366752792
0.479288852855784
0.491492075024113
0.46756832968674
0.512466698464056
0.492540035887846
0.515097324067137
0.500999937811593
0.507914894486536
0.500211652319386
0.521501248539873
0.498434429173798
0.523155630394261
0.511584338982871
0.534421641054406
0.517045898598545
0.536377490824037
0.529489291552031
0.547111101538923
0.53665027008896
0.551880820106166
0.542531137372618
0.536071181120008
0.524403755110174
0.572630059010823
0.522996678936782
0.571796325316672
0.545794521386761
0.553313726155943
0.558199405541446
0.583783227056211
0.547267579854724
0.550820043588951
0.568762918125815
0.577063609446142
0.580975572320146
0.592439352180813
0.562047539505955
0.59107765869018
0.566309838909508
0.592130725997721
0.589599971114202
0.588705264454767
0.579434356568264
0.600103205170663
0.605545756466788
0.623133567856625
0.593224159693681
0.623352942354888
0.606713787611636
0.63080634680155
0.611386791418222
0.615644697702466
0.625307676518088
0.650228851639924
0.615007768414138
0.632862420509932
0.622758453616139
0.635583219743403
0.606937719827153
0.63902154774113
0.625051720939853
0.647673093448851
0.63861148477772
0.640075869739428
0.632503502314976
0.639985228146227
0.64054544656322
0.659321858115481
0.639917966443443
0.654236924001376
0.615961510823756
0.650426425521326
0.647896783360968
0.654424700336266
0.657048856529082
0.653043474325676
0.651148315702641
0.680178075854844
0.654082986985882
0.690764911194815
0.623449360541586
0.676424071933342
0.666568605143868
0.68667042627821
0.680684982733037
0.672560255646573
0.644755695594493
0.684335705272432
0.675766289223565
0.695848103784379
0.660447871885637
0.69550454854111
0.679823280515117
0.687360116125544
0.691512943086944
0.692173140566322
0.665538505292572
0.71358459222641
0.67778724036961
0.693390048953929
0.672608316531708
0.700180074103759
0.685770219533952
0.68064645468174
0.670758681971514
0.696775716444104
0.677414903299424
0.718200123591187
0.691443953418616
0.704515799081595
0.691660937150752
0.727416550753628
0.708722014718574
0.705092784959818
0.666635254813708
0.711086933119085
0.709691433568297
0.70336997614803
0.707425432411734
0.717272762314988
0.687049883581458
0.695887891289763
0.691496475674726
0.705203391673519
0.684117208655632
0.699070347551337
0.689236954354848
0.703425297235092
0.701155224473769
0.736952462115655
0.694330944561349
0.689244921186677
0.705981927779815
0.695213283714738
0.667160170628202
0.691711812775322
0.702095597829567
0.705930974329578
0.705400635502128
0.710722909869535
0.690844791159577
0.709548830369353
0.70067386847586
0.707174087261963
0.70517897457404
0.716714166185238
0.693393312740732
0.700526181993859
0.709140527844942
0.712873072246595
0.680687352088024
0.692713895682313
0.698234492034676
0.709553341495776
0.685410970730908
0.693934428476867
0.693858862971346
0.690417124700488
0.6848057119237
0.722442446817313
0.701811887934288
0.694340324922576
0.707394772962154
0.693408357556918
0.682429557202781
0.696261306604261
0.685144420919767
0.699708250873677
0.69712469698256
0.704149192868291
0.677361467115694
0.671440961824568
0.685002690202735
0.685803968361928
0.69673437256649
0.69104388128299
0.685516884431551
0.699835778985745
0.678705933555385
0.692859429288436
0.67660557503407
0.690943080770665
0.68796921692921
0.693691619553375
0.678556453149735
0.687493692613693
0.674686532309418
0.671727486225994
0.678492569558162
0.678228875805439
0.666676408962395
0.673809659188145
0.669455528336708
0.678225442642039
0.676091554513326
0.663398309270673
0.650917543676319
0.68054931482852
0.666649690823124
0.666247376008008
0.659602020757109
0.659301531668479
0.654937157616369
0.679938060140668
0.647227469636025
0.642081126088364
0.654764444617529
0.649530516767611
0.662936977148662
0.672086398409332
0.648599610202137
0.63448716105707
0.626755519350601
0.653507899819537
0.647139560854939
0.653546672617067
0.657199955998635
0.657038388512368
0.63717678998143
0.648601363239095
0.643913507888667
0.641021094382879
0.643796336341813
0.64368499217153
0.635735156404605
0.635143364779456
0.631157717114814
0.624769799629858
0.618964017159233
0.624609510468715
0.638041937173278
0.624840840503662
0.611317170347299
0.622228826554576
0.621809425435457
0.613927067538912
0.593527865173446
0.599149391013035
0.610735671722652
0.616842235565346
0.592869469140962
0.612937192113084
0.601766119668171
0.591059472933767
0.602001600862347
0.61203979570617
0.592329306750466
0.592110702474377
0.596201507829311
0.587128812128852
0.576376680147196
0.58022752507083
0.568561918236571
0.583137012768836
0.575868035237087
0.574342297857255
0.568778885509607
0.583069423042577
0.576811513901004
0.570600072436975
0.570004162024308
0.563440650343686
0.565412517136318
0.567358928455828
0.553179590165359
0.56359299529162
0.55532050682317
0.546357687485503
0.543826373620417
0.561311534079413
0.549939380695339
0.552652674936372
0.548449790249349
0.545854619251527
0.544530920329334
0.528567884811144
0.52841369555108
0.532545718280368
0.527872650508454
0.5306303113468
0.529411381777054
0.525298950618163
0.508886983087127
0.526192489209137
0.524028079583189
0.505053817909854
0.509867220273114
0.518413825928752
0.510667233542774
0.512320603593835
0.497629054023968
0.499087557621358
0.509714875015886
0.504476986955367
0.493607081490911
0.483027738284668
0.478236392573914
0.485555534420791
0.481468581944035
0.474604121159017
0.478237408922166
0.473295109376245
0.478993522709037
0.474989495487947
0.472407104883721
0.46570973898863
0.465841705717328
0.467619703775508
0.4648949941594
0.465011947202232
0.463152722026096
0.453432081500404
0.450382570139964
0.446684582605725
0.447699083892033
0.447246983287404
0.448169604681147
0.44523149714664
0.446374026923151
0.444187158537878
0.437979283522009
0.431371577174623
0.435976414484934
0.418076699726448
0.429154710938469
0.428814318364845
0.420467959987796
0.419150220899768
0.409083334988528
0.41576077184478
0.409767372115013
0.407076649919508
0.415807227643826
0.410299747626623
0.40107606222303
0.401458149387451
0.406098008150022
0.401819211247153
0.393995137764441
0.38790617905118
0.396629443488417
0.390413260311634
0.385523111056553
0.384654099240922
0.378985660949646
0.373786479561597
0.376935530679914
0.375623856146076
0.36827378961545
0.371080875447578
0.372794667451089
0.370256245519668
0.364002184179534
0.358194164257366
0.353859000409452
0.351361500468138
0.357947996190911
0.361181719985275
0.357919012063396
0.353399700148925
0.35262044146369
0.349050691929972
0.34266600517313
0.340559920460549
0.338319437084743
0.333961568780045
0.348238746603871
0.339628659822984
0.330305260065873
0.331449813537466
0.329120216439197
0.324350465528713
0.32253081113682
0.318551320971721
0.322502619586799
0.31636097184735
0.318528361704178
0.312671806543533
0.308148563450762
0.313651488981444
0.308186111704021
0.303385990124003
0.307660983075167
0.297838263229848
0.302043747717079
0.30118167694904
0.300330006932795
0.297434016956696
0.3014535537335
0.297396023886941
0.294213341443398
0.288241353997104
0.289916131571165
0.28993041527961
0.287543965117092
0.281591618377141
0.273467843640883
0.278575647158698
0.285071815786668
0.281645571910567
0.281268714867253
0.276539651513815
0.27124169536413
0.269042566392519
0.269805004212149
0.265695615981739
0.268286216109107
0.260783251677102
0.25930355589144
0.256805488248023
0.265767743812246
0.257198003144509
0.258438456541624
0.2553804381725
0.254812959663155
0.254061687654584
0.249136925273387
0.242758915726098
0.245131330902953
0.237283392446552
0.239909671566395
0.245323048359525
0.249693511027322
0.239219683995759
0.239415393922965
0.23557143622949
0.234602595713175
0.232090128471488
0.237682593003174
0.230596459355213
0.234290844640551
0.232933705494037
0.236985387779941
0.22887143205675
0.229026450591223
0.223352630329831
0.224346311269603
0.219635401827507
0.225500026377473
0.221855751792923
0.220459618792076
0.21272387754085
0.214577573453614
0.220629284839306
0.21798822918716
0.210984228206363
0.211253818460687
0.207172393760552
0.208516487102295
0.204393282190985
0.205836765013125
0.201715728960623
0.204256045188682
0.200714694050561
0.202919375866391
0.195653882339482
0.195831158295065
0.196457283620359
0.201829000794694
0.196295298933166
0.194044189428664
0.195210913406614
0.195002170415792
0.185945295028241
0.191058347094225
0.19007209926576
0.189180815482053
0.188353901114967
0.189907861132022
0.182266243409721
0.184661692698076
0.182006612719294
0.188082769866775
0.180637494881551
0.178607491466923
0.17447322683364
0.179626955719272
0.175771437478711
0.17674588493725
0.17372910994684
0.175086267956872
0.175678724091231
0.174846344423158
0.167572151866449
0.168865338783401
0.171024765001768
0.170664331908712
0.163263688858706
0.171283558857059
0.164920010099159
0.169903276475139
0.168884274893941
0.168374602127038
0.167082516986852
0.166332076530357
0.163681760089118
0.166434825849555
0.156302118855251
0.161474455065639
0.161884356615419
0.162209144809224
0.159010608996848
0.161165403469112
0.161267868113344
0.164422785940541
0.159007945384403
0.162845163585621
0.15627196529629
0.155787263296411
0.157789832665242
0.159003642246912
0.156786118557861
0.160729685826621
0.161434778435332
0.15992728333729
0.160036238336418
0.163335092477871
0.15990048654893
0.160725051989685
0.157164118067281
0.16284378585946
0.160415514801046
0.166306130159008
0.162720999625293
0.165049795196657
0.164291671367294
0.172480280932214
0.165482858199876
0.170105631831055
0.170250329755358
0.168115538706758
0.167353213153586
0.173223507089182
0.174066002554406
0.177255363010548
0.169911788803886
0.175076359321791
0.172818593681986
0.183718230695106
0.182174093959114
0.184336291899327
0.177850983340358
0.180457956951779
0.185361499122315
0.184455623552715
0.181787022577498
0.18715444539547
0.180937403604541
0.188336627119464
0.188250109630767
0.193388632144028
0.187439333742675
0.193723216799134
0.192288502091597
0.193537945389925
0.192127530020833
0.205385765517925
0.203284264918805
0.201857298273984
0.197130192002847
0.205105502926527
0.206664780531293
0.214110998681084
0.211066200688999
0.21562112102213
0.21370269526637
0.213734679568622
0.217080999046735
0.220466193411291
0.223340402167159
0.221398598747348
0.21491131419569
0.226400561211113
0.220424567476322
0.229745393510685
0.224335633278777
0.228976250769909
0.224139408907052
0.231612380202314
0.222781317162271
0.229619231694643
0.227603125248109
0.227354944253928
0.229489088948359
0.232804895454743
0.226264157210151
0.23040088384718
0.22479321981167
0.232089801880965
0.226691388088524
0.231306114848272
0.226409231432482
0.226226673296901
0.224678209061652
0.229543478212798
0.221524375485569
0.221535640920579
0.22348396005111
0.228557818380565
0.22219936271066
0.226183005965122
0.220110290081513
0.229012437802324
0.221514535706031
0.223998699161426
0.225779086891043
0.228556427774511
0.221271136099153
0.221813342065411
0.223009120838882
0.228643177890881
0.222695378515331
0.223635460582426
0.220955606759516
0.219694291408684
0.226026619168793
0.228735194500084
0.223501344771231
0.226169786236256
0.222364788141073
0.230575330342043
0.223744673756873
0.228891165027024
0.227428958994659
0.22765426865546
0.222532270736075
0.227770000117175
0.223909097409178
0.225127400424598
0.220142092748084
0.221362046894941
0.216444611729687
0.222211665014887
0.216302780533758
0.221224711424095
0.217119504611374
0.219504362287224
0.212504571386999
0.21371401809001
0.210217994258178
0.212238418374284
0.211034871192561
0.213302975802239
0.207097801590019
0.206719292422601
0.200190436802357
0.204846727574223
0.199675851904333
0.199734777802141
0.196415908364055
0.200193204834671
0.193445790882923
0.1962918522726
0.19035428393505
0.194448894002732
0.187663893885034
0.184331227119833
0.180757782054621
0.18526555440533
0.179695978239361
0.180679993701752
0.175487048179661
0.174352334623021
0.172034069332522
0.175167474245498
0.164732660272846
0.170704723098402
0.167393273558104
0.167485947402627
0.164652874006644
0.163559100370524
0.158484557156176
0.163297323053133
0.160481752433038
0.158017755144476
0.155461009183627
0.160545838702332
0.151273373746638
0.15618888748979
0.150716007426857
0.15373609761571
0.147923448822506
0.148587400372517
0.146623156798131
0.150214937901218
0.146265566706553
0.149010320367602
0.142482219900444
0.144282622635152
0.14023685003343
0.146355968013919
0.144032741997384
0.145640430942175
0.138021599289272
0.141606183357215
0.139141065845492
0.139993187533561
0.133475483452458
0.13736555886961
0.133903882409911
0.136040895792653
0.133311505772878
0.132066562245963
0.132990987567034
0.133978983953478
0.127603246909042
0.134124729362015
0.124854526226427
0.129928478489878
0.121300917364046
0.126944865867257
0.127545595325506
0.128976495054882
0.124732198794279
0.126776798223112
0.122494626507576
0.12660705080324
0.119486403152113
0.123429149564471
0.119920574047428
0.126379910847126
0.121194017049701
0.121955283158216
0.117142229612133
0.119123755220336
0.115397941570724
0.121794142001498
0.118193317611512
0.11906640525582
0.115727720260434
0.116344100501745
0.115381256122838
0.11405665417921
0.111201239268912
0.116478085761836
0.112048201279999
0.11777736208586
0.110956031798401
0.115032802726692
0.11167514219766
0.116407721522691
0.111454524080939
0.113270649668914
0.108979732500573
0.111886920213477
0.106292567559733
0.111328010771717
0.107066214592599
0.108859049251926
0.106053679406997
0.109729039904764
0.104873952454043
0.107710129659646
0.106798531489778
0.106611586594071
0.105279587977662
0.108437915312305
0.106901535599769
0.109051967091023
0.102331167078558
0.109235672452657
0.105901795777995
0.106469849967931
0.103721501443448
0.10442983131855
0.100020422526398
0.10826587293917
0.101038849820634
0.104805801815882
0.100948120453611
0.102969006308774
0.0996044065895585
0.102266180034393
0.0979711055449057
0.104314769365394
0.101274206206937
0.104881101012106
0.101178648581763
0.103490503460829
0.0994791148882782
0.0999154304457934
0.0961073587068384
0.101568588981892
0.0963867047591458
0.10123600130993
0.0965989089630394
0.0994223664919258
0.0971579359781545
0.0984386608974964
0.0974849119016518
0.103983772176986
0.0971399638753181
0.0981276288863673
0.0959518939866377
0.0986578617971491
0.0956045214674448
0.0986340455419478
0.0946716667150431
0.100736443466504
0.0924464640716072
0.0968816141768214
0.0964651612154511
0.0968976080400518
0.0927004994830717
0.0993463458817021
0.0909418424499036
0.100721789531471
0.0963483716902435
0.0982432707992043
0.0955488031708424
0.095951700524656
0.0926566277989268
0.0963473146671647
0.0957283614979583
0.0945057262734227
0.090203208363689
0.0934443395665082
0.0913105114085315
0.0989034723943719
0.0891418789834793
0.0918773925809177
0.0910749640204266
0.0914336997739938
0.0921020156843764
0.0924941161689565
0.0902758248477407
0.0939335583963076
0.0839273800579364
0.0898238418348129
0.0875691895577904
0.0893121795773304
0.0847548032100011
0.0899047865085057
0.0875193934763846
0.0920371285018164
0.0847644060039885
0.0860879011652961
0.0873736888300757
0.0908704080986075
0.0841983049380972
0.0874894990888254
0.0841972785573053
0.0863816765448089
0.0802075385514307
0.0842999217016872
0.0825377978094159
0.0846069766022614
0.083649619524539
0.0884794560209565
0.0832484334409672
0.0861613403534798
0.0811277027093853
0.0859130522258527
0.079516014651275
0.081183833383233
0.0779415676192241
0.0837899928922576
0.080243177159256
0.0862663390388113
0.081737866311542
0.0825246952644596
0.0822644814980289
0.0848878098152808
0.0776529419665232
0.0814080990561399
0.0785597743437486
0.0797478876976205
0.0766112610427038
0.0824191097574728
0.0770217396598777
0.0770221277048009
0.0746329850670695
0.0787364005200102
0.0749126528624693
0.0808958607820151
0.075179096830692
0.0784918276840174
0.0755603703328438
0.078445223206001
0.0753490765052281
0.0752095853289256
0.0734615316847112
0.0760439953548333
0.073162042866976
0.0736735385364896
0.0667299567741967
0.0728056560092179
0.0699564234592689
0.0743275280380936
0.0685255647280949
0.0728315730203846
0.0689959663259533
0.0710862541936172
0.0659792354670183
0.0759667495908705
0.069726437679741
0.0693580913153417
0.0655606378025195
0.0696481316963465
0.0663448988352179
0.0700520811405424
0.0665812071248583
0.0657437164395128
0.063341171236784
0.0681370763269638
0.0627955652160381
0.0690356459794098
0.0628749716718361
0.0679775693930847
0.0643229210682464
0.0657909296912059
0.0630092178918474
0.0666060593030463
0.063078385701383
0.0644572614191579
0.0620392665524695
0.0676421735365836
0.0618841279137246
0.0616821802845033
0.0594907608850263
0.0650327644758593
0.0595459100541717
0.0628198669635429
0.0612481409698454
0.0641589142418252
0.057797491278212
0.0623026132356114
0.0597978997672258
0.0649841425860562
0.0595861290515784
0.0653439607765533
0.0569278521009246
0.0614555863123489
0.059818407183485
0.0628764898034024
0.0562190285927372
0.0622594465754942
0.0550871683449629
0.0572268978808083
0.0564783109103329
0.0589930747106848
0.0567315069801364
0.0597814917683551
0.0565019170985587
0.0614127256014474
0.0571879486456495
0.0593846638212123
0.0548191046970172
0.0565391655418716
0.0550485472157058
0.0602691733794944
0.0545339800963273
0.0572319912884358
0.0557499618482355
0.0591058378351844
0.0521327941824817
0.0601779665496705
0.054885328634052
0.056814232813371
0.0516839601560933
0.0547470299474403
0.0513956075440502
0.0548015035185607
0.0517473131968732
0.055457616493803
0.0555849266074903
0.0557990676978454
0.0512981189115626
0.0568995108752281
0.0517870976906577
0.0560515213529244
0.0524091034355572
0.054605813067347
0.0506905318498198
0.0570221806037818
0.0533993583921477
0.0576722485828737
0.0497536543389869
0.0559183844918769
0.050625903909972
0.0527947807826639
0.0484567459365557
0.0549752390374503
0.0516358793880862
0.0553179973130791
0.0477035574625831
0.0565597576191131
0.0520278095276406
0.0519009409290806
0.0503849593569853
0.0552914047449067
0.051075107632691
0.0549139338809438
0.0502301975668649
0.0525114122319665
0.0494145737304167
0.051194734181202
0.0487783201089032
0.052835889104802
0.0504215709342941
0.0549026951972228
0.0488369849867821
0.0502316225508516
0.049807704063903
0.0524786709661105
0.0475285049571198
0.0514633040294556
0.0472400816756593
0.0516423470038748
0.0459780641649074
0.0519145434899557
0.0487443855912461
0.0507375271659051
0.0480964831165268
0.0502787080556813
0.0498100583854321
0.0495294956932507
0.0439001750686632
0.0501466921374766
0.0469879277538659
0.0487898490330005
0.0461648052149373
0.0492881223468556
0.0462201523847168
0.049027458053117
0.0436718000946887
0.0492797274536525
0.0471630107039184
0.0514037387501448
0.0465316100025235
0.0489628264292142
0.0462109632502432
0.047867492648015
0.0430948626915798
0.0488154030469832
0.0464049946308816
0.0473236047662565
0.0440239350086447
0.0471369155452597
0.0461942035864791
0.0488064141142019
0.0454566475179012
0.0493111336252478
0.0441300303369765
0.0496070285128724
0.0454564072626629
0.0480886605655734
0.0439301638775592
0.0479063648648323
0.0414719602576522
0.049074995348551
0.0434019100518938
0.0452896036858801
0.043994803554046
0.0474114173797062
0.0447827852154423
0.0476746213923013
0.0441279004736544
0.0459006686987755
0.0420153378258942
0.0463920435090503
0.0441486427813719
0.0449458920000014
0.0418499437051204
0.0434465160020522
0.0403072165376612
0.0465828542613693
0.0421938741972202
0.0460757342108484
0.0418973178598798
0.0433565513145286
0.0405163941765328
0.0443092990463456
0.0391566560387112
0.0444545632395854
0.0396943129706396
0.045711550364299
0.0400699437063643
0.045161244053673
0.038882279706953
0.0425317871199239
0.0384881465227612
0.043778033501337
0.0420034278691484
0.041895727742415
0.0365566438399891
0.0435510075002374
0.0369276252777929
0.0410917771739334
0.0383526285797656
0.0415237969359817
0.0381884566380435
0.0430334833485964
0.0358833884426114
0.0421554258000901
0.0337581864728313
0.0400481744012594
0.0362055422488827
0.0386717081299316
0.0369934730416342
0.0407065064263382
0.0353454227978228
0.0390874522224099
0.0350379526278903
0.0399629470424006
0.0364748890731185
0.0379390011054616
0.0338668261734588
0.0381668638211588
0.0324248418214962
0.0390059934558137
0.036902724316302
0.0398728480927596
0.0317528404456934
0.0398884092231653
0.0325959616712464
0.0403207962151372
0.0364688945154944
0.0390528228105225
0.0335233872521034
0.0367599091240117
0.0331564090504637
0.0395091612021701
0.0348148227729628
0.0384926760517683
0.0331270198624445
0.0368991846464159
0.0323160824351498
0.0374087302352178
0.032235127814115
0.0375623584187259
0.0338837453510674
0.0354491283906185
0.0330234833279233
0.0371693245266772
0.03158092885244
0.0348594740407139
0.030087418107526
0.0370131178997995
0.0296333009217413
0.0343733800032123
0.0336362349544822
0.0356559318485119
0.0329568332586567
0.0341059273591282
0.0291895997544631
0.0349354979079673
0.0318703614823667
0.0349837561476664
0.0328628817794987
0.0365177132432189
0.0317262512002326
0.0345730118966893
0.0310450148687169
0.0355082843505136
0.0300805308044292
0.0344333876733326
0.0305883687739821
0.0341653949650946
0.0321447918145625
0.0353853519180914
0.0298799479691336
0.0368014999067145
0.0305475905994156
0.0334311942362882
0.0295774922980566
0.0348676496796096
0.0306947645065021
0.0336712777936818
0.0284925568656357
0.0344931183646576
0.0297207217510607
0.0354421074801811
0.0300709416909906
0.033983938337404
0.0318224366107373
0.0369797665079647
0.0315524030132209
0.0354006105410371
0.0312849550827457
0.0339810329981
0.025513315681094
0.0287116085400703
0.0181128117480303
0.0354493242408702
0.0245847320182927
0.0317712525826355
0.0195099440921321
0.0256831177759333
0.0239107885816795
0.0278558177285278
0.0222913615211314
0.0306937649970186
0.0220544767048423
0.0268624407024862
0.020014184838451
0.0327646959258341
0.0178693039005554
0.0302678870765499
0.022828257323577
0.0280580663791346
0.0255405098789973
0.0346896477349821
0.0237558654071191
0.0308015959695517
0.0253208692085253
0.0260484806315973
0.0188999014955172
0.0249909185254591
0.0167771517711399
0.0292423239177814
0.0156993967475786
0.025852497332919
0.0171412553188111
0.0294924220453476
0.0175138310926462
0.0341927445416704
0.0225500013592934
0.0348200427186301
0.0192475093177846
0.0289469583925892
0.0159977365910814
0.0336187750243077
0.0248945970454529
0.0386344488388812
0.0206213813930158
0.0307124835076538
0.0236847999836532
0.0407496858034861
0.0211297317838471
0.0310949593535585
0.0220206361101056
0.0366188649596874
0.023375083343316
0.0271162256988193
0.0261027699113499
0.0342638915684061
0.0308416998572139
0.0269968262981582
0.0318055256219008
0.0254673835884183
0.0285475232274939
0.0267119769311966
0.0332255447356137
0.0274163184286136
0.0296973990373125
0.0296949912859179
0.0298864532460334
0.0301079058884007
0.027085677527728
0.0330353971804592
0.0251379683436445
0.0298718400937046
0.0263027005044182
0.031666457250213
0.0300094625008139
0.0296648455517624
0.0305844247649808
0.0296062483641419
0.0291915204193029
0.0311507160020942
0.0275121487253961
0.0290670038074138
0.0251740780229175
0.0284371628128192
0.0263182886222692
0.0302030096038808
0.0246644126135081
0.0284922147060968
0.0259968144690006
0.0290086277500425
0.0272189877750916
0.0284005212768904
0.0267865294277779
0.0296929885173486
0.0261506761698596
0.0273816875341694
0.0264873004043216
0.0308970204128311
0.0271843879914441
0.0287947868908136
0.0261198346368534
0.0276017079877581
0.0281349524261132
0.0307917830183542
0.0258105526714044
0.0304890704690217
0.0270691005959188
0.030639287151171
0.0266196254851865
0.0285045601390498
0.0260674964946163
0.0295338543847622
0.0245829781935741
0.0310467196875652
0.0254156253429274
0.0279548662524187
0.0259249095531349
0.0295787215317588
0.0273266891159743
0.0297446048422758
0.0257373470201023
0.030999845809069
0.0283012047368582
0.0292773086791898
0.027301372640124
0.0289006385272319
0.0266690631683475
0.0289692521158228
0.0254173017815205
0.0292338808933703
0.0266537847806386
0.0300994542917069
0.0261187152996641
0.030086482752345
0.027258916649243
0.0303407081407007
0.0280853217643276
0.0299946982030907
0.0264441269191323
0.0307586118049921
0.0249764719623277
0.0287638476242525
0.0253215837103001
0.0273307031081138
0.0274765443438722
0.0307964890268632
0.025782541529934
0.0290913991016268
0.0247551514930907
0.0283441433201181
0.0268449530750667
0.0292615651076235
0.0281399721789641
0.030011243861494
0.0242152678618551
0.0289239849091312
0.0250980777906002
0.0290101275638159
0.0258361759550369
0.0314548621276677
0.026163677178184
0.0315892278570456
0.0278511687566462
0.0282065135293598
0.0271292607766911
0.0320372282022546
0.0287429927911066
0.0287627699046741
0.0248197756371604
0.0320592948931209
0.0278297255398539
0.0304656634148355
0.0270485698956195
0.0319953734357091
0.0257035914694432
0.029989069100888
0.0267983032331997
0.0313209471108485
0.0283132200888137
0.0304494235881855
0.0288699063096423
0.0326089174771867
0.0275727012190958
0.0308767811182844
0.0275758135762836
0.0311049407546681
0.0289517218062008
0.0303427989200585
0.0277131543993335
0.0293372145246647
0.0282715582880766
0.031620477503445
0.0278441928991458
0.0302523704072182
0.0280877394468447
0.0319105699595502
0.0284239092603887
0.0314005142998666
0.0291379916240665
0.0307564697522055
0.0264202311401944
0.030279706082478
0.0270095389415786
0.0340150222107744
0.0284233159290966
0.0318599180475572
0.0274957799645559
0.031462011936507
0.0278986628546533
0.0312278604101304
0.0285269876964989
0.0303544287393293
0.0276296272181515
0.0309021260130114
0.0289581349220219
0.0317290462887336
0.0270482002549627
0.0331223686360654
0.0289882144367103
0.0296750255197867
0.0293892405005551
0.0315775931873805
0.0289744600013387
0.0307373709708115
0.026003289572426
0.0307425601442824
0.0274768898443038
0.0324539534545452
0.0296793231533067
0.0311873517959938
0.0271340638469104
0.0314585884476326
0.0279860050159087
0.0313623474420835
0.03001938745192
0.0326408274278684
0.0271881606682015
0.0313539254009703
0.0310444255271687
0.0291890302118743
0.0283024607962932
0.0306015292783588
0.0262738719976639
0.032695588998082
0.0304255958471213
0.0308265477998238
0.0291207375500177
0.030832928651393
0.0283931026203419
0.0316820807356221
0.0282102103380025
0.0306909049450076
0.0291181196573226
0.0292869522757777
0.026653002078741
0.0283389120507823
0.0275297504004946
0.0295396421458878
0.0290980535092286
0.031298676998186
0.0264156212430848
0.031221543783622
0.0280240958286616
0.0323027031518461
0.0282028680228106
0.0309716157107305
0.0271042624332157
0.0295355721066609
0.0282559216931987
0.0308065522932746
0.0275820092767724
0.027925075346506
0.0263728501783111
0.0324140143945304
0.0281729320368183
0.0313603902838472
0.0289030438635608
0.0295012590822994
0.025307002081535
0.0303700027265056
0.0270875218723498
0.0305373395400622
0.0270879772642778
0.0299399227413721
0.0259660999850473
0.0315970540898798
0.0274087695814905
0.0287445252212729
0.0274443067190874
0.0293626517989331
0.026850105964456
0.028010000851328
0.0256500789041444
0.0298181964038547
0.0251703701346105
0.0276684561977862
0.0265925324256905
0.0307545897887618
0.0278086590561608
0.0313526479261543
0.0257956102834912
0.0285702442597318
0.0283527863643545
0.0290822020034663
0.0276081947127826
0.0316470210993328
0.0261259481929885
0.0285544699878299
0.0268663458071592
0.0281638034129148
0.0243498731802877
0.0283025543888634
0.0259674585547487
0.0289438425429487
0.0253322211742707
0.0292288927517089
0.0255693704337596
0.0297130904429218
0.027110581502458
0.0303068780679976
0.0253711482529274
0.0289590041912292
0.0248991606897108
0.0288027057263642
0.0259291593822835
0.0293428133162382
0.027070512030161
0.0294315641645738
0.0263958594668323
0.0309853696351664
0.0250397113293771
0.0306507200057992
0.0245524215117169
0.0265390095864302
0.0249104356359026
0.0280267006478107
0.026490108907535
0.0301144883952272
0.0252637536799515
0.0278824875828163
0.024578895496113
0.0291646326063818
0.0255921045795982
0.0283398785394806
0.0252448428731644
0.0273965151254576
0.0239305551602217
0.028012145090641
0.0260650219913906
0.0277791637130286
0.0256443032341799
0.029209511176508
0.0250039813493816
0.0288740083495704
0.0247337805570461
0.0274104614658111
0.0248578047704516
0.0268876321716512
0.0245522910635619
0.0293277231957068
0.0259179935974386
0.029338009053516
0.0245903147631193
0.0268688399356477
0.0227846674556338
0.0280890487182891
0.0239023371981341
0.0261856610164844
0.0229847078950451
0.0272178356482478
0.0234251089393415
0.0263122742903935
0.025462038163673
0.0250864354868874
0.0244645071805896
0.0265781411700655
0.0223674556057585
0.0261579545413758
0.0284036603248796
0.0285308922270795
0.0253600248541982
0.0256744243633297
0.0231693917048813
0.0264294117050862
0.0234894252714905
0.0249278674264136
0.0222653343422414
0.0271311265415369
0.0218825994756714
0.0249952489687665
0.021238374930841
0.0256208447869796
0.0229609321642422
0.0276835735654435
0.0205872313141976
0.0267942606832931
0.0224558478900412
0.0253965446856238
0.022395530268012
0.0260902349030452
0.0216471507780626
0.0251646948782145
0.0224414548579844
0.0255163012899516
0.0224360973527298
0.0317207990584107
0.0227623764407248
0.0262045668872475
0.0239000728209846
0.0284265434034344
0.0206140155151341
0.0242061646110446
0.020144600025742
0.0268860980375573
0.0218053548203985
0.026634635074876
0.0214259735118695
0.025939262517396
0.0205814728407471
0.0231001439900815
0.0224889206690499
0.024425812476758
0.0212412975570548
0.0259138772058013
0.0201507273171715
0.0265068044565875
0.0209275870033703
0.0258632974947617
0.020208037624279
0.0257284854183635
0.0231050307229649
0.0305326344035519
0.0227013851615278
0.024945469605143
0.0203435077200181
0.0245207357103236
0.0209371710076746
0.0230613958837658
0.0212619306737694
0.0238994407501633
0.0211950526135504
0.022994606817869
0.0209901262651115
0.0244506186436912
0.020705900618874
0.024551467846354
0.019637228296055
0.025091920960371
0.020515772033239
0.0233416934332994
0.0198709754753867
0.023989716400307
0.0203696102361203
0.0246212832174218
0.0196271200164384
0.0250603365324765
0.0213146529680384
0.0253603886435531
0.0357356967618424
0.0233363671067612
0.0222395596784409
0.0216950381215082
0.0216777917900258
0.0231391129853059
0.0216006529803605
0.0200064675730167
0.0204971336197588
0.0232427599726752
0.0217227857142463
0.0229389992269622
0.0209971704957035
0.0206450369234569
0.0205134880732099
0.0204707602474401
0.0200573702404962
0.0214524647367222
0.021204558576175
0.0216742380275427
0.0240531576554281
0.0291074001565005
0.0227739535369349
0.0222324098669476
0.0240375332436381
0.0201679774413082
0.032419777591111
0.0280242314535402
0.019329714750152
0.0245120343630903
0.0169557265232218
0.0264114116429139
0.0171285070708169
0.0259781881637528
0.0201381435842174
0.0306989598231337
0.0160093771617591
0.0267143699608756
0.0183104372229374
0.0212216983177904
0.0182233408103595
0.0247513761117484
0.0189428892108224
0.0241763892812906
0.0213386105083595
0.0234024206241528
0.0191653124105156
0.0237190953396141
0.0193716606516454
0.0236430975853965
0.0181284132593191
0.0264842831894156
0.0180342018804195
0.0234086832817914
0.0192583872290838
0.0244101772187361
0.0217067700996614
0.0401179475775471
0.0139780536741187
0.0265657023586683
0.01899684017274
0.0249978797986384
0.0188512146114832
0.0229692331488298
0.0190949621566354
0.0239520967919694
0.0159685287848925
0.0230032821519203
0.0185077030685706
0.024041237994112
0.021450492958149
0.0218546496006815
0.0198214604006846
0.021213971133631
0.0199526362360849
0.0202123628131124
0.0205416814641221
0.0247585631208132
0.0264833229127503
0.0415167451751624
0.0252864330991603
0.0360920579525058
0.0229868945950524
0.0251849702079785
0.0168721219629314
0.0266479745887975
0.0170555300058468
0.0263490205280363
0.0191443432681665
0.0242055027196668
0.0199498513538266
0.0240713189393898
0.0164708390890706
0.0257830611986266
0.0141100432271929
0.025723989403728
0.01744395316783
0.027397860639671
0.0165172617350952
0.0258082864760087
0.014281796203078
0.030140786549314
0.0205271096321552
0.0274729968677384
0.0201544477897856
0.0450162996067934
0.0386557883591201
0.0178082932414716
0.0302725676816009
0.0201139382824308
0.023388224868853
0.0215852916827673
0.020671561797686
0.0268738908770804
0.0239735164479753
0.0225394599689241
0.0230548735178274
0.0218459922824836
0.0220261526831922
0.0247447132295474
0.0190420436318725
0.0417421335543504
0.0246118265434331
0.0246502726130218
0.025045392489101
0.0210748683214065
0.0397392946889097
0.0240666238907738
0.0243968365819551
0.0267948139570471
0.0184217985531237
0.0237289937811771
0.0197896317365735
0.0238569043905958
0.0241535812360156
0.0279776988482078
0.0166860763597598
0.029603141790976
0.0167310755173566
0.0309638934333355
0.0252821617405591
0.032198715907379
0.0295743732771268
0.0241333221413106
0.0254056800363654
0.0269246418725023
0.0206990760605816
0.0264443913300474
0.0202640776568254
0.0247680671175914
0.0248013065864642
0.0387333015366316
0.0235628204769344
0.0364648753983459
0.028188463210134
0.0249921677808092
0.0248581617797161
0.0308266316448133
0.0252828584840679
0.0276244930361447
0.0242284169903664
0.0580414337397739
0.0187703808666489
0.047061573954732
0.0178340250727119
0.0333196713468595
0.0169811912715152
0.0338029359902866
0.0173148101779284
0.0385061121748072
0.0218714606558408
0.0277265712501009
0.0243427023927204
0.0347556057407782
0.0355671397125166
0.0273109303874198
0.0284133839583793
0.0254198297642421
0.0294557976631851
0.0292386793604522
0.0322831510950682
0.0214497961091848
0.0491715436078663
0.0479674264045232
0.0280213293896612
0.0384927403066536
0.0184084413042648
0.0627390155828197
0.0236874115552307
0.0306504830203138
0.0247674053528029
0.0268735884073222
0.0306882709770262
0.0245612788160242
0.0440193237516578
0.0361568002728904
0.0243381618648737
0.0381769570669476
0.0221079953842586
0.0432098257954816
0.0329977600135919
0.0330885285491666
0.023901344263091
0.0377585096651893
0.0275505248021788
0.0486804557048478
0.0475767843965965
0.0298579664450669
0.058200121284713
0.035325026614522
0.0436140948893262
0.0326742695084339
0.0407846559593196
0.0401644990190951
0.0501494832106748
0.0316179332507762
0.0375236905924984
0.036236352687116
0.0580285678426494
0.0306453165753952
0.0418400078296863
0.0333869764672889
0.0388087617474017
0.0605086829340966
0.074778881567453
0.049857269788617
0.0453260414527122
0.0393871252794902
0.0594423879678065
0.0422456280602083
0.0376631722177345
0.0404488492293222
0.0338793166446924
0.0422541452003093
0.0387042135183299
0.0513942554542955
0.0430115365228921
0.0375805063654954
0.0485406206852442
0.0367970120602119
0.0660864142422795
0.0666196278391608
0.0743603924083217
0.0506766559065246
0.0838833674621421
0.0641384713831353
0.046945010094964
0.0508788119572949
0.0477807431281581
0.0596156521003255
0.0459972738859403
0.0517191687173336
0.0489431958779367
0.066442773058059
0.0697911393338547
0.0412981210352739
0.0784158184237487
0.0456499311599687
0.0698382476657219
0.047616929074516
0.181438386323398
0.0756007410017728
0.0610979317257023
0.0873360042144506
0.0557604146736486
0.137430836210409
0.0633843526589763
0.0735418073013319
0.0709326678684519
0.0761023787116234
0.0781837718528238
0.0907184265373742
0.08237929052073
0.0942507181502357
0.0864683569455141
0.0915271064666127
0.10001763521716
0.1701394214753
0.109619416412259
0.121470830706307
0.0981438896938119
0.12748332158973
0.114035198787609
0.115225443276759
0.105518846177271
0.125819232108441
0.0998021737881179
0.179236617807393
0.109169720746481
0.144243139076458
0.122325084142519
0.167132512448654
0.12889867427678
0.171174799688905
0.166492388732265
0.138639109201205
0.155693906801137
0.143097123494664
0.159745251122692
0.152212321715015
0.186566020471434
0.172359097879909
0.156168278253479
0.170543611541696
0.159553737434299
0.175767130563731
0.162662408989659
0.185572629738925
0.168152114899907
0.21953897183748
0.196304575184185
0.265659090722919
0.209562961518796
0.169280716375358
0.189500761998543
0.1712041800018
0.213274045788276
0.202896709605255
0.189763702979548
0.204104172435375
0.164124198184606
0.190145119982775
0.172315063748781
0.183723185082623
0.171732395426476
0.186460787976381
0.171551339525257
0.199936755285519
0.19350206644185
0.173799240737261
0.240463946598337
0.169635572044872
0.184498989447202
0.17322252231493
0.175810669289256
0.168627018600606
0.181110054348867
0.168659404126179
0.197204933713699
0.162456094422498
0.173513286376482
0.169695688953718
0.176232562110896
0.189470390053739
0.155638047254234
0.168631237708966
0.155950934160245
0.161722547570778
0.163280396811435
0.14594072028341
0.203422361653803
0.15347254627457
0.153912457248414
0.154208500033388
0.149362073649665
0.151877739846705
0.148374658534886
0.144531015286849
0.151666615563264
0.143614931822303
0.149817286937785
0.1413087711016
0.140102718282003
0.142329473658279
0.145205119491384
0.143365188038895
0.138232387164163
0.149070828307508
0.137406590232024
0.142033335694868
0.137025608242313
0.142135287182689
0.13622285778715
0.142533979849659
0.142050610605766
0.141608164330325
0.13534012215856
0.140721670593435
0.137937246255927
0.143155443781345
0.134971948183224
0.139935945649015
0.12969515939231
0.140195903060104
0.13080092157015
0.13903730318383
0.13025028029954
0.138059826091581
0.128308684223191
0.136995887173835
0.124660927748961
0.142018003640392
0.134395358973532
0.159253534993609
0.157137074242253
0.120963363652315
0.139909494188311
0.119857781964744
0.133603737398165
0.121871667276974
0.14696116821354
0.150868718437831
0.119299877506987
0.126296489518519
0.123966314284417
0.121871705427698
0.134027663361749
0.112195816002793
0.123200460520357
0.120154153429463
0.1267831505594
0.210924920253257
0.0951161266365194
0.195971412860687
0.114649806809713
0.129844796324697
0.100177512305849
0.15657512372275
0.102995244675826
0.115651433677788
0.111449063934164
0.137420125856222
0.126136328843042
0.103934630806381
0.116065956876076
0.107305163616805
0.11447916797479
0.12713359148532
0.120469179768814
0.112163002704947
0.142819416439252
0.120164158802265
0.151519586730357
0.137511273164661
0.123791463882587
0.103935211968627
0.0987195883593427
0.110043594092887
0.101156497416714
0.152749215908583
0.108061301690253
0.104937456474969
0.0980471117692857
0.0880226680380539
0.1055059916504
0.0947656533360937
0.119675477043442
0.0888366286809402
0.129762978942491
0.0904157914175575
0.0980729665008538
0.123885810158855
0.105011257721943
0.136462397258487
0.0922688363979522
0.097214625743422
0.096584743355896
0.134044280236035
0.089093735866114
0.103619414731597
0.0893259785987476
0.0855145498665842
0.101857053993574
0.0921274273628238
0.0896384605831952
0.109763398744009
0.0970256424785056
0.1410828333826
0.123994589267782
0.117583096563592
0.0903187496074049
0.077018219783061
0.0872737462741243
0.0857371837841589
0.08274167184307
0.0867739123385034
0.0764578814668959
0.109355899956103
0.0674492372885469
0.131198808152767
0.0851690361282014
0.0840754507599
0.0853333308906983
0.0889479871263251
0.089847459568899
0.116615576191057
0.109152614191796
0.117569808981342
0.0863926672325826
0.121432592145932
0.0832276166648328
0.107805987103159
0.0898590774105098
0.105237003460514
0.099252446283753
0.114002369023828
0.103175675441477
0.112317315523137
0.102349899247363
0.129640819714726
0.108161478434951
0.153926823988266
0.108280941321062
0.152174671427568
0.14777494172441
0.153452590537269
0.14801139036258
0.127392255147314
0.140981914252944
0.139719221785893
0.137131129831218
0.150636348774625
0.135390207550186
0.177451777736521
0.141261859632477
0.154795086968179
0.145419718824224
0.157787107877428
0.15751737282253
0.173575466841703
0.19338282734184
0.170081687991098
0.210405875762878
0.162128021212866
0.176734678320941
0.157779304565101
0.16884989877219
0.169250750647863
0.155735091837351
0.173770162710689
0.159334248442116
0.186115300823265
0.170625735017238
0.168384107858442
0.174337516972053
0.171328593630463
0.170153308374701
0.174241061635243
0.172185281210888
0.180670427271542
0.170702526655289
0.19056164424079
0.172316516318844
0.217090446304475
0.200125139212102
0.178162533009658
0.19403279862607
0.181506794291329
0.195047254608121
0.188270708599544
0.194847760027793
0.199635762223973
0.190822485614791
0.198721569266209
0.191226972986654
0.206101274964601
0.202398601016361
0.222706331801194
0.201927469665764
0.195856659542358
0.215760663433482
0.185577185949195
0.260282634526549
0.198356270884654
0.228693667117573
0.207876540764037
0.212653021436086
0.202356024925434
0.207469656686392
0.204391548666585
0.214202988379171
0.209948040788266
0.210694356024395
0.211685575337526
0.202287529260873
0.207854303318445
0.209522986214123
0.220946155772112
0.211127537371635
0.203853661989297
0.205853718133668
0.203798717675765
0.210798658477166
0.216382071431924
0.228640802682355
0.198749397618042
0.217959651341767
0.208725153804034
0.215996698378244
0.213377555921827
0.202753516068162
0.203887688025886
0.209630064508089
0.197102342954245
0.21333708361208
0.200877620055707
0.233131432229088
0.208752106620342
0.213259957177767
0.208485172221662
0.212659997232316
0.208150805182909
0.212881281527877
0.208042083270927
0.218144262438903
0.215158930994976
0.215491042593676
0.215114074088158
0.215197307057809
0.228997703165881
0.222842315681734
0.223918893555841
0.215562578586943
0.207984952284974
0.214438590026469
0.204360140916139
0.217873075381957
0.200682804339246
0.206396441066608
0.196107471564896
0.206732957312298
0.19308294108034
0.218245590657686
0.202782458532688
0.189176962604749
0.201618599454317
0.183764312658468
0.198502192710999
0.183700009632028
0.186813096851679
0.182562829604623
0.189845650770501
0.178419748252118
0.183588680063545
0.179260688003056
0.179674473620392
0.178846260740167
0.181053297402483
0.176046483209813
0.179295449145255
0.177462321517873
0.178792472662072
0.176628363249976
0.174954312552081
0.175906700999852
0.179904698824212
0.182318713118946
0.193541026704561
0.183529499172838
0.184014080872031
0.172877745434561
0.186678062029146
0.17221402334083
0.179430956390861
0.170421530215739
0.176647808846754
0.173304532894583
0.175234305433285
0.171353447066747
0.174253011376268
0.17264212518328
0.175974938181299
0.174256792905589
0.176762848104403
0.172400753833481
0.174786979893907
0.173924492292154
0.174951880659136
0.17713967915032
0.176912423571451
0.178437014214877
0.171621854042682
0.178771412860679
0.17216717112515
0.174132178034021
0.174245773609382
0.176408408752904
0.175061636868411
0.169761023043471
0.174404127404
0.173980924966221
0.173413754402842
0.170308871523744
0.169878752525084
0.169972398951377
0.169784789709822
0.167385923855654
0.166425151781055
0.166185992676068
0.163242877269912
0.163560195929208
0.163529485418027
0.160181817768418
0.1609938041889
0.158983529297048
0.155817585014545
0.155355916669518
0.152555714082418
0.15280026616589
0.150520206808778
0.151630405895472
0.148529172681911
0.15152133070568
0.151397742089011
0.14719082649215
0.147500292656683
0.145712122314376
0.148540543828304
0.145940187757308
0.145503021634601
0.148071017384405
0.146698924364641
0.147103118346031
0.147431394678188
0.146760459053758
0.149422204789939
0.149266036119384
0.14676473908906
0.150139224904543
0.150395317572772
0.151069579941643
0.151470442162565
0.152492423003392
0.154257449581592
0.153593727562735
0.156933623034715
0.156955516555873
0.156027770901425
0.155731477989882
0.156669235977133
0.157118567998022
0.158863230494917
0.157356109831379
0.159468820286262
0.157762059882992
0.160408018403575
0.15683773639612
0.158078015985949
0.156405579542984
0.158459047357623
0.158038390853864
0.159089442482083
0.155855518823484
0.154127460714572
0.156138676980498
0.15598014522322
0.153774239587483
0.154516547042045
0.154468473846096
0.152702202456375
0.153144615712467
0.150915086372536
0.149108763525383
0.151625690105778
0.150390838349237
0.150029407286374
0.148592745989082
0.148134681351097
0.149353173731886
0.147504036446338
0.147092756624025
0.145546545221335
0.144365365523739
0.145895507503284
0.14387492296732
0.144088543970227
0.144538066471851
0.144269252360584
0.143645425837866
0.142441369018936
0.143417529795315
0.143791436986756
0.141291732673206
0.141184472814581
0.140350937848815
0.140923445122946
0.13956994588561
0.139739026351844
0.138339040048387
0.137852999368244
0.135599541433036
0.134505072481963
0.133165403765431
0.134027134274267
0.13264215435913
0.130483825269353
0.130635742954688
0.128080902712487
0.128992406083999
0.130918539461056
0.128067340135708
0.129225070451739
0.128428075207693
0.126504807389851
0.126761219326594
0.128368996409304
0.127010520080181
0.129211032581069
0.127206689897858
0.127052953911434
0.127250689280962
0.124935401427995
0.124875648612906
0.123267166776251
0.120825357372885
0.12001835411844
0.119413424472676
0.118319636615096
0.117052409085205
0.114984590384881
0.115331804892771
0.114587536834211
0.115128064828991
0.1167644835259
0.118498061329535
0.121661079040833
0.125179235686235
0.126877359496685
0.129403654970381
0.135442738317071
0.139784188229696
0.14623246383431
0.151045306903946
0.157808176053283
0.165699258556048
0.173790179863973
0.179515432096862
0.185822501083492
0.192748424812223
0.200511170505461
0.206724413637974
0.214698391919869
0.222814008934623
0.22985745258366
0.235501108048216
0.241786701941644
0.248098548596775
0.253885186238737
0.256650240871752
0.263290425412452
0.267713787419225
0.27063877214944
0.275806817313399
0.278127669677006
0.281678629126737
0.285567921754521
0.288710448352521
0.291587660161626
0.291959586540306
0.293611193018064
0.293733152234039
0.295600781686534
0.295266824239704
0.293992280871392
0.296746922548451
0.296831077203596
0.296327374901731
0.297209563443617
0.297898887243777
0.297056232643272
0.298511771986822
0.299811599970877
0.302628668736601
0.303025845257619
0.305274934327189
0.307043880120005
0.307146908716528
0.312470823415174
0.317362796588816
0.31751089474358
0.319556645642194
0.325458850346331
0.32759534058761
0.331918507131982
0.337870265467758
0.339867117343139
0.344889339882085
0.351472673095885
0.356727076744827
0.362561411033414
0.365282606624385
0.371640366570335
0.377902143747588
0.380756728432823
0.379449199000396
0.383146525734804
0.386440960603342
0.386116062265701
0.388097273167416
0.384210760491485
0.383364002884481
0.383019530492684
0.380394848987662
0.37836680507548
0.380113863831963
0.378928351492546
0.377830672504572
0.378114045789505
0.381525435800654
0.387357689004918
0.38873474735934
0.395687795998852
0.401460010049108
0.407530662474842
0.417300273819307
0.422917865769396
0.43081300727187
0.436749606249601
0.442117836514321
0.451791448896323
0.460378871115072
0.468705316797876
0.475416742226796
0.480221924575649
0.487340901644632
0.493294511940995
0.50032686458696
0.512003140732612
0.520916072619375
0.526848523006272
0.534602155650582
0.541996228683267
0.555603360915791
0.561553628489507
0.56823137804516
0.577856038920023
0.586075663101574
0.593760195782998
0.595967420373693
0.602112678401566
0.608805123621121
0.614875051566579
0.620118910439617
0.623098217455297
0.622384225263478
0.625331565971432
0.631914757075678
0.632773473271576
0.629584577221489
0.625187645661069
0.621173970443744
0.617436102300973
0.612410054469899
0.610136930751972
0.607215055320077
0.603825101077219
0.592849818766957
0.594531472184281
0.59300808726002
0.586125524816433
0.59195573198336
0.590064706024137
0.594431335272349
0.600312060242613
0.602127193224223
0.605441385045371
0.606731698286948
0.610669227436766
0.619730733787153
0.617342136004364
0.621829676336885
0.627359085933756
0.628502090450092
0.633464970083117
0.633455430090421
0.631995048711711
0.636240388872059
0.633988735237192
0.629266247568017
0.634147518289581
0.637311266993829
0.629376257176496
0.626881792345843
0.62305191149015
0.627808054533015
0.630098547571618
0.637285285059202
0.634854829707764
0.623826943589541
0.621097563452364
0.6137388696715
0.611176355976857
0.607594483879285
0.599292540103317
0.597113718892876
0.589381586248528
0.586650751984377
0.58240808571613
0.57768995784893
0.566709874839246
0.556655944062718
0.552021408105735
0.541393557072367
0.527419931506115
0.518842073602134
0.504571859589922
0.488881139066693
0.47511039890703
0.455360259887785
0.434354969187404
0.421957110689993
0.403297697737531
0.387942797362668
0.368967734171884
0.357729784858386
0.343623569192888
0.333859488209819
0.324906535146048
0.316100122571171
0.309758947455859
0.308214957649115
0.303767053926368
0.299678698060018
0.295644579038603
0.294181474784515
0.292488983825619
0.292674733888543
0.288254234544576
0.283060212316369
0.280386842745723
0.273926715775497
0.270580207225483
0.266546537576064
0.265216018330226
0.25561199126151
0.251332014033845
0.248855531330119
0.238563588961207
0.229694353549778
0.225276144842731
0.216497583163157
0.211593361377861
0.203819388963003
0.192276053367549
0.185500277196196
0.178275660151053
0.172765165355228
0.163350472066248
0.154775416426349
0.14775317458882
0.141246965085441
0.133495482551403
0.126410890671082
0.123484592691207
0.119014294130722
0.111248724188259
0.107094779284694
0.105942350518928
0.104038912265973
0.100640405989435
0.0978733917230924
0.0981579848523677
0.0937432567040397
0.0925307536431748
0.0936622380042958
0.0924672466126312
0.0901841349083543
0.0914746480954859
0.0900482539396655
0.0924302918114358
0.0946392491606507
0.0915238809069965
0.0896272839004774
0.0921657771626946
0.0912594321435028
0.091872921361815
0.0942448248397604
0.0971017422445275
0.0925174028448184
0.0951235608991882
0.0989066457828787
0.0957544438243688
0.0937946864674161
0.0932608659260599
0.0950062417864554
0.0935425962570368
0.0916514508256593
0.0903455181262668
0.0898296160588213
0.0892251433597769
0.0913583656730563
0.0927888679515571
0.0923771378008355
0.0892088683187813
0.0922907455799522
0.0922196147620927
0.0932629182680901
0.091469710349737
0.0910739893906069
0.094064287164169
0.0961434583061766
0.0954635523858017
0.100734457176942
0.100664178642415
0.0981134905092468
0.100770485675605
0.101074623382318
0.100405972053324
0.100687536750328
0.103114490944965
0.101064024645377
0.104396139237322
0.110559060662632
0.104865895689182
0.103404722541125
0.103984371683539
0.107206921355101
0.10540151300608
0.106129032997501
0.103522320957411
0.109039041296281
0.107548072305431
0.113724858390594
0.115476355874804
0.114491879383911
0.115135608808122
0.121445989050737
0.127825409739804
0.128260290870246
0.133000027931588
0.138320793506213
0.137609955811939
0.140413950307459
0.145334192524513
0.148583805186916
0.149716727151623
0.149142406946671
0.149353802434591
0.149241558274655
0.148933369685909
0.142259117801447
0.140166697793032
0.136063524324098
0.133442450620702
0.136279607153669
0.132021299166185
0.129977086274234
0.130883256333521
0.131535513335261
0.13046557602487
0.130304775987642
0.131690792279253
0.129659147492879
0.128877660580107
0.128727626175592
0.129299087710345
0.129580399367717
0.125010278596605
0.12748312928918
0.125890617767275
0.121963518012617
0.120144882584799
0.124030205643999
0.121927412561264
0.116092997132983
0.112287053604239
0.114092317810486
0.112043516176585
0.115432193013783
0.111278459136923
0.111135803795741
0.11130830143108
0.109023596772642
0.113918403082131
0.111124554128972
0.10688384292117
0.107484461021452
0.105795419182347
0.102993068347477
0.105457770673428
0.105718417315953
0.104725126637137
0.103860282499222
0.108187688148294
0.103795805134861
0.105030819009786
0.106992310843256
0.10340269416319
0.103743113157868
0.10523488664665
0.0999136083427282
0.102130406437679
0.103770942342484
0.100103607992801
0.0964470672677348
0.0971627264077533
0.101847836047381
0.0967530536472713
0.0955633797992008
0.0932649353642159
0.0923126573841258
0.097656539060108
0.0983180126728608
0.0982533369880038
0.100491634996857
0.0962855183868445
0.0954719242227506
0.0942810927094913
0.0931923993659321
0.0946860345175915
0.100906665870063
0.0987477033869842
0.100796292815947
0.10481225175381
0.106528222743727
0.105902339212103
0.104618319649346
0.104903866770203
0.103949344759846
0.105375310308485
0.0990061249701836
0.0980551884630425
0.107780355699862
0.107466144725532
0.107091507434213
0.110409976855149
0.108916191214568
0.110113711898857
0.114029620494545
0.112566225789064
0.121717265317783
0.122683681339882
0.115897660302536
0.124132195095282
0.126819934212535
0.121831377162772
0.132335920583955
0.128844946208202
0.145254898104058
0.145597926503092
0.13758391489401
0.14063825296162
0.154375352476384
0.157678542860178
0.162106312632734
0.166206808703874
0.171072413235695
0.169300432445741
0.176905360163812
0.178455282285258
0.182428010352203
0.193450271262077
0.186703205140045
0.19055309083647
0.192027313874288
0.194513386058455
0.188765867125369
0.179243362857476
0.178757830964374
0.166549301364248
0.177221824219505
0.174315062105134
0.182277358554813
0.174619056871667
0.178379876428296
0.179642920733646
0.181469120628141
0.17276789556717
0.179592058536251
0.180038707422649
0.1724218826805
0.164850244190968
0.169382638456422
0.168935732243383
0.163800242498246
0.17320139492715
0.17312738711219
0.162120068852772
0.16777533448983
0.159107433707609
0.172749233586066
0.164382489710244
0.162838939028474
0.153745474865021
0.151022584456686
0.157885473177614
0.154576636944386
0.158589472729186
0.159954976180182
0.154132526856118
0.160108055473874
0.13929148026175
0.162580502723777
0.174533416011802
0.148815200121706
0.159653944100776
0.170189711927414
0.163465038247123
0.147249065461531
0.157804263736319
0.170374158351846
0.15865649630555
0.147560648895765
0.159482051199221
0.17845342210323
0.173784998182826
0.157331860872321
0.175897741742177
0.161662606289891
0.16070686590177
0.164966121828985
0.151741339209452
0.170400225667258
0.175868155263265
0.159078220453526
0.165386392234621
0.181681518746942
0.161840044582179
0.181218818030551
0.184124420121913
0.202221023627619
0.202499427047047
0.174115483042585
0.201259658956608
0.21073412973336
0.177957223948742
0.199449777051689
0.213660909752861
0.185076626504162
0.193512810813482
0.209556660783867
0.23288030073415
0.185101825438436
0.222619857835342
0.220499125742027
0.229232565997163
0.212761212752177
0.195562357431679
0.227679416860627
0.21852922903029
0.213309110270087
0.237411110589649
0.235013448004924
0.204620121844343
0.241784246748237
0.234852013102323
0.236893187698931
0.23515088199779
0.24098003314785
0.194327685037883
0.202914513057901
0.243543055231902
0.224021655033162
0.210359998870933
0.1981990762111
0.212439799864015
0.236334550977797
0.216451040416715
0.212766533471825
0.185369922062424
0.219579013625057
0.199953534452712
0.240654994345481
0.189507598678869
0.178852619873897
0.225880532584118
0.226657570527053
0.239807813342447
0.218469735074528
0.160011339340744
0.170205411366612
0.202811967808457
0.134006121819754
0.221734357524299
0.272279580607114
0.217775726249014
0.235088978412151
0.23409625407707
0.363601771311973
0.248756225534547
0.205146021943405
0.221392608084668
0.180948691965828
0.252621944332624
0.338772507962951
0.273374600240848
0.237991439335811
0.218926146892823
0.178937222048432
0.300588410188891
0.339679997383932
0.205769356677321
0.189164703129322
0.106197001381537
0.267454884624024
0.264321842064817
0.328180146005635
0.0112778057914279
