3596
4000.36533379555
650.420452594757
1
2
2
0.0577337634961233
0.0558480363161898
0.0605028720901355
0.0573814477690877
0.0556304070835923
0.0530275995453978
0.0516729297991339
0.0526851220251937
0.0583728796022667
0.0553017569546977
0.0590138327429031
0.0517552989827336
0.056758053227407
0.0651007458101275
0.0569722627126343
0.0554332010805316
0.0541142448154338
0.0552795213437079
0.0545633065331199
0.0609494751078257
0.0620098706334608
0.0603563602483665
0.0548558148144524
0.053333184889167
0.056692251530619
0.0559999807491199
0.0634038467138258
0.0596567256085738
0.0557832021987153
0.0502184556109891
0.0514304019323651
0.0556768039515581
0.065403769805765
0.0592638761741035
0.0581393347315838
0.054470220419467
0.0553272985629126
0.057536978234107
0.0589547459718178
0.0583352607694639
0.0596784558221413
0.0535157828577499
0.0569726504686802
0.0521558584489346
0.0597852224349424
0.0559679562956259
0.0592772729698004
0.047475119315313
0.058563606844915
0.0571196958812074
0.0576773540894968
0.0542026891882344
0.065954847853969
0.0562188829085247
0.05753038322929
0.0631639606499085
0.0644178066678386
0.0560134920590886
0.0679386228737087
0.0588774790346118
0.079403583036298
0.0539998601298183
0.0630484657536134
0.0528972689375865
0.0563592199933166
0.0556872157944697
0.0533538003226788
0.0580331407488954
0.0502134588945687
0.0570857838301959
0.0609568062672488
0.067881072249878
0.0662294128618697
0.057594037623614
0.0653916848847049
0.0659263294155677
0.0604840589014319
0.0550467319693871
0.0540092064074285
0.0718840315172539
0.0693232752527436
0.0672609335854657
0.0558581765224358
0.0543163080893763
0.0654600758392918
0.0692660695106084
0.0454390869335498
0.0746338980856836
0.0709005897192651
0.0641945430939924
0.0527109921189368
0.0529656411634089
0.0484769308179908
0.0525657887609732
0.0574946643862396
0.0560835093152457
0.0503054385814801
0.0598661910246251
0.0537658350408609
0.0569662076060671
0.068130528566287
0.0813702313815485
0.0713602647363438
0.0498904774433455
0.0858247448808116
0.0541875315673228
0.0731176874324708
0.0908134737056729
0.0644593341177439
0.0612063504075196
0.0572195837401515
0.0619286105481406
0.0616391944246729
0.0657861303987254
0.0562613715098261
0.0750273953008413
0.0649710549308595
0.0595974312090048
0.0585577864636295
0.0635465592574352
0.056544267131157
0.096896225092303
0.0710325853407288
0.0549993711559848
0.0664489878299381
0.0504206274051162
0.0589621009948459
0.0812090541304344
0.0660024560518799
0.0569614005894433
0.0573485739151157
0.054903169468671
0.047302804577701
0.067936245537536
0.0822137517098306
0.055818106672354
0.0741876618618155
0.0565020943002016
0.104427162233528
0.0754071885799359
0.0602651070567317
0.0579748709768126
0.0486076670451528
0.0715028067098694
0.0742753879957979
0.0607294322783678
0.0644431286651051
0.0831023858252679
0.0519256859764689
0.0539642472829166
0.0519034302087291
0.0531928796800561
0.0742122315920051
0.0617365426345016
0.0582896966330831
0.100503127906534
0.0839578037487636
0.0837119322841169
0.0854753183610605
0.0481555496229759
0.0700960232916177
0.0505412806556323
0.0651459449369612
0.0498518379246304
0.073364688258026
0.0555296898537651
0.078868183963655
0.0631441295892684
0.0630818901714343
0.0598962176972038
0.0667284258221301
0.0643990198003588
0.0543694907064068
0.101858445957854
0.0522966110285738
0.0724280550213999
0.0729552134667252
0.0608902678300944
0.0574162872280718
0.0728623191796552
0.0687237112128207
0.048710429766578
0.0622659553518088
0.0510553930187929
0.0654376364117804
0.0720140545519259
0.0639290544158518
0.0600959598420769
0.0616313800735995
0.0495298827612074
0.075659617206412
0.0887053694586295
0.0809526327588383
0.0593280019605026
0.0646918250568874
0.0474009538160514
0.0845754825793976
0.0597154048797704
0.0681010343607467
0.0567567855552503
0.0590458485197745
0.0574283068597611
0.0582406788585077
0.0565111731824407
0.0603330213990459
0.0619130136543528
0.093839289300708
0.059188618847543
0.0622602024732438
0.056829026576837
0.0705512369053564
0.0498512614023083
0.121052368715373
0.059663140625258
0.0697478819192685
0.0584284645638286
0.0700116475471075
0.0705463051613764
0.0654466588759456
0.0573665773569722
0.0696905789803798
0.0541923068660623
0.0611723087530466
0.0513781911777035
0.0624679090196189
0.0478992402420095
0.0591175992679843
0.0613396957264429
0.0632189973985843
0.0631551314837263
0.0687071828297668
0.0626489064941329
0.058145507830282
0.0626612142954846
0.0618780258765794
0.0697951658471454
0.0725106444904066
0.0558458211001174
0.0578085453648242
0.0545659528949556
0.0615109502775878
0.053216339908366
0.0675629993824214
0.0597692543952449
0.0652111981515259
0.0636708108623348
0.0933340538084876
0.0569426188794772
0.0736808857095435
0.0468053640488463
0.0928842787279974
0.057367659654427
0.0713970560270596
0.0560707351558278
0.0744906051886411
0.0557323316987161
0.0792511443403224
0.0864321030652507
0.0678326830497359
0.058207342411925
0.0871874058553844
0.0620088310927559
0.0702910522283181
0.0577852497161421
0.0700900551815429
0.116107509957527
0.0728928645923531
0.075870538732036
0.113396463080096
0.064282122538912
0.0806142294157002
0.0675744686421646
0.0755862334586475
0.125968169147746
0.0892842779223083
0.0721851561047852
0.0670975192564495
0.0814344253665399
0.0683761605427415
0.0760865169649297
0.0762065264301548
0.0880161552834578
0.105615886933659
0.106240515456075
0.107334895496824
0.0644783332313212
0.116815676184289
0.0673275705023123
0.0795691248743559
0.0699761491146954
0.0805695784021889
0.0688535256390881
0.0966735228948243
0.0760133263209254
0.0954552944401376
0.0765660044808094
0.0934614911304573
0.0911483673124519
0.0819703734128469
0.0782253491877929
0.0924192045278696
0.0879177583629889
0.0825933599163802
0.0859173021151204
0.0867617281854581
0.0936091448736212
0.0792361711920516
0.092725123952632
0.132686609283904
0.0935174715505349
0.107503856458213
0.100710823573931
0.0919096591343769
0.0858169910232106
0.0961160018586328
0.100855353917124
0.0952426530712758
0.0931377655711285
0.100945344837177
0.125204482217927
0.0941218453620509
0.106116159983511
0.11058133959599
0.111627029889746
0.118337410000926
0.10548848201362
0.117377459561075
0.115184113509303
0.117703925154484
0.105304078259035
0.137173546854343
0.137018091329685
0.115354645149179
0.154687236034453
0.142454479112681
0.125646197065595
0.140263025124401
0.134938500813298
0.145796325545197
0.132562242700322
0.159033330036388
0.15597505435147
0.166991880281227
0.168669138906927
0.169991129831028
0.169714686587935
0.186160540440927
0.210627949023508
0.207355314754929
0.171162196570245
0.191802007994162
0.184797116180627
0.261034753616176
0.196288868609538
0.225765578809972
0.216755145351011
0.20607162067077
0.21735865211075
0.213812495371601
0.221794119858382
0.219546676228975
0.234428611041625
0.229445263476387
0.241681444130598
0.256193322234723
0.259397765287645
0.251687051659966
0.266578686629141
0.301587127743512
0.270531709224545
0.271905060015888
0.278594357419275
0.28280483004956
0.33331265212255
0.310894849736295
0.343581757080425
0.331805686959824
0.33071954773487
0.359752496240255
0.311550737740798
0.340842619187017
0.322116669098702
0.351558449045777
0.338243452691374
0.357262890396995
0.336449279169196
0.363192138784418
0.353793876219024
0.381759494481065
0.362038334069293
0.376255897718044
0.371663918392466
0.41207860873117
0.365214768835874
0.400665273461131
0.375290706941415
0.455679511093858
0.456011299959899
0.449345044563702
0.400274407612346
0.438942253687942
0.415839715801477
0.42270749478569
0.415192625291871
0.446545553662439
0.437331425525891
0.465014059071801
0.480690284068458
0.484928668302756
0.470282750467057
0.476523587470664
0.454975599721696
0.517452290400187
0.476589657586223
0.522315295446322
0.490170100436178
0.508588371962187
0.485647797285766
0.550703492751477
0.510472482083893
0.534668532295934
0.523371045534738
0.501752437195096
0.512076216525089
0.540467831596911
0.517094499177802
0.552588101084938
0.535171030048663
0.567228542927201
0.551564239945625
0.567422002655508
0.562682514040258
0.587452657379346
0.574312646734129
0.584898719508868
0.589632212680151
0.582791805960042
0.566978915712273
0.594274008956026
0.583176732538871
0.67470761757541
0.615163151888937
0.659624448410422
0.619583296041786
0.609247202262643
0.624770383493134
0.633944122816656
0.614335339761089
0.632842349302723
0.614560230408528
0.65814769542157
0.648020059586335
0.679441997819824
0.649009129212398
0.695199492409158
0.675354212695236
0.707462184432717
0.684257837317347
0.684274323182238
0.672788338065811
0.706154606647766
0.702563259463358
0.792846169722713
0.733267292632394
0.782312252141263
0.721170438131334
0.718483966925328
0.746529429182497
0.767421697995718
0.731749751705341
0.77800519562769
0.75037089707403
0.800544492071036
0.727195218317953
0.795608261202868
0.748658671504263
0.836778579217135
0.771810094103321
0.796721388441583
0.78416710366216
0.819730916919141
0.761176238991092
0.841213123073339
0.823033469644904
0.847210837693298
0.900756131376412
0.821633651305128
0.84452663731781
0.909395245286276
0.804965071044089
0.90075298732093
0.841073192633583
0.912270961986899
0.815439304561857
0.913564262157204
0.831123952431765
0.922018269534409
0.857168465451257
0.892750621207259
0.870211827149717
0.967257577657145
0.854979777959849
0.967284921680717
0.901186729851275
1.0143665705051
0.949926794516983
0.948530497474113
0.901433622224377
1.07340736069754
0.911431793537231
0.981519260912571
0.973071933404674
1.02201677412387
0.948216442125655
0.976016558056786
0.99082091250766
1.02651625524883
0.989731561762478
1.00581195496977
0.933163902518781
1.06020424954466
0.964170805812938
1.09050551719743
1.02718578691189
1.14153821556913
0.982517781937247
1.08913525284695
1.00723138207423
1.03927406403772
1.06927402881208
1.05469732924894
1.00207007181176
1.03798863603033
1.06880139105211
1.22719519279228
1.04493117524167
1.20560481240426
1.03576991415389
1.11819876707917
1.05474504919736
1.26126128251048
1.05414340710778
1.22079730597772
1.02381737555259
1.20685891321581
1.12619602839968
1.26093654851268
1.11456225663958
1.16270503334242
1.05449617841251
1.25208365460832
1.15957305788006
1.26352117674563
1.18441552587033
1.21971238944596
1.0815677453954
1.26922841343355
1.11803121778849
1.2620270737839
1.28199751412379
1.27855623153386
1.21491248580093
1.30239995050993
1.29006611560487
1.3993838346488
1.25550603975609
1.33701938179203
1.11661327078196
1.35841429701511
1.20680707642686
1.28383715847431
1.21196476033335
1.38417270676409
1.32766903337053
1.50774277396969
1.21667435217459
1.26950246818352
1.22815447419674
1.51737757069352
1.25628050739121
1.59914664971037
1.37206741027349
1.42436400184189
1.25527844257531
1.54243996184331
1.25395233477677
1.74847661768214
1.34645914356651
1.40887506806876
1.39327574138865
1.46382318843128
1.30800502517052
1.44613485544048
1.48381995888889
1.64892592818434
1.25252092272198
1.52188072249498
1.34082937086593
1.43277352254647
1.3608234014523
1.59786950541789
1.43615727727475
1.37758235192347
1.34363605206137
1.62960526142278
1.33732427678498
1.61448614316783
1.47847561112519
1.629753413801
1.37614114642246
1.53080679466577
1.33986272421304
1.69190436958365
1.36518597197984
2.02617609494592
1.48664541982154
1.53251334631598
1.58576308609157
1.85605824009174
1.50898708928615
1.63686826662133
1.32534166259527
1.70379343147693
1.47811833315593
2.10971849954408
1.3739190683867
1.67813550697785
1.582717015735
1.7011604041099
1.39988541187924
1.9499657017247
1.52458711932177
1.54064807612111
1.54074239159671
1.89526377511638
2.0582900757644
1.70179776063535
1.60829591377
1.8566295694003
1.5698756056935
1.62507790249216
1.36433751098378
2.07693019322767
1.80242147078598
1.8321424450766
1.536173620837
1.73396041259857
1.67099465202893
2.40483575274402
1.67302030058133
1.58507574995649
1.42701827025392
1.86809620514155
1.49107316538469
2.03506980204396
1.52346628587562
1.71254090025585
1.59536746572303
2.62802589051351
1.56856636667093
1.64034607673882
1.43487356670315
2.51876992549473
1.84719372090082
1.9900179629073
1.76998754850061
1.90479847762908
1.62979498222722
2.10545029385781
1.60057712449388
1.74223436618866
1.68982018307372
5
1.80537194355405
1.95328828317521
1.68306090665026
1.60281750003875
1.51229896402797
1.62177727641268
1.59984934353936
2.0958021072994
1.74456807947808
1.91000351211953
1.7189948909304
1.7587289272855
1.73174586417238
2.10350029532673
1.73014753859507
1.88844192358192
1.64257183907424
1.89304322787045
1.71382082390565
1.8153324468266
1.87424461843229
2.16255605888192
1.52177958232268
1.82094898711698
1.69677682803983
2.01829423478863
1.71959116451619
1.93358037171801
1.60418272195927
2.01652458368233
1.62369068607638
1.95581176717706
1.75057071514002
1.61655700792433
1.9819231150719
1.81511918549844
1.54156575668811
1.57430913857735
1.89648307563471
2.30240445827438
1.8145040259243
2.07900875281251
1.82961885862124
2.4388298731214
1.74434048750346
1.67556785043363
1.81158406341424
1.81515185801076
1.54836951812356
1.63586069050642
1.53730892976947
1.91088613412364
1.60810117212513
1.92812450679646
1.9086727845469
1.9264259075828
1.74040834498573
1.89992774893124
1.80066838342294
2.01379748894916
1.72415127846142
2.31500373734574
1.74973448627662
1.98358408209266
1.59084693380544
1.90029580810996
1.72488437345684
1.58988549034783
1.86079782245656
1.92524926585887
1.62427262545538
1.77964574318903
1.81139446384356
1.82831494756067
1.89571422490995
1.9696830024902
1.594501232763
1.88475365270624
1.75221891603292
1.73515741842109
2.00782629714331
1.7659745496298
1.69529481949309
1.78786407326425
1.86600873849968
1.76619443820127
1.59234734998261
1.74066600257617
1.68991083166512
1.99885369573972
1.92273531517001
1.81900763018185
1.89192155844217
1.8452611472758
1.58284680775661
1.72410083769904
1.54817754342844
1.8497327685649
1.69646308076052
1.87864740817411
1.81536916439709
2.33445765510047
2.85482563260466
2.19352759911967
1.72783364204466
1.89346946803667
1.71871916427029
1.85565819052224
1.76259235106401
1.66712416014276
1.55092270404862
1.99884956464074
1.91126636224158
1.76143920434394
1.63921327553067
1.72131348632784
1.63636398985182
1.79271125139372
1.96573312673314
1.82775959335505
1.9796311946904
1.98947251029158
1.58431428374384
1.78596291802565
1.64196163067494
1.84423617419183
2.05044532812966
1.90458112754589
1.72752674649279
1.95988665111744
1.80102769206427
1.77171604436559
1.68005795640707
1.95521359245059
1.72593129187782
1.7323454810624
1.69797841480245
1.86553140334892
1.66178380200622
1.87943271550727
1.63362225984655
1.81413848328487
1.80022977364968
1.85043994296949
1.72135951287103
1.77663505128263
1.60503247003871
1.78193016087216
1.90277181751635
1.72748333652932
1.75477925244456
1.75229484098749
1.57155012937927
1.69257118682094
1.60769759520245
1.87474925184239
1.69383299608076
1.74971889636809
1.92121236032367
1.71143075327562
1.62274708217305
1.78701936294329
1.68941104549219
1.71353278387446
1.83294263233603
1.65547396028207
1.55489968154398
1.9835844697783
1.78305928084681
2.12208984775003
1.68736806025257
1.75807293167229
1.58818714283807
1.92423248417299
1.52678254842778
1.53090220184523
1.52414303234844
1.72997804780971
1.54751623636852
1.79539866563408
1.55490916177035
1.67229034411336
1.5789132384624
1.67358554039377
1.57988135690583
1.81692068510534
1.65863871931724
1.60635522064131
1.52408117113737
1.64460648570413
1.57508483914781
1.58773288720436
1.62858741573823
1.81371601567075
1.59060179596008
1.49183439053298
1.49979876508912
1.64469614909202
1.5081269448008
1.56941194706652
1.51596930727084
1.61860590549583
1.55668864261872
1.51488693332743
1.54768813351875
1.53158406780872
1.62254602684983
1.50556348170197
1.57141472364128
1.48310113629646
1.47673033709287
1.47277803837525
1.40361386047595
1.44374974922214
1.47691251417198
1.47767422030297
1.45888405642185
1.52608544120105
1.43897564173986
1.53375831800752
1.39338910790639
1.41710315165309
1.43456801892359
1.54877386622001
1.42145587311666
1.35479699558094
1.38114835247221
1.44841828261205
1.30368358625372
1.38752681675886
1.3557327158842
1.33919911637097
1.3360873685385
1.35585864258266
1.29242045126023
1.29484311737923
1.29116162330884
1.38194664194721
1.32266399204804
1.31865557633785
1.32135548222718
1.30606913616797
1.30349426706998
1.26138066304032
1.25207636328794
1.28828610636971
1.24071370442326
1.21715081155594
1.21055726238597
1.22175585778259
1.21863548985634
1.19836818011398
1.20747271454112
1.2439805134545
1.18930544746556
1.187739902011
1.18478120291924
1.23364847235308
1.15743698101906
1.19711095504927
1.12977050982167
1.12189894534378
1.09526166391873
1.12649560921741
1.1452238241002
1.13629431948433
1.10812927977807
1.13049562093168
1.06560134049326
1.15080146249695
1.06199416356207
1.05427720550391
1.04225237539998
1.03760462633486
1.05001523180951
1.05211606016096
1.03121864065859
1.07621766277549
1.01577670477717
1.0424238189236
1.01760922376162
0.999016400257576
1.01046633774057
1.04413103307208
1.01340026551387
1.01941965084285
0.991686269247966
0.993180250104095
0.942768685976955
0.965425918214259
0.942698851511773
0.966382877139286
0.938297291550409
0.946602857292774
0.961974087041275
0.968136665740374
0.935950142386984
0.927506103397845
0.903539522880898
0.922967930965407
0.902011867431745
0.891187329356714
0.887029452524173
0.890658280259867
0.871740574536575
0.869576797521561
0.875759170552541
0.872270853676282
0.848573345831327
0.843691928328477
0.855912539626931
0.83865627819004
0.83006359134448
0.822593752125699
0.822637947183365
0.820414960216629
0.799414505926446
0.814517838459856
0.801695400687477
0.796203871967159
0.795111988306278
0.788803923017731
0.774633506411315
0.776804739399917
0.756297503543534
0.76750738643732
0.759495826412009
0.774529138805309
0.770400892729439
0.74947236891206
0.736013417432811
0.729491025850661
0.735751850634804
0.740676290074756
0.724837202204796
0.726789169089638
0.712341610823242
0.706471279675429
0.697604641715884
0.709677251712759
0.698689609687608
0.695224016648524
0.674437914213139
0.680690052306121
0.675536189374667
0.678344046950353
0.667291986057845
0.660868534455462
0.669938427770809
0.660229816314356
0.642277954544817
0.650217711859814
0.645872874939479
0.644478634215093
0.628711866354052
0.630671778213983
0.631954394102106
0.630661406551302
0.619779096570456
0.625961876107799
0.612154265738342
0.606025024936231
0.60346059175368
0.603949065550187
0.590064598186949
0.591198253695827
0.583974662248713
0.577536192594106
0.579116802692326
0.572389172950914
0.574158104734544
0.575331925751291
0.554527286227055
0.5634419696284
0.559201002649088
0.55353598695969
0.543442699684274
0.543796236900992
0.551377416932032
0.546330456430294
0.529897800805555
0.536154323680509
0.526375678837487
0.517103145580674
0.524223854372759
0.529975336977109
0.519339470286954
0.517331582572652
0.517256240726157
0.512948743054824
0.499932571012241
0.496276867554187
0.492836517541633
0.491424638884456
0.498014821212166
0.499332588305
0.486374387850577
0.48195969963623
0.478947408995407
0.476411396976533
0.47765691412189
0.465870649897704
0.470050916675346
0.472284325889766
0.461812033580712
0.464544214162084
0.455112454215935
0.460184775216718
0.45975197559295
0.453134179541836
0.451977114522543
0.447587585496672
0.444251218120332
0.448250006962652
0.441205180518848
0.433964564456619
0.442477050235138
0.432072989576753
0.426822685974174
0.429055634835212
0.426943011859275
0.426760033060153
0.422989099348647
0.422034616952514
0.41857047300613
0.427117457995886
0.420795439559463
0.425171722345002
0.414525631062503
0.41459291834576
0.411308073843432
0.406352449940801
0.413945434572027
0.409086071887713
0.409654959948497
0.404425699629586
0.403658457070537
0.404227398279422
0.401978164578333
0.403338298930428
0.396521030729769
0.393638827218792
0.393310009268882
0.391282933738176
0.391931315227157
0.391042300365487
0.385561251977132
0.381296952299021
0.384651761718279
0.379114245096077
0.385084186632945
0.384515262461884
0.387593429047096
0.387604644286674
0.39068226767741
0.383783496388407
0.376880839089087
0.377113685043675
0.379871183634899
0.384597708818653
0.388275149702165
0.379512694957805
0.372134893603602
0.373019514425406
0.375142843165044
0.380555254456565
0.372942297319415
0.368709758059666
0.369772459920504
0.368139310792658
0.378083643859144
0.36716013471343
0.367773528992358
0.363725665387118
0.369078555269928
0.363356647342897
0.360556758976828
0.362479853796527
0.35543717980009
0.355826625595183
0.360945769892019
0.349641222187935
0.349087763442309
0.342209926448162
0.346861873477569
0.348045711522309
0.344973854931925
0.349428958183471
0.345361087008723
0.334670106435013
0.334864564526593
0.336514571125336
0.336492431006072
0.329774450078885
0.332855527982066
0.331454289055999
0.328766250167136
0.329386406436579
0.334349219204251
0.328997955419823
0.329059235232497
0.324792487715177
0.323867461601521
0.322764260187909
0.322780402672204
0.316633935378196
0.32002462925646
0.318572231496162
0.317139376762099
0.319635025881357
0.316738713260717
0.317796356463567
0.321594356946612
0.31734426703237
0.315458213651936
0.310654420074361
0.310880048505792
0.307989648986411
0.308592284062352
0.311623695870517
0.307620574086102
0.308661605810121
0.305864507575024
0.30156935145476
0.31145490733451
0.30490306628191
0.300874391930416
0.297538534432989
0.300476580725491
0.297077846089486
0.300283153302681
0.29567154600969
0.296529345381097
0.29496889625746
0.293989431322491
0.289054237205638
0.287046465429514
0.288744741185087
0.287732990243515
0.284180670769298
0.286875603667882
0.276848306580238
0.274079200174173
0.275830637236491
0.27392175621182
0.271993710720301
0.273698495389414
0.264496274625062
0.273829687513368
0.271313404664873
0.266307756807793
0.269645846540168
0.261517481330028
0.256533087771683
0.257121926183585
0.25607445217099
0.25401926969741
0.251024231337229
0.251708605851197
0.242035842432075
0.243662859094803
0.244308440664575
0.245961866977523
0.243699899633379
0.241604151655322
0.237414007784444
0.240662073621177
0.233748777745608
0.236956847925296
0.240018901435157
0.235120812668013
0.234475444073704
0.233700725213873
0.226717421622456
0.230990199909212
0.226564850751908
0.232422874355116
0.227262835738702
0.221983360112759
0.218855046545098
0.221418513859693
0.220352976333127
0.220881799719895
0.213870268743135
0.214842326844994
0.210157142950105
0.211206861492364
0.21254403625033
0.212487387868518
0.210351134458043
0.212840918415803
0.209347520369935
0.208498414204044
0.202126685273262
0.206147535490035
0.202277988860584
0.204667670840913
0.203693609862657
0.205430370164576
0.200475700544055
0.19954661635306
0.194441203410981
0.19794160675751
0.196663813190946
0.195067547370128
0.19309686960944
0.195878757589625
0.191170869391038
0.191039460153869
0.189093716395327
0.192294049674599
0.185984327094823
0.189219580452805
0.184813752932251
0.186956118609685
0.185606668007883
0.188387617050883
0.185399262972291
0.180393594325225
0.179305361259646
0.18384715516895
0.177436626520248
0.180568443108475
0.179031786659897
0.178323785403532
0.177237055736348
0.176789570453043
0.17375623646122
0.174374100357867
0.170953161539246
0.17365313954432
0.171255629135174
0.175241190695694
0.168920932772277
0.170690400743034
0.16904742509357
0.175875194582984
0.170664348315075
0.169371890793672
0.168699294517547
0.167410563675194
0.162040744701916
0.163580899069538
0.161044469978896
0.164795229282499
0.163215599990147
0.165002611206199
0.162485433525294
0.161219416062918
0.162054215354214
0.162161754683549
0.158613057165429
0.161520053737468
0.156426272832161
0.160433415119685
0.156034083039881
0.160166195183695
0.15694854535609
0.155103255228688
0.155525869809926
0.157769436296919
0.150630010311833
0.153260721885313
0.152472350435651
0.154951427174718
0.152514626643705
0.151387256144654
0.15054114042494
0.155215372293956
0.148051513718617
0.149148873021663
0.146999486117668
0.151854931885216
0.148701516364739
0.15161847920352
0.149615079935464
0.147660029997675
0.146125950399456
0.150691955669166
0.143888994954965
0.146793304840071
0.144277542908766
0.145685790560209
0.144077164137604
0.145306867284343
0.140749903493414
0.144756460783441
0.142610732056387
0.144166715744096
0.144003483249212
0.143948144354117
0.139561091210531
0.140156275354219
0.139198433842804
0.146639211475729
0.140910304286882
0.144075843583609
0.140979925664656
0.141040516879397
0.139309172215733
0.141788482359127
0.136389621646091
0.144064315105616
0.13824938274141
0.136078137871794
0.139344273247923
0.139593506169535
0.134398472235171
0.137478438937475
0.135181734023696
0.136630841735653
0.132578367861035
0.133131785503312
0.135909789222377
0.138231211077184
0.130828060543408
0.13438716389279
0.131167486808344
0.134149527223958
0.133206894147104
0.132716965997364
0.133697959616174
0.133488491168897
0.12629408753565
0.130660374732817
0.127466071049115
0.128161895099731
0.12486239294663
0.131284115945035
0.128888645946756
0.130957364533886
0.124383546912901
0.125430917309606
0.124387536049293
0.126815411718115
0.124890178775924
0.125988489925245
0.123738099768416
0.126816151474421
0.122742056110326
0.123775209553986
0.119716544626119
0.124159232434731
0.124180596386013
0.123627738186312
0.118811065643941
0.125763631530391
0.121816983000968
0.122931989729972
0.118788833288334
0.117873269240499
0.114448931549907
0.120777347255349
0.120324617917107
0.120126905282024
0.116307645882647
0.122355501592408
0.121855829652651
0.120896555769404
0.11506879105343
0.116820964102607
0.115465596730629
0.118470512252229
0.113472860373934
0.119500768540237
0.114989937602562
0.116293195387877
0.113469609036226
0.115544172830637
0.113402318972529
0.117072398972189
0.112246962504844
0.1123652548997
0.113280731017235
0.114681712512723
0.110730719380177
0.111552985493874
0.109703057822082
0.113971502849426
0.110986567609682
0.111461325357321
0.107001856406145
0.109077804096944
0.106204435505155
0.108788885566347
0.1070296099733
0.107017433857225
0.107191376038215
0.111277505535845
0.104744804647725
0.111780746057095
0.104695225171864
0.105997058439663
0.104256978628028
0.107003741848486
0.104989154179119
0.107475560346719
0.104905795435147
0.106155165228614
0.101710960930245
0.105620345224035
0.102725353331298
0.106460320501285
0.103551520778295
0.106949974093143
0.1039814693576
0.102884909366585
0.102982102587144
0.10508106262934
0.100663422447078
0.104262227521373
0.100820025850512
0.1027398989086
0.0983766849984274
0.0999409467510236
0.0979141274071706
0.104816775827657
0.103121973652197
0.103624483088726
0.101744150605729
0.1038547576762
0.0992069911248239
0.101420975390565
0.10007445582909
0.103720895193718
0.101293815223277
0.103054240230208
0.0979950679873468
0.100604709417075
0.098623944390012
0.103322083441705
0.0965773390240339
0.099404785810156
0.0974465604374605
0.0999279333591765
0.0978022950905991
0.0995189879778949
0.0963584917283562
0.100666838226642
0.096817677644917
0.0989998944120419
0.0979089217402941
0.0988812034314424
0.0957000300363998
0.0979550391168127
0.0967216422515275
0.101798112453552
0.100153634118807
0.0988475199363336
0.100517505162971
0.0979926859959722
0.0938472617750826
0.101474251498877
0.0959784077741784
0.0971922996269695
0.0951720938829438
0.0993286719141542
0.0947393199387375
0.0970556954606516
0.0962151101162442
0.098486518177744
0.0963070296789965
0.0989194073174101
0.095889436724333
0.0985884863542247
0.0949533893199384
0.0964316127272522
0.094791115182885
0.0988183234254939
0.0941724628170864
0.099774702036385
0.0975277305008613
0.100606976787812
0.0939041509893753
0.0997946610249446
0.0946396595353593
0.0974433669789321
0.0962629090801872
0.100905873467166
0.0977618861263592
0.0978941362055089
0.0927910460023402
0.0998529911336737
0.0964970866979616
0.0982738335263287
0.096230670005272
0.097648616472829
0.0998317941845825
0.100091568441305
0.0954732841932226
0.0985245478294984
0.0947853958365187
0.096507574547776
0.096542021267465
0.0990500930830764
0.0945191127918419
0.0965953172410549
0.095445395094488
0.0953427909613487
0.0969740557642198
0.0999546029460136
0.0951824595757145
0.096640409085467
0.0958454890671513
0.0988938709746861
0.0934860908532988
0.0988976776032733
0.0916293767177498
0.0978788866859768
0.0966283760689794
0.0976033623191816
0.0973871938306816
0.0986407993655089
0.0959215750470708
0.0962401340984986
0.0958081248165398
0.0972532912354304
0.0940278616591966
0.0992624398098122
0.0939983700691096
0.0961491536875535
0.0947353996302617
0.0983737795083433
0.0940553388696681
0.0991025442261784
0.095006704132849
0.0972604324246149
0.096308975954653
0.0979355337908085
0.0957946932724797
0.0988414770444656
0.0944031671286167
0.097402514696996
0.0963017869013891
0.0979113077364684
0.0968572914419503
0.0997313605828741
0.0983909574621515
0.10088777997376
0.0948789880038865
0.0983860416040888
0.096282936574988
0.0999447685703059
0.0959033114018782
0.0997153053192965
0.0949665418346462
0.100058780284263
0.0970527678642838
0.0971225413289388
0.0968691592053314
0.102098041585362
0.0956514534709442
0.0993895580051282
0.0963827632452321
0.0964321231489274
0.0952220335416046
0.0988307056301241
0.0959218448512907
0.0999816664317161
0.0959803897366731
0.0973612011882582
0.0952054343746986
0.0984346868797908
0.0963751583361032
0.100277780187077
0.0945009116457425
0.0970552459098962
0.0961238680982499
0.0970173232580455
0.0963123647421091
0.100240516332899
0.0964730017498113
0.0983731808811062
0.0937681692279394
0.0993865784487658
0.0959133911819475
0.0997271342387383
0.0971166625614692
0.0996760728967919
0.0939943502341157
0.0984269368302539
0.092852532434347
0.0995863330673067
0.0972941914525642
0.0983606742695342
0.0958274911099302
0.100125307790221
0.095868523061211
0.099022529130228
0.0950160462683661
0.101265585473519
0.0917367976935445
0.100041281634768
0.0947761971436948
0.0971223887074118
0.0971295824211081
0.102781959777251
0.0979082447078554
0.098814324177899
0.0963401306401117
0.0991768556613837
0.0984587231745323
0.10089830328852
0.0979910679967202
0.0992209807070255
0.0933944295379177
0.0986081476284988
0.098814023455817
0.102679344889072
0.0960701294438265
0.102098813999176
0.0990648852843236
0.0998787851980362
0.0985555268955932
0.101200438715507
0.095079328292245
0.102400800067909
0.100075304591829
0.103584259237055
0.0986646536177996
0.100217451374854
0.0978362413226916
0.0992200598127628
0.0950298515574149
0.0998914691840256
0.0972376870189291
0.101589951260457
0.0993826497138072
0.101314400692801
0.0987167087249278
0.103731348758698
0.0997400046486808
0.102665477163718
0.0991999569225177
0.102829199238284
0.0980197060769764
0.102552402951086
0.100330486154731
0.103325776024741
0.0994285582087916
0.104336461192578
0.0976364272234206
0.101517797969702
0.0995374183085674
0.10525497541448
0.102291596426986
0.105036201049686
0.102234237726935
0.103296227493094
0.0997476835615127
0.104544354772483
0.100619136302263
0.10263606449324
0.101235106855941
0.103433987047232
0.102233638739484
0.105447942517352
0.0996012347225169
0.10566371207915
0.10204601530584
0.10523309734928
0.101494344547097
0.104946674909077
0.104968880566044
0.107566179941916
0.103382724484507
0.109381264924427
0.105695049968119
0.108844394196964
0.106229129535428
0.107561808796655
0.106207999500744
0.110296019156209
0.104222120141636
0.108593055542165
0.106136714019101
0.109710398138187
0.102036244238739
0.102647121166995
0.098252639005803
0.104767654237979
0.102201532383057
0.102281067668577
0.0967824385299526
0.102724083392337
0.0993905039323873
0.100498746399378
0.0983667501615161
0.10582161765273
0.0987348683510987
0.108530789530478
0.0974715217412927
0.108039571289408
0.0981122525648649
0.108868396009741
0.104189129777971
0.10319567386891
0.104454316473027
0.110153633234545
0.105331820959962
0.108822107938595
0.106887190349704
0.102225693376577
0.10182121204989
0.103282135903359
0.100427071769668
0.103531206298648
0.0983883261121369
0.10250793394588
0.102639210795359
0.104344845524543
0.105237321150599
0.108619206626144
0.10900347275
0.109625476141732
0.110802413754224
0.10785064182619
0.105997161669001
0.106970383468796
0.110758264473146
0.113599485795283
0.113130657457332
0.107028358786735
0.114526549824843
0.113758167013427
0.115244890958231
0.108307757676314
0.113499949588289
0.117069511256366
0.116159603537606
0.112199981892008
0.114781900834523
0.120337520665024
0.112488572954295
0.119815592269304
0.116240772297668
0.12168877790683
0.112225867211606
0.121011688812081
0.114660461732124
0.120650975919808
0.116310375392101
0.122400819587254
0.116727032122191
0.123048227067448
0.119508520966909
0.124273077704419
0.117180839946123
0.122908466731435
0.118859931372167
0.122505547663544
0.119139174862697
0.122642052427331
0.118339842646375
0.122682360229719
0.119213555727036
0.123302455674038
0.12078514954719
0.122158067100009
0.119471622419923
0.123317152974958
0.11979087720828
0.126390311573509
0.12275923993773
0.122657380687701
0.120292811941407
0.125259419333695
0.122943335763268
0.125022547273596
0.122749774512733
0.12753269226303
0.123265825181563
0.126633594732453
0.123931544892778
0.127378004485314
0.125282331740757
0.128760926705186
0.126280070428362
0.127598803799137
0.125678567541775
0.131027413692578
0.123198920836621
0.129009453501687
0.127221368912683
0.130852143395683
0.126758540738844
0.129560661485675
0.12614596103202
0.133957422104594
0.125364619653277
0.131045805732296
0.129642262040911
0.132363685019764
0.128350231821723
0.132044230484498
0.132465277918614
0.135866702202009
0.131678392979237
0.134885808039702
0.131056548466438
0.136581231702149
0.132813351899645
0.13571561792638
0.133712409981597
0.135076953012038
0.132533071154363
0.138358062069591
0.133794423078483
0.138615683094372
0.134399552706067
0.139834495014242
0.131924066451653
0.139942292213017
0.136904975829182
0.140291972806629
0.135875727920307
0.140979515295614
0.135367331375205
0.140350534265636
0.137400407605087
0.138907254815424
0.137806475081909
0.14176815232764
0.136386290861221
0.143918383276909
0.138673163888895
0.139463319770457
0.137604019971225
0.14293020685988
0.141318260262775
0.145130764665995
0.139292540863284
0.144399152502771
0.141655162521342
0.145474813108971
0.140869045590753
0.145744718900159
0.142763049089038
0.148745174045401
0.144848745850869
0.144044769265087
0.143195622433118
0.148931176733492
0.147063969472063
0.148825958278088
0.142468165474906
0.149961891696546
0.145023722339211
0.152599671565818
0.147572105615069
0.150984396857834
0.146514329749477
0.150271860176083
0.146529442227157
0.151743562099133
0.149541019950149
0.152259596601991
0.148654833458191
0.152958813860924
0.150127193671172
0.154123766363343
0.150691872396675
0.154999006952063
0.150530211567431
0.152157699964994
0.150632066941246
0.152213353843778
0.15227678768369
0.159032137301895
0.153196509203888
0.157609363477693
0.152189177514766
0.159138849172981
0.152834271611475
0.159416697583043
0.153367275534215
0.155656772770965
0.153543535737048
0.157631677383128
0.154769143339323
0.158711331734478
0.155146813825147
0.160310645798603
0.153779956992854
0.159677447569371
0.156696733363712
0.161282227018984
0.155393024233957
0.159878819095675
0.158801924535221
0.159455512007308
0.157114078819491
0.162265636946039
0.160420039723128
0.162829965801726
0.159369529632344
0.163811615884873
0.160334193827714
0.163663509303867
0.160919141802989
0.162135784705067
0.158956769698811
0.163378390334311
0.159395159383638
0.162880260612487
0.162493774882449
0.164736589573705
0.161144762068663
0.165619363313617
0.161811966951295
0.16431580373063
0.161958027459522
0.169746204931477
0.160942536998277
0.166739958459544
0.1640643259223
0.164168261343121
0.162128825764848
0.165411313606845
0.161808442261997
0.167819875988633
0.163146001749786
0.166763561513137
0.16304235403892
0.166971648803431
0.161578541590384
0.167066967308475
0.165648578333363
0.167422665527489
0.165014363207197
0.166167407498074
0.163615580842878
0.165481381984486
0.163857818537929
0.165719012533669
0.164182444341877
0.168417163996924
0.162120632442132
0.16885194420166
0.164987226402981
0.1688818736074
0.163548707071813
0.168324697634233
0.166172579708591
0.164747262001669
0.162383753048911
0.167365303094031
0.16353918255442
0.166708498774708
0.162619827752781
0.167498888974083
0.163837660724718
0.167742097052074
0.16668641906701
0.165870229729666
0.162414460270379
0.165624431109932
0.164089020944937
0.166279042337105
0.165506123056296
0.167937883657731
0.161681449819317
0.167303817771629
0.16290338429763
0.166582715017275
0.162426001428346
0.167377373786007
0.163998025633233
0.165277201445241
0.161879020727446
0.166472957528654
0.161898951429854
0.162385649994655
0.161736758617055
0.166634027691658
0.162061550558683
0.166021953041449
0.161176037901596
0.162382332934051
0.16334682568858
0.167122166565562
0.16172792965404
0.163022656008439
0.160119653430755
0.163691467653342
0.157579576579572
0.162468467278155
0.158223026952478
0.163987886575794
0.159923175013171
0.164711545094631
0.158528062463773
0.161781480853841
0.157755030642903
0.161507292388026
0.159852293565141
0.16157462952272
0.155008203550553
0.160546333532518
0.157053247952904
0.159274976592558
0.157469389749624
0.160463351372759
0.158412064445597
0.160512276620129
0.156017596682471
0.158820132297666
0.154782778775763
0.159376845927055
0.154165687454113
0.15773591263827
0.156070963749352
0.156467735819986
0.153380139148342
0.158516915175267
0.153136077717743
0.156705059834024
0.154890383140692
0.156259268212899
0.150426948752217
0.153771829461
0.148223666560145
0.154570462946866
0.15121931394392
0.152552758495363
0.149403912022894
0.153629536941351
0.149232540419667
0.154336533666947
0.149557471740895
0.152580394736569
0.146673938537945
0.151989749667444
0.146861470869315
0.15021449392375
0.147910182437187
0.151328116560225
0.147187723689767
0.152695504964277
0.14495546380804
0.148562327866096
0.145121285625407
0.149829785727375
0.14262780299176
0.144643154897151
0.144611066601489
0.147341193204428
0.142996274361154
0.145004620074567
0.139954871135382
0.143723382572807
0.141613183392717
0.145530439273682
0.139553435490806
0.146388234585779
0.142639514135041
0.141804217655751
0.139809862257017
0.142827142968312
0.137270624429548
0.142366148898557
0.137426961080458
0.140541435229483
0.136779552737805
0.140095061692061
0.136425011377203
0.136741085072266
0.134989316705361
0.138396777890163
0.134958426892615
0.137795948196685
0.132673403726783
0.137576570467637
0.13253026526344
0.134919919535085
0.134870314513392
0.136887662314539
0.13084186007683
0.134597335039883
0.131187131933646
0.137211908055673
0.133223894329342
0.138812616407985
0.13128442824376
0.133269288180657
0.133645824389948
0.136118911224186
0.126997180076261
0.131918044848741
0.128227790441945
0.131956812595877
0.129643744107938
0.132304279035251
0.127898212041149
0.130389298151383
0.126012169074666
0.127129269023405
0.123583946167145
0.129131505298401
0.124137939867622
0.130337680328786
0.125444648233526
0.130059700519732
0.123637316482325
0.125166113427264
0.121312980175823
0.129202309377747
0.124272588357273
0.132975857913394
0.126954041145751
0.126885811332847
0.121842852182701
0.12727476198839
0.119577789692064
0.12457792695045
0.121519670529357
0.122571879330851
0.120630607194941
0.121984759522806
0.120531750759279
0.122162440968362
0.119845814976596
0.123083082763693
0.117866561309761
0.122413022449809
0.118439324412148
0.122171901911772
0.116780069984748
0.122040995742054
0.116775624368839
0.12165954761764
0.115698659058927
0.121616998027207
0.116042443000159
0.122690837997826
0.131679829113262
0.118199923473797
0.118705861218999
0.118025971343297
0.116692298043257
0.117760537313882
0.115413368211664
0.118099847208677
0.11333942254747
0.117124055260892
0.116224732719722
0.118246848483774
0.112894144486928
0.11710957595656
0.11326948788056
0.116391277108634
0.114280705173788
0.115375986595509
0.114280036403965
0.116394239859689
0.119122649781437
0.125585229257311
0.114307572104606
0.113366423016931
0.113646083122808
0.112917857358784
0.125984955199315
0.119216952565604
0.110000983014265
0.115864873674039
0.109842463415154
0.115273389050111
0.111281683820293
0.114327898960958
0.112787226330917
0.11937321467223
0.109126709343281
0.119333981160594
0.109174356240659
0.11383874046407
0.108551621216766
0.117365219699545
0.109846531813626
0.114605019522339
0.112122160682457
0.112507800159649
0.109452244228212
0.115755342336008
0.108569966409269
0.113511371717776
0.111240827462423
0.115537921503159
0.108503873562928
0.112340793170791
0.109167418452834
0.112567404039714
0.114177821210731
0.12776161286982
0.102882014017977
0.114211921084001
0.106861875290937
0.111822038054098
0.109955875638113
0.113943301978063
0.108179726864173
0.113219062054153
0.108036314166125
0.113698706183508
0.109045088690926
0.114415232818776
0.109245910106841
0.111326950683491
0.110519181621968
0.111283158963659
0.108296245043957
0.111571540436599
0.11060656615242
0.115713458531802
0.116508022031905
0.130385126379732
0.11429329366058
0.123156514716601
0.114415235839097
0.114437593557663
0.106807523744534
0.115338824256378
0.106005620117674
0.115049681897727
0.109047660861849
0.115538521206995
0.109372292611862
0.114310862144935
0.109216701285125
0.11501732566069
0.107890325676323
0.116039501072907
0.107174694928147
0.115623459778181
0.108182707232208
0.115868477211226
0.103942917594903
0.123877288778126
0.110486576249618
0.118922251406161
0.111499324565055
0.147127757248496
0.124874151667885
0.114310824673597
0.117669293063023
0.112653102182211
0.114091270206517
0.112066718633379
0.112593950424274
0.118267538770267
0.113015916328928
0.113529922661721
0.112500557692753
0.119028183747083
0.112454703064531
0.113931385952433
0.117206176822722
0.138555221707892
0.115836668238611
0.120219493968751
0.115552438143451
0.122083031201759
0.135306470198754
0.11704561510419
0.118372233870041
0.11947818206235
0.11303223014697
0.120467089857886
0.114799005241619
0.119511922837368
0.120267145617133
0.123866678737634
0.1138560785338
0.124391359240164
0.114231325956699
0.128482052500094
0.122577828447001
0.130314577614504
0.125831252813346
0.12216481185524
0.123417753625135
0.126864746202608
0.118291705728871
0.124337680634187
0.116667265169996
0.125190192799663
0.126684186807815
0.136893838219641
0.123149711951492
0.141636854254938
0.12675531487923
0.12383296480225
0.128372705212915
0.133647506754567
0.130505950482703
0.128738696124042
0.135441139281405
0.160769682471513
0.127318798491622
0.14996056666794
0.122872652428698
0.140952481826949
0.122925211257883
0.138137229866904
0.125359604519116
0.149902101696371
0.127439319730352
0.139229612219262
0.129319290988794
0.146263496633013
0.14550010463537
0.138541005956206
0.137400759014818
0.138659156708702
0.13889546995924
0.147450518699586
0.140861359895587
0.138152122769771
0.164378302900307
0.16672890770063
0.149810464326745
0.152296544939087
0.137588028127348
0.186845118457436
0.141294620795879
0.152577382585697
0.143274999308818
0.150770962928112
0.15046675703033
0.155086568094832
0.167652620547054
0.158693284734615
0.149849927171438
0.163447602474581
0.149982510248168
0.177380656166132
0.160865652838534
0.160032633719961
0.158848219473846
0.171767805147695
0.161067846685038
0.203106533609673
0.183444349789017
0.174503719037456
0.196536166434334
0.178057843118
0.186074011744353
0.179762641824623
0.185752515894453
0.189244557540033
0.195143068124603
0.18145897821714
0.184991317804584
0.193330030367568
0.215334785876151
0.186182022520392
0.196562607182628
0.190989202573584
0.198515734831347
0.238494685777777
0.243783137972655
0.218504578419316
0.210392290699167
0.214981772419662
0.231386970648341
0.217835829012832
0.216900161856874
0.220822119097523
0.221529650755369
0.227292054412886
0.226764419143561
0.244206304696288
0.235918984033013
0.236416734320052
0.245031597708768
0.238982471570616
0.274185973834301
0.285392720236109
0.292206620075717
0.262329618332783
0.303749543629721
0.284597506529127
0.275585282983989
0.278298239836997
0.281363735388977
0.303485631649283
0.289180687227019
0.294558033865415
0.294691045491401
0.328912939340687
0.330168919697739
0.316678806319159
0.346366706365677
0.319780519358687
0.346454614543617
0.337245354714162
0.521939246089255
0.374089052794277
0.362104661450991
0.384988593981728
0.376679544659112
0.465660874151541
0.389951402209507
0.396382066974671
0.401909950177097
0.408694620828482
0.415804129156884
0.440635454774948
0.436199777484765
0.460736039268256
0.455613204764462
0.459622563659263
0.468229118130548
0.562826242516548
0.520589302421341
0.512949301570348
0.485514773917271
0.529899272299077
0.532564830618652
0.531309684229278
0.53079237212408
0.552323467051585
0.53326697015925
0.632657792436468
0.5523159861086
0.591515153850299
0.587732859784149
0.643386033536983
0.585558973673343
0.656959118374001
0.652194915611278
0.62094144968159
0.648857733559164
0.642099835756036
0.664423268468079
0.662119752941894
0.717867361736192
0.705182518306398
0.678251170212074
0.700121096890931
0.705726924458546
0.727627129643135
0.721444024072835
0.752745125776046
0.731728374836569
0.792855737878273
0.771949230733747
0.925833502437125
0.826307991889917
0.760373910996713
0.780671432498004
0.759243781151986
0.842987583804356
0.815964467942979
0.843206084231205
0.865916583327925
0.795949863682178
0.820485192958342
0.802549956073823
0.820496883367627
0.819900110779894
0.831195663245257
0.815092271788151
0.860177804065526
0.842912193155574
0.824864129300954
0.917703903389198
0.847814003063813
0.846885695783599
0.829636754156908
0.824405581975421
0.804487055972739
0.819413509261554
0.818525967800311
0.83672391920537
0.780833447828956
0.792646302039966
0.787719079058977
0.79366902079977
0.827246529205926
0.755830417398665
0.763210502934899
0.745915281503889
0.745159746364211
0.746367208333699
0.721460403470585
0.817596318903227
0.706720293084401
0.700758471819811
0.71014386931019
0.67826031621433
0.686106726417283
0.659570282644984
0.655971592291935
0.6536718701049
0.637491617451969
0.645201847185758
0.628107113900225
0.607612394979112
0.608633522349766
0.607418574461162
0.600397649703697
0.58446192241462
0.586382001094163
0.566948854555984
0.565548592559817
0.551441910017745
0.557185175615631
0.545377670080383
0.551489449895347
0.541222903993211
0.527071172412928
0.523568832960588
0.523972761858755
0.514125869201963
0.514869219951432
0.496308355983425
0.498394189819007
0.490452018857255
0.49202711489373
0.481338668147931
0.481982207547438
0.477771125030166
0.48249024393386
0.462642297155583
0.474325862846043
0.454085406119533
0.470763906953019
0.456214441231993
0.486093969851446
0.489109379775047
0.439130108026521
0.457881409285398
0.437045030575958
0.446044455765893
0.427115004695015
0.472730929980739
0.462276451914569
0.425557913274994
0.428994397950472
0.41625777846975
0.427675532392523
0.429144724720366
0.407835355927413
0.423793243859052
0.409204091069656
0.440058937733018
0.51013256047506
0.428255200814898
0.498074603733217
0.396850381468901
0.408474840394632
0.382192236739675
0.448838545579615
0.38061110527072
0.401291941724692
0.386919591052669
0.420145803783759
0.401324776254056
0.373804600971899
0.382103817601586
0.371769395874174
0.382381154214777
0.404442128742425
0.379967544759449
0.378096602491134
0.409601063545765
0.381808378481538
0.406483597839285
0.414357146217665
0.382935483450487
0.359836135386549
0.357479945972157
0.364012205537259
0.351233385771644
0.417857021787609
0.358633559873846
0.355357500678052
0.343014755898206
0.334900762444771
0.349639378746862
0.348682124347491
0.366324695348851
0.331983538973887
0.379098000793653
0.333128996115803
0.345752811014072
0.372380131527065
0.370399204560021
0.380382741988417
0.333766398591572
0.331206147944844
0.345377248539777
0.378475297694755
0.325130454614124
0.341970047085323
0.321416913486949
0.320592299764297
0.340785314357327
0.324154794707115
0.32762608528528
0.341139827195461
0.331527837501618
0.382465924478461
0.373783381749773
0.364940372883164
0.324295174594905
0.306308137011118
0.316279646568037
0.309394997939053
0.308385884482303
0.30881857683996
0.31269750202921
0.332511807961655
0.291209147834909
0.367651598817
0.306500046288643
0.303562907898759
0.307127526846472
0.306333519908415
0.306062344070133
0.338941993279145
0.331627275257224
0.332019204730743
0.310683965877605
0.339698093358094
0.299833712351585
0.319011389266908
0.298740224075458
0.31504348319855
0.306096659672259
0.323043004774531
0.309579920567517
0.314292283094185
0.307246767849813
0.33042626011529
0.315193784892441
0.358964063351353
0.302870297566826
0.35457696923401
0.340925839968075
0.36784311986095
0.348525629986201
0.326691095039722
0.335553276990007
0.334817643817012
0.334930099431256
0.345401698605992
0.333831822519916
0.383518301520736
0.333531859674866
0.347889121367591
0.33774151386474
0.345539287612369
0.344578239554554
0.370572126803123
0.372637866770989
0.367974974658403
0.41483312013817
0.351516802682333
0.366019974506053
0.345005009794983
0.360591504405811
0.356465144159371
0.341699255433823
0.357002892120685
0.343314812243138
0.380984754223691
0.353292003956339
0.354297608707336
0.353659968231389
0.353341699087295
0.354309851631855
0.354700682097343
0.355312369097763
0.361480632738973
0.350069410831232
0.369612726527233
0.341777294294252
0.418061811066901
0.376916510096567
0.353783087946708
0.37080553024519
0.35720372648367
0.371037532291375
0.360929912912776
0.375476466894231
0.372671182125763
0.364765702340677
0.372486747592324
0.360913865234485
0.380102172404504
0.377432193886041
0.396475735110702
0.369831310984062
0.369641708389257
0.381953911385727
0.371985915167835
0.437136880947482
0.368706002597174
0.400091842911841
0.371567976565616
0.38196061546888
0.372331616004045
0.379067609097728
0.375050062074874
0.38222975441182
0.378257442522982
0.376850791332044
0.375522987661229
0.373062411294413
0.382962734791691
0.374142813206302
0.393481125891281
0.380606009196189
0.371041731228789
0.371712736176319
0.371168796373063
0.376266650516279
0.39142650387266
0.39377050305106
0.36712967716069
0.383407397094932
0.378322926060576
0.387265189725533
0.380973586532496
0.369435693043336
0.36889270933028
0.374492912246801
0.366347823978972
0.38061388239326
0.369729811624825
0.40144783995313
0.374978716674352
0.381586587238654
0.373033093963169
0.381093106233168
0.378298440071396
0.385331362008757
0.376802287255845
0.383928089449789
0.384211050547158
0.387061994966448
0.383366626478533
0.384457717611205
0.398637946315944
0.390279275324292
0.396075039207053
0.383464019859701
0.381453729629089
0.384268065400861
0.378119381872855
0.394010357482163
0.378359177997368
0.382573283674882
0.370674204991716
0.380457891218045
0.369680336872911
0.400305540596778
0.375981946674597
0.369845545781197
0.379439084393547
0.361909344235495
0.372451950475976
0.362286502557874
0.367824139916171
0.363256515207072
0.369095753242131
0.359150503283837
0.359959150528428
0.357712502522476
0.363361909395128
0.359943285569029
0.358894141845364
0.35621987621349
0.360464134815743
0.354827019588973
0.354331151051784
0.359707871317938
0.356343371026514
0.355598636334994
0.359283041900873
0.362636739216815
0.37290260795878
0.365392601967105
0.361990669950251
0.353763063668914
0.365271647042548
0.351993001297765
0.358487808135327
0.351219654508671
0.356884978053209
0.351973155929744
0.354133087756549
0.349356595643588
0.353093859482891
0.350291011789925
0.355680388817678
0.35185694998885
0.354977052245512
0.35013890987316
0.353247623021881
0.348160690582077
0.348339347144357
0.351162623919622
0.354640313609928
0.355334362369917
0.346483360101112
0.352321361561845
0.349306543092679
0.350538986180221
0.350409686886352
0.353718848586551
0.350227174866511
0.347873412072398
0.351722040336348
0.351032513595658
0.352448339215394
0.347268592412475
0.347415523761287
0.345680215193015
0.343853438000121
0.344045038159411
0.343642303629994
0.34466497959395
0.344397093187366
0.342747380976416
0.341655869934146
0.33771077999578
0.336184704265912
0.337186813764066
0.335298354406658
0.337245145671114
0.335386726327015
0.331653022242334
0.33057240786086
0.333746011009678
0.332241642234138
0.332460824476382
0.334847028589233
0.333059136972142
0.330630669150211
0.33052383735133
0.333127950860242
0.328435458322363
0.328627279831736
0.331042053588061
0.328688310941074
0.330381205827439
0.330245508966134
0.329446507731142
0.330385023635405
0.330794013424263
0.330478892853631
0.331256600519206
0.332187954864676
0.333749468213966
0.333488024197384
0.333473080128436
0.335098987462334
0.338552423215912
0.338656513270484
0.335952043619372
0.337242013652265
0.338642980449817
0.338461095379675
0.335813376781147
0.337364588091521
0.336093434207916
0.3379241275806
0.335537219603799
0.338864732116885
0.3361293687029
0.337090341520071
0.335027006916668
0.335211658084373
0.33547932354596
0.338027985181381
0.334902049980716
0.336013574956714
0.332883650976032
0.333367465087138
0.333663955080885
0.332545864960868
0.334326053179478
0.331552898516705
0.330656138919548
0.330661342409281
0.328330123639583
0.330143353905099
0.327529710185359
0.326318048138787
0.325939553725782
0.325765531282763
0.326566995424383
0.32405883987947
0.32420472595443
0.324713268317771
0.321166467792095
0.326029988400036
0.326409772402651
0.326417202794793
0.322379800203953
0.324187875149438
0.323986198378671
0.323915711980994
0.323656836554927
0.322466441216313
0.322073523340473
0.321591569636991
0.321004043043604
0.320370530132831
0.319144828597064
0.318323746330612
0.316037795522024
0.317686796055268
0.316635514293408
0.311309761015615
0.310144385794038
0.313637075142826
0.310957392988701
0.308423785904693
0.309938014220952
0.30772981025971
0.308222557784265
0.307182772417304
0.307114232390645
0.307859478941289
0.304240077871936
0.307024836254373
0.305397953585259
0.304294285587854
0.305841908100313
0.306166633953717
0.30453193993074
0.305151250618634
0.302446215333573
0.301957442037628
0.300801355722539
0.300518803634886
0.298876867608652
0.298205280384509
0.29804743166918
0.294829938924503
0.293361705348777
0.295149615461398
0.294962827305956
0.293234908977823
0.292800875952708
0.293855039156916
0.294707087385566
0.296590350858295
0.297759989929826
0.298921988499992
0.30001701085168
0.30423011989675
0.303479665230315
0.310196828438987
0.315825557534391
0.318508136092823
0.322165391163035
0.327874357658579
0.335519702362065
0.340368686199396
0.345083181984684
0.35113390692206
0.358969502784803
0.365969078125213
0.372753938260749
0.379180080153271
0.38650212025337
0.394401422364554
0.397324378378836
0.404869439123699
0.407834852829534
0.4155154110837
0.421349226447378
0.422526213275963
0.42583165327239
0.430686545447108
0.429301210968552
0.430944808766841
0.432019130210739
0.431625813351991
0.432844127530629
0.435263395473726
0.433880452387197
0.430099178692464
0.430233863206804
0.427431523207568
0.425867368639945
0.428126146112988
0.425160692075568
0.425342525499662
0.42762642135934
0.422767752043245
0.424717420271004
0.425959605682826
0.428120989879219
0.426700838122824
0.426444389613423
0.42875904329464
0.431601035984378
0.432393524624043
0.434101103331962
0.436675568637618
0.439152849131729
0.445618834257641
0.449858998298979
0.453106774640754
0.455561200615603
0.461783336371829
0.470515451129949
0.475838146149349
0.480701201196259
0.484055164289332
0.491753666668587
0.495851634342767
0.499242895447778
0.505253655219498
0.505059453257352
0.504603043774398
0.507693847782625
0.508847641292858
0.505643163070018
0.502565567655104
0.502750566061675
0.497866989340408
0.493797442089023
0.490666575537632
0.48634081399649
0.488310441329343
0.48985572470354
0.489240799907743
0.490769184097914
0.490772806619388
0.498099004849586
0.503642822993342
0.51042720509204
0.517147459822734
0.523751301549274
0.529698311409331
0.536026687914454
0.540270882139486
0.543897452835998
0.553897817784025
0.555958170488952
0.561918949102623
0.566594043791472
0.572244128841292
0.579164105431714
0.57934471885779
0.589595969223197
0.600370936396486
0.60199147436823
0.604999681864509
0.619317362405755
0.62725917996741
0.637911560576465
0.64861626475911
0.656730615637001
0.666597138745292
0.672236102964066
0.68007730756711
0.689851915863563
0.69149316814998
0.6989248271405
0.706624743759658
0.712946704669752
0.712483058561675
0.707623388044361
0.710056891998445
0.710967352730167
0.708582681712396
0.706549011756323
0.696341829007655
0.689843583146253
0.68599423259148
0.682980712160771
0.67831922180171
0.676029944042804
0.66461771073101
0.663471183903682
0.668967905354189
0.663340717702357
0.660424641128638
0.664617571439019
0.660255105715715
0.660536241830251
0.668239438536995
0.67109909166838
0.67558777493191
0.679688210550354
0.688641244011157
0.694228559257504
0.693131955223213
0.697614456046674
0.701896403468223
0.700869956972916
0.707924748429043
0.712874715369716
0.712428746877361
0.721833471331633
0.715015022518753
0.712573908213952
0.719292950315371
0.724024431045083
0.726017850807491
0.722893501531857
0.713984648086733
0.708234539214274
0.726556517592094
0.735892284875463
0.724411964042909
0.717068748191917
0.712348302514413
0.711922800077452
0.708953622873819
0.702568224561654
0.695933241751939
0.697704913960345
0.692732381379745
0.690133352488267
0.683869758453092
0.687031131276592
0.68097452038545
0.676996610511828
0.666654906219553
0.651086855208768
0.649840587728779
0.635191831285227
0.621259832262482
0.608779969803069
0.591731594263066
0.577891024686809
0.570023810258278
0.559703956293087
0.537769492494666
0.533154765785832
0.521671694053132
0.512754276999448
0.506161826691194
0.499638027988824
0.49830005994452
0.493187259037412
0.493518368126677
0.496393370867015
0.498148283169701
0.501857245445624
0.495870894504465
0.499939634820121
0.499602419494107
0.497773023663907
0.496797977013006
0.49339514106216
0.489771358870659
0.486804004391358
0.485093277987235
0.479134174341959
0.476857200941732
0.473794410148388
0.468327786789861
0.469743772591356
0.464116211216468
0.453242666118608
0.448629566571453
0.444684833090422
0.438575461638485
0.433740049966908
0.43156529875546
0.426648717889244
0.421768833876705
0.416592721297701
0.412453601333098
0.408353032145994
0.403004827741873
0.403879717725872
0.399319034821753
0.398032109226181
0.392551903515042
0.38791470454209
0.388928851148212
0.388997204183968
0.389056583010848
0.388056041639602
0.381193847818768
0.382623652689823
0.389980661048903
0.384564819052858
0.384849643679946
0.387779012266048
0.387825052273848
0.388591418809127
0.392163335007886
0.390197578312393
0.392504310800807
0.393426668715424
0.391079653400105
0.398031055371631
0.400826353112735
0.39789980442174
0.399636390170931
0.40200127800761
0.411188345656668
0.404906736854133
0.400868398022007
0.408235035920264
0.410007105152688
0.410048419272955
0.408054433635291
0.413821758469605
0.416014331861558
0.41417653478328
0.418606633660056
0.420392266202587
0.415882005362634
0.419192455779582
0.423181826794121
0.418894051010648
0.419487732165697
0.428832009511508
0.426664620944496
0.430914201796755
0.43635723444598
0.436393197060177
0.437721457421066
0.444295244842457
0.445631520895744
0.450425059017512
0.44766236039014
0.450263732060396
0.457466726125846
0.457462718381757
0.450016130464288
0.449997271629113
0.463472859511929
0.462390991746756
0.461725436068638
0.47126318906899
0.471835594969598
0.469310186116959
0.472679008103157
0.482624342462107
0.479784066784964
0.478661232611562
0.481986153940018
0.495050049703923
0.493478715210339
0.49787235581738
0.5005242450002
0.506837240160976
0.508039939030704
0.516865521149017
0.520587786943493
0.523757242788294
0.531354668627147
0.538577957161962
0.53911425749734
0.548743483922193
0.554154786186572
0.549310918164863
0.56016158961093
0.558182219532312
0.558257893035648
0.564631719428809
0.578942911462125
0.572838984301623
0.56192983444944
0.571594076010255
0.577155518226164
0.573918120401703
0.576500649000461
0.58213534467389
0.588200765251177
0.593553092462702
0.588558963644609
0.591634489845122
0.592802808675284
0.605974299040723
0.616640760725234
0.610614736850496
0.616910863430208
0.61879849716034
0.615021586889499
0.624356279153071
0.618984707553559
0.610817589393626
0.628412197589405
0.636017188505523
0.633856914926359
0.629729640119168
0.639234524368044
0.644001813775865
0.639680054303645
0.660838932842417
0.652270976397715
0.651461453692018
0.650722866326164
0.657233766370877
0.669783595057482
0.667565291096058
0.690275816077386
0.674388329319571
0.690463323815966
0.690360724600762
0.688940550541273
0.695635897699703
0.700616246701744
0.706368886483952
0.705868772790573
0.715096785348667
0.722324682476666
0.720515213834381
0.704749822560472
0.729525208235985
0.724447311507421
0.723816037026524
0.741898477404936
0.722526141895834
0.758782822066562
0.744641410709305
0.738919055151649
0.762700638835951
0.768505339605151
0.767341833127531
0.759583422712557
0.781567171779717
0.785824514471153
0.781219536730547
0.785473502593979
0.794445503164108
0.81539536133536
0.800463907825243
0.803863976845195
0.799910151560536
0.817095643357038
0.805153799058775
0.817384288118809
0.838738425669123
0.83534514400292
0.84285232875399
0.847099056987688
0.851577731709247
0.855196461344164
0.834489106549157
0.877317666788443
0.85030800142887
0.841754032026525
0.844344290819556
0.852518669622195
0.884466633647027
0.880623085512166
0.887114003301342
0.903840379543301
0.921116405964381
0.908273989124392
0.890861862965417
0.90327874550997
0.917600812777535
0.942531240428387
0.934526718841937
0.924400697237143
0.973774668867608
0.969463502602507
0.963957444633901
0.98076081578175
0.912635242246743
0.976033432893374
0.975878601865954
1.00954955807166
0.970347007119771
0.97581978648097
0.999047167023598
1.01133693009178
1.00448720903391
1.00496285336491
1.01688950960548
1.02043491060417
1.0261348630609
0.999373300657424
1.00937933571834
1.10722030611157
0.997996145852971
1.04565465326205
1.09946670539108
1.1256177425876
1.0822162910083
1.09917612976772
1.10500095730281
1.07348090290215
1.06473565511978
1.16675496474691
1.10666036756617
1.05505528038476
1.14214026386126
1.19936905972545
1.15241958911515
1.0978050454826
1.11765738325421
1.16435664587367
1.0968095714466
1.16108429813742
1.07760485300388
1.15195879526161
1.11122361556047
1.04969798121218
1.11599361234729
1.16624304169537
1.05476691139809
1.20074992330524
1.17397236809801
1.2238079392904
1.1205408501935
1.12939992492789
1.20560549021311
1.21273394247307
1.15476820729806
1.13726593173153
1.18783873492707
1.21693836253122
1.09844383199157
1.21669044395211
1.17865038227921
1.26012025903183
1.31159742519693
1.168644046667
1.19264005875044
1.22781153747927
1.32878961031657
1.449801961601
1.20810234653257
1.30592038821716
1.24839053488488
1.33147696743508
1.33985176574274
1.28008385700496
1.26563403230613
1.48524075128297
1.08578551191473
1.28271061337396
1.19975459061342
1.15226424520715
1.3258350023167
1.3854106027974
1.23115217432298
1.19463599074411
1.27430225604417
1.36573222530375
1.24433143352145
1.16970580652599
1.39797543365455
1.63428270312669
1.30199748914829
1.81986496607856
1.37641109739217
1.17718099027724
1.45665886926089
3.02388140359714
1.40975057854935
1.46905896097434
1.26288973413511
1.39311127294232
1.32169763353974
1.77939779098087
1.51821030004907
1.33129176741546
1.21669019144271
1.57323008681567
1.79919747091389
1.61807808231718
1.5175741358589
1.60212535565186
1.2231034782338
1.52740484646791
1.40152005261202
5
1.25071226745922
1.31986401537735
4.71825237814938
2.18359279165722
1.21772041293959
1.31323949397594
1.37693161884541
1.24894037539845
1.57886676629805
1.31043815599235
1.13975704272407
5
0.903124205147802
2.00158859759749
2.86997759211149
1.78666716499791
5
5
1.74869907263436
1.27169574170067
0.97725529858228
5
5
2.24359996316406
1.18570503946243
5
1.41444134426852
5
1.39105702945877
5
1.24456989464651
1.11402541169764
1.40089818889116
5
2.5185085977359
5
1.36325901675957
1.40996208679406
1.2761765850015
5
5
1.25504473533185
1.75702102866135
5
0.839328515856525
5
5
1.02805464628732
