3596
4000.36533379555
650.420452594757
1
2
2
0.0454345383323565
0.0419021675895521
0.0477152937178823
0.0468090300024448
0.03885628712178
0.0354323368914984
0.0389983201551805
0.0383382394037996
0.0381470317966261
0.044840434571466
0.0344288455382735
0.0367559253102554
0.0428553116798177
0.0475641956022215
0.0425452905189957
0.031678857930121
0.0424507622916277
0.0358742776446336
0.0447003157844274
0.0426076173151235
0.0368967356808159
0.0418155098087168
0.0406634187129893
0.0416252075217339
0.0460416986662321
0.0448620925347624
0.0528829695832618
0.0471816519240561
0.0452485460417043
0.0385108026049064
0.0332409995744531
0.0384426444048131
0.0431189476283845
0.0471283670038348
0.0436191526050663
0.0362058852976991
0.0363633742339482
0.0333925833689962
0.0417840292346863
0.0471999783577689
0.0430099563971846
0.0364279861218263
0.0432953348504405
0.0425319404822925
0.0351376788298388
0.0417399104689594
0.0424999905528665
0.0407792916521422
0.0448617982342879
0.0379107935972833
0.0424503320160491
0.043586305382494
0.0483704229037137
0.0380833651411979
0.04542179909569
0.0498023580985819
0.0482274543897263
0.039630258360536
0.048095529175901
0.0386243050076599
0.0521429327468025
0.0469184077694413
0.0460738292700459
0.0449094522825028
0.0461480175198781
0.0446669375193675
0.0334958295620303
0.0459356993482693
0.0377003077790935
0.0406024964660796
0.0390461671159204
0.0538707352296549
0.0474079352948973
0.0363876966337899
0.0467765731420011
0.0540717979724802
0.0494230157053018
0.034642330111627
0.0406474658670454
0.049186152088815
0.0473813301957488
0.0455753650925744
0.0420225524584099
0.0391946300038481
0.0494701512102783
0.0504315456601687
0.0315217272436277
0.0598939514789444
0.0604796476535867
0.0394243253331228
0.0368438621907654
0.0369786478090597
0.0418287217582671
0.0364727875639186
0.0342719015153597
0.041287451934995
0.0331095027647346
0.0508863340004284
0.0347151407530477
0.0386263656203355
0.0460577062428348
0.0776496326073734
0.0568956899139343
0.028263171093279
0.0650688642423034
0.035567537642353
0.0570097742053094
0.0757088543315039
0.0444054964233993
0.037419441698924
0.0396320180840939
0.0435190872684029
0.0484564665992225
0.0489829686974569
0.0423226605484833
0.0684729083141458
0.0470938283600731
0.0424146691934836
0.040376383151633
0.0390413336976505
0.0311685763145721
0.0853881124608673
0.0515971281027418
0.0463528657605724
0.0452054141368732
0.0357979448435235
0.045785747116212
0.0643538108648019
0.0458311755090995
0.0468828787891191
0.0395808341454931
0.0422026502807079
0.0262981542017856
0.050361065274331
0.0610434310787647
0.0377711867932098
0.0540988344538417
0.0395688028392052
0.0722492447107827
0.0595452913078423
0.0440727639428905
0.0462646840927743
0.0414938007377689
0.0614550498039744
0.0596097551149819
0.0394322603760616
0.042014232627337
0.0649324663535123
0.0366735322902603
0.038661785391874
0.0382093886465059
0.042954166844357
0.0490703610217531
0.0473441355136486
0.0422737954839968
0.0942509250908869
0.0518017774100837
0.0666540949061442
0.0606201598237643
0.036816738851156
0.0526397463138864
0.0305716403398248
0.0507006370513128
0.0331621650897081
0.0482763510713403
0.0400284361849955
0.064757502796534
0.0444535370467472
0.042823602833891
0.0531955348182938
0.058930919750642
0.0420133438770346
0.042997146178099
0.07487805307588
0.0370553099997481
0.0543910509214181
0.0649269165771874
0.0451727945736239
0.0358028836744279
0.0603353019469829
0.0474806530502789
0.0315038538133743
0.0411356675256505
0.0345108438369314
0.0427193183713654
0.0456015250915333
0.0411453347976669
0.0485314267109102
0.0427821482221508
0.0385062711037442
0.0631106172275326
0.0655795568670689
0.053458845370753
0.0428644132706531
0.0432706614489903
0.0345316226319618
0.0722854111738533
0.0422849892643452
0.0419815696476198
0.0367243026758913
0.0408288344901366
0.0417684142728399
0.0346259989224693
0.0334685542592524
0.0381386718198141
0.0449796100358809
0.069864170330026
0.03437047054834
0.0410051096878696
0.0358522004144531
0.0484096960676273
0.0450923845725465
0.0898837664796943
0.0451645693310967
0.0462663641304408
0.0378982097509255
0.0460609353882314
0.0511423026639449
0.0462792783629331
0.0375839730006731
0.0404148242167022
0.0344291791589077
0.0402287789134964
0.0309821772027675
0.0366026521518219
0.0358900166186555
0.0412835148351529
0.0439970790635678
0.0389212793757145
0.0406955837848697
0.0496080664490115
0.0406700092504023
0.0384318229253089
0.0388489189431329
0.0348305908430965
0.0488891875276734
0.0483164288337019
0.0426719675640766
0.0392579070922992
0.0377601001948456
0.040539360842977
0.0312987937888368
0.0411007021002541
0.0362722948246899
0.0379345026943637
0.0452622921324262
0.0619423274663922
0.0303353997521858
0.0473841162824908
0.032357733457539
0.0666188462834581
0.0367737192892194
0.0476200153031491
0.0394514419681654
0.0511626785192019
0.0338408223112353
0.0477793427188256
0.0630605798250194
0.0554623804883179
0.0374320475181773
0.056712015667854
0.0375704602464065
0.0466791395260359
0.038005122637207
0.0583017940401249
0.0842026962033569
0.0553159205614707
0.0637830324892036
0.075575251237866
0.0387286307039396
0.0581657208561947
0.0362636155471758
0.0559295272536938
0.0886712727377593
0.0670382723325835
0.0469872080784621
0.042066672939799
0.049986987379286
0.0382576254103862
0.0580692938613725
0.0499630077563287
0.0598493787257276
0.0749113582738774
0.0778772388517673
0.0735491385667717
0.0370252074584336
0.0792085842472704
0.0367776517867101
0.0559679437659503
0.0316037910010715
0.0444461522397828
0.0401619164488052
0.0636916244598272
0.0401916676717723
0.0607274581828669
0.0445382315774952
0.0585956815863392
0.0585387645637015
0.0521145628999183
0.0419962458956055
0.0581121934328848
0.0573712560406631
0.0512544101281435
0.0452394187487962
0.046864496763755
0.0507365682541806
0.0446497126468991
0.0597378204483813
0.0767306892033785
0.0475196074190269
0.0619945130147437
0.0557480925595247
0.0431383681623483
0.0444681369919791
0.0452774014566576
0.0487162567645852
0.0431969833050465
0.0443530931270444
0.0507048114818304
0.0621964955309608
0.0438207006888687
0.0480289216919611
0.0444785028903624
0.0488791961990253
0.0499874632630208
0.0466878027427212
0.0519221556162416
0.0444285486980526
0.0457588562286471
0.0424801146694603
0.0677536347296931
0.0633437999866777
0.0478875817698991
0.0934196426543933
0.0569910677828395
0.0537430093756972
0.0489181906045295
0.0527497779788952
0.0593401568590028
0.0492724510605572
0.0536237276885528
0.0540433259219558
0.0653200520191747
0.0676903408884215
0.0567519436879504
0.062397297266881
0.0722297988616521
0.0922746311438899
0.0800892668949616
0.0558307444660212
0.0648990564627912
0.0625091433808693
0.109272245273724
0.0580438862464418
0.08607263603838
0.0702677494466211
0.0620080373523649
0.0655912941483186
0.0582225835809582
0.0692810385560037
0.053816490774266
0.0669399801579665
0.0620775357075134
0.0686627740712696
0.0699978107139522
0.0741490270566655
0.0681219971559713
0.0916586906618649
0.105705494924025
0.0744538426903039
0.0743856681687344
0.0786152766664649
0.0786707100125906
0.116811801222953
0.0879353744984793
0.123453404440084
0.0955432074630311
0.11387639920093
0.109710029163734
0.0830071482682947
0.0887074471828221
0.0827199105314029
0.0962652089206721
0.0881428161780965
0.0969655992925628
0.0868514869168982
0.0935783856363169
0.100791969326428
0.0942482194320787
0.101211283269647
0.103825200708275
0.0975757614850405
0.122733068709913
0.0906019019444954
0.112367351296441
0.102215010931606
0.151941217167283
0.142660630878901
0.142129969486634
0.104316567300878
0.135197234233524
0.108197115933129
0.124991111048124
0.114512260063005
0.127017468398416
0.124217957940934
0.134395111525716
0.149619864720519
0.127903813797213
0.142865712997183
0.144228285350242
0.128959204972144
0.154354942430932
0.124997780009654
0.158776569137059
0.155587984523961
0.143850943794813
0.141104849588271
0.178249312708386
0.13951248078316
0.166449952597068
0.168653976110935
0.146603601301756
0.149567994724128
0.145454179050139
0.164101027580127
0.161315743498079
0.164593366553508
0.166686501755201
0.174501863428084
0.165725666518335
0.165038825226651
0.177178499349496
0.179115078943285
0.164094821957754
0.185200469004887
0.192753369616254
0.175786164393411
0.185289092390968
0.170589180965227
0.229851557578167
0.18560988377449
0.232785913935664
0.217350934629233
0.187339765065721
0.191722454950052
0.20822829099117
0.197047464200232
0.206417266769045
0.200447799236854
0.21557926928847
0.200909617626706
0.209254677088645
0.21794349592468
0.226578993429064
0.208598746994291
0.223516486740622
0.218062783417092
0.228282043009459
0.220684330870714
0.234014091460176
0.222974670951042
0.270116335317752
0.248096571850303
0.272427730217019
0.256629528869283
0.263151060444709
0.244674226127823
0.261600153395832
0.253263583312051
0.257086937749858
0.270799915547812
0.26278601387426
0.258584899432722
0.264925664421266
0.269811059226518
0.263538031177682
0.268639665417773
0.286170489363354
0.292483175724881
0.301037343488301
0.272816566572747
0.298109980680991
0.274863489110508
0.293872403363299
0.306489155886567
0.300844041903204
0.312953457760518
0.294793348203088
0.297175218957105
0.316750200848458
0.310748108855145
0.302451016232814
0.298552906857566
0.327679198790036
0.317395555302823
0.334544162593634
0.326391860643169
0.338994254441638
0.334111215342015
0.327058109251371
0.337035294848338
0.341462158354243
0.350510795278144
0.371719004989118
0.345541183334961
0.367819818955193
0.360326051523442
0.373695466698462
0.355274657240093
0.377757939377107
0.375182121984907
0.385138905341173
0.373870669354022
0.380411946131651
0.367596778379432
0.377858046168636
0.387305652223615
0.395237293758531
0.380804958310081
0.39465425920692
0.377493597991376
0.411859299128218
0.407924002818632
0.420042062683732
0.411658239118486
0.440741864112346
0.396345631417799
0.417548778682711
0.414772066964884
0.423847286855302
0.425092273307419
0.450692201085288
0.434745444771096
0.433792264694435
0.424285961513812
0.437021344817854
0.430409475085091
0.472259326506054
0.45131426621297
0.476439125622989
0.45817200132744
0.468067871979508
0.456029684204718
0.465336606400212
0.469116397695496
0.499906954159321
0.476140386015516
0.470133198419404
0.479135977713435
0.482237284839076
0.470045234920456
0.510947348142638
0.48264721674668
0.539941464758463
0.496806993858038
0.51304810608471
0.473019493006296
0.508954426106586
0.516672325854264
0.506750619787798
0.519120105257142
0.535579461474014
0.516884325985425
0.549514796310294
0.528914411926462
0.543671041727127
0.533241125665891
0.531752270466038
0.513198962064562
0.561769015439629
0.519161964149146
0.59292702650269
0.534181105908706
0.563463190143508
0.574581276554167
0.581081601569233
0.549333554317376
0.57435060111143
0.5569927766781
0.583144014061993
0.576104748417485
0.606438356711949
0.574373230295795
0.612890466011046
0.584150618279471
0.605783660608408
0.573544602003003
0.617250405372868
0.590443734663769
0.614814077342902
0.584319184089495
0.617581793227502
0.588698783711798
0.640362897766933
0.615351458528172
0.609037760019808
0.614490239035512
0.637699915033043
0.584924769731124
0.618903606301693
0.60124598992704
0.632469697817595
0.60568152585688
0.671356350860489
0.620980707454349
0.703351867422494
0.663017330267525
0.696923742025434
0.650600278151706
0.68442559538221
0.667191541811085
0.671193378791472
0.663466472810746
0.675205693621486
0.646979535232058
0.698332025640642
0.678244967650039
0.701130091967763
0.647925877606426
0.69496148775642
0.660869371652444
0.701260104151205
0.678274983192102
0.713732489510688
0.691593006331491
0.691536783296478
0.687093376742005
0.702631619853513
0.655397376018042
0.71690405194254
0.704738039256292
0.715215580751692
0.70590973988996
0.73690748322871
0.692910395003476
0.729409786769911
0.715097901846408
0.725946954157843
0.666857821488873
0.730537370618543
0.681504167491693
0.724759162482725
0.726007244248225
0.78458292966834
0.746545228216943
0.793049221716508
0.737856215027855
0.717351075207244
0.742208382235204
0.758008817929582
0.727614305861305
0.777515205494449
0.719478825545785
0.783599676616763
0.751759013649708
0.785923788757113
0.759965090344699
0.764818752219868
0.739290460551074
0.759288783674889
0.753634743853239
0.778382578663635
0.757255650532761
0.784842571297424
0.757027585208834
0.768860718765863
0.767810237831913
0.772551446514088
0.785283755634261
0.814084385293544
0.780878024723641
0.823356363681059
0.753602848042498
0.786007416370533
0.769091074971059
0.784716460898702
0.796184218866397
0.778554773739809
0.745541351904631
0.809768213404974
0.779050885727215
0.7953471921861
0.76815304697073
0.855852027238914
0.786396934861141
0.823702856945922
0.802421057716676
0.822709368296466
0.787335734177524
0.827313013254233
0.80977151871754
0.827943155327171
0.765745857876714
0.804475542561599
0.790994300546365
0.812218807205481
0.798584581915068
0.819766580231024
0.765324215382929
0.835784868636783
0.803912244187158
0.823576340014895
0.799003479397893
0.805745657497416
0.80341041564341
0.836827471821311
0.820340252464519
0.820054073545589
0.804143985361679
0.850576863900402
0.809059132927116
0.838179008722916
0.783219208913665
0.839505586308291
0.790208105907557
0.821685915658499
0.796298910520744
0.86778029019798
0.808187843647801
0.863055264616861
0.791733723895584
0.813805646044904
0.809411694849796
0.836725705245954
0.805473084448537
0.843222387366455
0.825736449994399
0.828396060806545
0.797785824186271
0.845217642713011
0.791720685078905
0.816901974438445
0.805898287951948
0.847720649118265
0.812175162798065
0.830717742468218
0.808628218561512
0.847651320461999
0.800020421110562
0.819044803369345
0.809467120176402
0.834489353085503
0.793926758942337
0.822585563414614
0.799915400940272
0.845119058598293
0.805308237119421
0.814366496789142
0.796213665896321
0.823117920783798
0.80799424516173
0.828669348023316
0.805754033977761
0.826160058686872
0.801694478996608
0.830234389803342
0.791864684012811
0.840230805456101
0.818254357013193
0.820616600405049
0.817060772141787
0.835736862748525
0.819281406953532
0.842526228903861
0.793833631223056
0.854542326474075
0.802703103371722
0.81688416374844
0.801354929789764
0.83165119027125
0.814496762950728
0.8168116281194
0.807126261539349
0.833547503962084
0.78685253546436
0.802320111981272
0.813752675412921
0.820383931121639
0.790385683640695
0.813200298965207
0.796028781582335
0.82609989426935
0.782733646827478
0.799753385978913
0.779732478779825
0.820215428126211
0.811352065071458
0.813676332735851
0.796666825694228
0.830178801063618
0.779611310941326
0.812659253577891
0.793344682680799
0.814586748587546
0.779848262073849
0.825957100410875
0.783110689206403
0.810413667514488
0.772053093714631
0.776364193752762
0.774434959445088
0.778670907577275
0.778461667711203
0.797659336332004
0.780376748621286
0.793793637456155
0.752490377522338
0.777405298355789
0.743073739685156
0.782003140563285
0.763825521400103
0.767776791460992
0.76527369741171
0.764203658613024
0.736966387644934
0.777231247981524
0.76338007672641
0.766239046790281
0.725596755197083
0.765660657445608
0.74793122733292
0.765658131081274
0.73911092832804
0.77777416426211
0.72845859617884
0.759843668472634
0.73232895462274
0.764807316528629
0.748730310762858
0.749088584520947
0.734212464479223
0.744320694251938
0.721848361010452
0.748062581593173
0.717836321089055
0.724953087557794
0.71898354414533
0.743938065534998
0.711737086352163
0.724833778965274
0.720907316436952
0.723420298745055
0.732144385255639
0.73124724966919
0.708898840231413
0.704358416357819
0.698162477470716
0.716115726095005
0.694158112610858
0.713005089136154
0.696843645304308
0.716525383354001
0.688378449676198
0.68444802214911
0.697736727962058
0.698568849711653
0.681889029824962
0.689352935886469
0.684691717726781
0.687250823957817
0.662676254637206
0.685444368495413
0.662802917117006
0.662795051127288
0.645138992282369
0.67035967965038
0.658446131022187
0.670226983446986
0.656008354728657
0.664295337541466
0.646230172984142
0.658938605567984
0.650865475185061
0.647436470225335
0.631682114484449
0.65137223886721
0.637311649329386
0.641142832263995
0.625798131938639
0.630993707259786
0.629780117135208
0.64168183198062
0.617067901969033
0.621687459899358
0.620379562936324
0.634983816644354
0.605681758779267
0.614772538926776
0.600616562377479
0.610457270913025
0.60442996986988
0.597304791997487
0.584591267680668
0.612595736849209
0.598312366281611
0.609061243703858
0.582587978299859
0.593879874826604
0.567409176380283
0.584827264713272
0.571732904482994
0.573074740087798
0.572816613309442
0.570887185024588
0.562576969949952
0.569868833001694
0.544955078215699
0.564358246056471
0.567211541675497
0.562928945141834
0.552433800480088
0.548408175731147
0.548902925211957
0.549422845046583
0.537153236206339
0.551243221404204
0.528272164160515
0.536466477345148
0.529868255028398
0.525190635849165
0.51277297657755
0.524177500007952
0.519633812707634
0.524538438600731
0.519434493534212
0.524482305604191
0.509808481226566
0.526428651920771
0.508485551318414
0.510305672932058
0.502352780547665
0.507902622811215
0.504039832835938
0.507326534905819
0.493516820173933
0.494694202074145
0.483025727532477
0.480729413574313
0.469979111361279
0.476577102386245
0.474940494068926
0.482197070559033
0.464847820248804
0.467153215892368
0.465903883932896
0.475398619620321
0.461362247094744
0.467955918301752
0.458160731494742
0.459549839160762
0.448850859689133
0.449900611597675
0.444415595919794
0.443580940110286
0.450714663176715
0.445053620175952
0.439770599075246
0.440816110384379
0.43089687961894
0.43804650814509
0.428741043640562
0.439090712366583
0.425466040871307
0.428393856029776
0.417026913613333
0.420281613433961
0.421016451242876
0.414614251102141
0.40933169413473
0.416319615169457
0.411167847218044
0.411682275828022
0.408319018361435
0.405276247383408
0.394443087694045
0.399055180081762
0.401178280309373
0.390429982127255
0.393995782374478
0.400685039634628
0.390405696495921
0.387654752778934
0.391492486648201
0.383310740479683
0.381470154907628
0.380035714958264
0.368856327034297
0.375075361715183
0.367673079400548
0.369405523137762
0.367514616654645
0.362175522536354
0.36578083346044
0.364937880839698
0.362485389204432
0.35986739698247
0.362982670828341
0.353330589737622
0.357645287408347
0.355060461944881
0.350954109705514
0.352170570971563
0.345136341527614
0.341486330174956
0.338139054714093
0.340715646638517
0.345296523991986
0.33603922865657
0.333891375699563
0.327498365908675
0.330790192388461
0.34275487425652
0.331633684243772
0.324465091707545
0.32252244175548
0.324360016443113
0.316453690023868
0.320879086837541
0.316950979932739
0.31787182449314
0.316383161272503
0.309661987397468
0.307366239243005
0.308674205454848
0.30286565273572
0.300091933967901
0.305409261653423
0.304321766780455
0.302407663895628
0.302306562875024
0.295836333982049
0.29405513855542
0.293983282296544
0.295819115277343
0.296230186152028
0.285765796690671
0.280865075216757
0.286130845154072
0.282363694427079
0.277360448734154
0.280746519542368
0.276342331454797
0.275801783390234
0.269571762315705
0.27183387185117
0.272581362948715
0.269921002102341
0.268368171752166
0.264673412482446
0.266738235935885
0.266936406914339
0.261527406340474
0.263104147566776
0.257831793274582
0.262212039701995
0.260720388211525
0.259626966009055
0.257001665780353
0.251165838624113
0.254471579264265
0.253627264815443
0.254258211723553
0.251238858162802
0.246607566220781
0.243601380075161
0.245325715510986
0.250424519403982
0.248620604665018
0.23978074931457
0.243169806439965
0.245594320507696
0.248037051735462
0.240373975107998
0.238580111625972
0.242963556706979
0.244923298133244
0.238730050350227
0.242724470382344
0.243106856320623
0.23969229916769
0.24424606988828
0.243151404266976
0.241653699536619
0.246522979289498
0.245097086895172
0.241675779817134
0.244538141031548
0.240393938410602
0.244002939482742
0.247113222801461
0.245125759768693
0.241889943442364
0.246215935103406
0.246097136792793
0.248135234629152
0.250970808944043
0.248347283106698
0.250310657723196
0.248143278360644
0.251852560763703
0.257048117039722
0.25374207409204
0.259877885580991
0.250182850056427
0.25497516647372
0.258150506735053
0.26149617159121
0.258637098845685
0.265206394334541
0.262191752288592
0.26410247540669
0.271248884331431
0.265515332759098
0.267394098535723
0.269100275984817
0.267547207073975
0.270895911150166
0.275433719532261
0.278129819557565
0.273861822758101
0.280875012827743
0.281312176900249
0.284936497415035
0.282306769314232
0.284497793168196
0.291437256482574
0.291274632150194
0.292696018335097
0.293039654398618
0.294198575052438
0.299301651175856
0.303385757451292
0.298406513257548
0.301172453498161
0.304107378838717
0.309031004935002
0.315813674711877
0.313846870343853
0.312298988463542
0.315548910739448
0.319414885361529
0.314864997125603
0.320272035408495
0.320745340229634
0.327436464212634
0.322892828087867
0.322239786003004
0.318892333635057
0.327990472647022
0.325899126208706
0.32388521933655
0.329235673521395
0.325368069298713
0.318821820829476
0.323449403369092
0.322322389506751
0.321745027684926
0.323979345627169
0.323762763425046
0.322905862045328
0.320227923349338
0.31836900958287
0.321725691107936
0.319997605224518
0.317656000357687
0.322086253931739
0.320028430761371
0.319180066033365
0.317350553798355
0.317704330057432
0.325310905213522
0.316579170785779
0.317390110025653
0.317023180026456
0.321269625987318
0.324621846841691
0.323435793754887
0.318672132048686
0.326864327848876
0.325563610992142
0.318716834581622
0.321775763809473
0.320845401379097
0.322248871404129
0.320009843806461
0.322504432170668
0.322157460597242
0.316090798864728
0.323818971833901
0.321443523930515
0.323790054068914
0.324888220225127
0.31913065188703
0.319425858291129
0.322611402229833
0.323087960012182
0.32130544108336
0.319933054061863
0.321844607705718
0.319166438824865
0.31739700392908
0.315683039454195
0.321882207937088
0.314618308232904
0.313625438594881
0.31303735997439
0.307825018394235
0.308106599715367
0.308735354063058
0.304493047907879
0.304238015034978
0.304774541404301
0.30403432158639
0.303361914497357
0.306691028038362
0.29449056223897
0.293695500183282
0.290702467373419
0.288749849893306
0.287752069077417
0.285327509242763
0.280464251536551
0.282346611472161
0.284438196384448
0.2730306335974
0.274167474095607
0.275307842789458
0.269812121295486
0.265779108058464
0.265671770829494
0.259438548786538
0.256096110609099
0.260626306455446
0.25224218918006
0.250175802384826
0.251628693651952
0.246474798377957
0.244158445279849
0.24983200493137
0.24723319541438
0.245205466904885
0.239431311451846
0.235150719117449
0.238270574383054
0.239033669338943
0.231226249251376
0.233067102354091
0.229801728422084
0.231830566503516
0.229003630946345
0.224967439194674
0.223883160756533
0.22401164937103
0.221215084412069
0.221960200691803
0.216936382024011
0.218875336119328
0.217865351736896
0.215400663085284
0.216136218992606
0.21544577724186
0.208047171000212
0.210550878840881
0.210285779054314
0.213849085305465
0.20768139611187
0.20551918311509
0.205052634446803
0.202991245329441
0.201557756372892
0.198386713161509
0.199833900790844
0.200045402150929
0.195290367734094
0.199786898572312
0.195216110972294
0.200349217624582
0.195181618419394
0.19490291461031
0.193470219036041
0.19373884612802
0.189145889426123
0.189149506550989
0.186348771590743
0.191751868570984
0.187362689305107
0.184116609825525
0.184511249723384
0.187133106981402
0.184547340150531
0.183924657687107
0.179775921814576
0.181085981713474
0.178661424029826
0.182733963052996
0.179605866833264
0.1778845640925
0.176684638196391
0.176801835376404
0.175001580802612
0.174849748387641
0.174900985411091
0.1769578314435
0.1730366267555
0.174260008383175
0.170236979220661
0.174635672079488
0.170477300339672
0.174457334421967
0.17241629744469
0.169328500140628
0.169908061751293
0.171642985658285
0.165479902915551
0.169078872704122
0.165707642319577
0.164697353298675
0.164974324159328
0.167438917889108
0.162910953580531
0.164778436762318
0.16368901280656
0.163912685132475
0.160265673546796
0.159838199684869
0.162109326391174
0.161435259335973
0.158217842297462
0.16258720128599
0.159616786402718
0.162073628105254
0.161364216746304
0.161647392111563
0.155124161713873
0.158382585172844
0.156724215813664
0.158433709079053
0.153481275955777
0.154982186694749
0.153289400740298
0.154076957685544
0.154647143854809
0.159432236393648
0.15415079958196
0.155081901317907
0.152890772656421
0.153941469315047
0.149963168226197
0.151357967446097
0.151778419985683
0.154958381919047
0.150843997024305
0.151363605690323
0.145541225136432
0.14683534095015
0.150787559810544
0.154324968078896
0.147945604710151
0.150426528070878
0.149796360750934
0.153499678104076
0.149624334109481
0.148471605775957
0.145442834029157
0.14893829291236
0.149052294279291
0.149744155528963
0.144535793846856
0.147863521128701
0.144993451394911
0.148339900336409
0.143572287869013
0.147512356737445
0.148109138322541
0.149575182399087
0.145325607949663
0.146367474650352
0.143970926408946
0.144241985375359
0.142873164636642
0.144409662618737
0.141746343651447
0.142360547628443
0.140898069256469
0.142656838088815
0.140678225944613
0.143219449697773
0.140235726431154
0.141077387979295
0.138960490463818
0.138503422214762
0.139906958851143
0.140560495995254
0.139830148068843
0.141245853694753
0.133173804697784
0.137055816341819
0.135185902563372
0.134808604677829
0.134032616954465
0.139270877959615
0.132287156125511
0.13737381553191
0.131040637806687
0.133088800009093
0.136387068664743
0.133382173702257
0.130365524528311
0.134004417282671
0.129729468135612
0.128270687398383
0.126190402524331
0.130469010580537
0.128224256083052
0.12877475096117
0.129373867140026
0.130643551593824
0.125494389219465
0.129275994258508
0.125414264942856
0.129098802858302
0.124835183893255
0.126686529839701
0.122537918778179
0.125539424370741
0.124375896035463
0.12734081932621
0.124292078031935
0.124820202000952
0.121984664071779
0.124048584980009
0.121064702250763
0.120911107042841
0.119723908862324
0.121607230298859
0.117539060521507
0.118561781838241
0.115906223421793
0.116879707049799
0.115727818623913
0.119324420982054
0.117744885281381
0.11731890987357
0.111791738554174
0.114941553915526
0.115452119004387
0.115416244582036
0.112552445392754
0.112774546675006
0.109876096372862
0.111856970120449
0.10843699773939
0.111541955285814
0.106551792715781
0.109369885972311
0.107497227551637
0.109628087190556
0.108250486980822
0.108831801750209
0.105471897167143
0.109070741966161
0.104361610010808
0.108145409178099
0.102923059088164
0.104059577148677
0.102487676485731
0.103855145665809
0.102013561800876
0.105213451761473
0.102634356847419
0.101580383322109
0.0990195714378361
0.101356651906408
0.0966104647683705
0.103017754956922
0.0996609108055889
0.101162780388992
0.100939282678327
0.0985988616382862
0.095071518474967
0.0969050105840919
0.0937581400400525
0.0945587336097803
0.0947647606681212
0.100571037038555
0.0937090199873869
0.0948011873126434
0.0933602655549443
0.0957435382636263
0.0943001978389442
0.0951389386104576
0.0939098317232574
0.0936025299128964
0.0907901977241838
0.0932720084716393
0.0908992334899771
0.0936938262579243
0.0899424408905763
0.0913609943478315
0.0885874087985375
0.0911773893683148
0.0904321934455933
0.0917406636554216
0.0871270310840087
0.0922576669020892
0.0880001148010775
0.088601028552599
0.0865237608007998
0.0878554139533375
0.0861658927321495
0.089266039976817
0.0856699216537181
0.0890904934896632
0.0870556071064613
0.0870152861226926
0.0826532814455402
0.0873166052597323
0.0861121311818841
0.0886613405172502
0.0856707712841488
0.0873713139754911
0.0860711952216335
0.0845826539060438
0.0804977458157189
0.0864498918514106
0.0829980283874316
0.0846925839312019
0.0813221565800854
0.0832122104678919
0.0805511067877589
0.0816191056352894
0.0793424685437248
0.0855098509957275
0.0820115889078473
0.0815314501405027
0.0813798743171425
0.0848392396341342
0.0786501643976924
0.080258971097063
0.0795315476491682
0.0833089167917962
0.0815577049833382
0.0817193784412977
0.0809975751796432
0.0833290656150192
0.076423005260956
0.0846666169271322
0.0777985947801866
0.0778943229921989
0.0768776866636156
0.0822243068303121
0.0801578276172654
0.0806886804471044
0.0764533634883035
0.0810564672196237
0.0786484870303353
0.081884142812933
0.078902589849613
0.0795086944451391
0.0775443244704911
0.079206984708152
0.0769555085325719
0.0788243252178118
0.076599777001995
0.0759133451096417
0.0752761686691201
0.0772780249904041
0.0732335511051677
0.0759808122496067
0.0755934985382068
0.0779940732286327
0.0775074310006584
0.0772271220656993
0.0738840440483531
0.0757882260915553
0.0753021480154033
0.0780381407832293
0.0728604170591693
0.0760341166866497
0.0727881254539406
0.0751208350413244
0.0713057825416167
0.0757143393726061
0.0747106617146137
0.0733338046413788
0.0705618199434728
0.073531024945638
0.0725667077079602
0.0746133141662202
0.0719518361026547
0.0761443336462043
0.0720330873474287
0.0723229354807355
0.0699581043132738
0.0742760998462538
0.0720635437183734
0.0746331579818106
0.0713284944003704
0.0719512129221471
0.0700708834259319
0.0725091395215254
0.0690735259429421
0.0725183904476173
0.0700497510906695
0.0715317658791369
0.0688412409861925
0.0720867781468161
0.0687898465067284
0.069786983434184
0.0725585278669601
0.0705885173651574
0.0675689535653659
0.0707090465992883
0.0677961799010877
0.0716000851417266
0.0688793850203783
0.0723981708848012
0.0660042669152968
0.0707301890268845
0.0669221207253891
0.0671992944955762
0.0687392219902055
0.0693785944832253
0.0666120134173474
0.0694856376089324
0.0662961514701684
0.0659356672934694
0.0672209192009534
0.0679783948995108
0.0648389573800766
0.0656430475810477
0.0646461442196576
0.0679606851199569
0.0632599093687918
0.0664346739634323
0.0623485076798761
0.0654297460925362
0.0641601152357352
0.0654919697300551
0.062367837770703
0.0646963922753809
0.0614357493325507
0.0642916116375223
0.0611708818516323
0.0606966317764844
0.0590961997636413
0.0643178344116388
0.0623360792802288
0.0633203045604644
0.057834677762174
0.0636894517181824
0.0612680862466235
0.0629759572696002
0.0601492875144965
0.0632466678434048
0.0582288552786951
0.0597644932556722
0.0572597262998786
0.0587669669806818
0.0586885979878393
0.0624590623172688
0.0552846940139062
0.0591256613648606
0.0544997622222672
0.0587504571065957
0.0561939874512854
0.0585267386175788
0.055291257305005
0.0585817429241091
0.0570247196523841
0.058584610410188
0.0538950577879303
0.0582150824165857
0.0554952362960712
0.0585661185968161
0.0545739803220809
0.056755306121364
0.0524123019219753
0.0550321488214269
0.0557958493085995
0.0568712504421284
0.0524657298541556
0.0570205192133787
0.0522529179216831
0.0569722904979963
0.0532607130084399
0.0562680793998064
0.0521195267554823
0.054616031150491
0.0530183911014457
0.0555460262806582
0.0514558563262798
0.054461195955471
0.0517793188926152
0.0537564732274299
0.0485753642060816
0.0542851718574809
0.0532142494556468
0.0531398628158158
0.0510271155540212
0.0532967365889469
0.0484005782939629
0.0513957371827472
0.049776597595178
0.0503487578847764
0.0482914112773569
0.0527819972734431
0.0515218266287678
0.0536404843923469
0.0498401076076396
0.0533918709679559
0.0498813004327775
0.051482213578612
0.0464629986008468
0.0489549633621815
0.0470333876586621
0.0519980747635533
0.049756584943661
0.0502469340035031
0.0492733039525654
0.0504095650517965
0.0469922780244312
0.0499900816448718
0.0475780134032301
0.0493856814845317
0.0491488252204377
0.0471052128174539
0.046829906728541
0.0508657508962472
0.0468483050258227
0.049866651930653
0.045921680187601
0.0470495684077377
0.0460372841338522
0.0490430510869978
0.0484122593505202
0.0492735993384915
0.0454299652784463
0.0495072336776726
0.047657625621508
0.0501654274003295
0.0486708202556589
0.0501541874408642
0.0471697531973109
0.0498341596199455
0.0440511991227014
0.0477287704918135
0.0442043317201355
0.0461061350279123
0.0419500105641933
0.0438321285663411
0.0361953890512216
0.0437499914643652
0.0415153383783396
0.0425005138700587
0.0395091242119502
0.0390144434460763
0.0366971520553761
0.037820356957587
0.0378852653133074
0.0412629067498205
0.034102487423838
0.0385106804035481
0.0345423552747948
0.0428339579556426
0.0360272692176359
0.0413353028590183
0.0390182347015106
0.0411766741194695
0.0407318928882746
0.0469265201969112
0.0428876827679074
0.0413063518719317
0.0429508910615809
0.0390275613320683
0.0383586620794816
0.0385971564677656
0.0381225692826234
0.0370727572999904
0.0354438122043967
0.0325687401371674
0.0356074310021959
0.0360948755500398
0.0373658936499793
0.0372983359912543
0.0409868867841264
0.0387681777785352
0.0447208645027166
0.0333673443982684
0.0406598786174554
0.0322836360450432
0.0462123787658881
0.0381802784080188
0.0445980664220452
0.0353066172694907
0.0491418193604455
0.0355372721813231
0.0453557558899704
0.0344708052817529
0.0461592956941296
0.0387728533471625
0.044518093780148
0.0366697387085689
0.0441312498603761
0.047719936499712
0.0430016225176109
0.0476866856079336
0.0416260846198656
0.0478052796797519
0.0368654885096637
0.0480123836132979
0.0382433755150906
0.0469338401517808
0.0382701186376957
0.0459558365432829
0.0402215403341635
0.0465348957332361
0.0428310065990132
0.0484321363807664
0.0429006889921881
0.0461064505010433
0.0411676364259455
0.0480184718719303
0.0430949511671642
0.0454616576739604
0.0406262465262701
0.0452983845502716
0.0404416855527488
0.0442974530129627
0.0397240066296142
0.0427826917444937
0.0400338620395416
0.0434779116755201
0.0428781766910458
0.0466253163213977
0.038691942163785
0.0436176304940826
0.0396351550308969
0.044193206320161
0.0415538040804717
0.0429656727614928
0.0418254614244319
0.0451705004113448
0.0411419813814368
0.0405056739992637
0.0394215620687745
0.0464161626950521
0.0423948886030534
0.0425797047881067
0.0413538659786958
0.044908339145111
0.0408266911007815
0.0466879789850248
0.0395427005775438
0.0435011390057548
0.0398242776172106
0.0446943561354478
0.0407464115496384
0.0441289103793733
0.0412343549596612
0.0439434976166409
0.0384921164543279
0.0450465057382857
0.0396669853531054
0.0444824885270361
0.0392507235025434
0.0458956197702396
0.0425319673933176
0.0452581238645058
0.040876397536633
0.0451571289168134
0.041177245877971
0.0444099436052435
0.0407579803108715
0.0446103059374583
0.0415788310767851
0.043774487160119
0.0399620766614024
0.0459357558584474
0.0420099969330117
0.0436561183305043
0.0404226767471622
0.0447732058364756
0.03959902299046
0.0448112479742308
0.0429174712105366
0.0461166663073157
0.0411414872984716
0.0454973202191142
0.0409660270012032
0.0434325331450563
0.0406921095739951
0.0423764642898093
0.0437669795405417
0.0458252778954548
0.0403889019717386
0.0451896268232552
0.0394332904613253
0.0442161818796061
0.0433731590467547
0.0442589991699808
0.0429108045220485
0.0445134917010717
0.0428779421616902
0.0491677271901127
0.0396730002665619
0.0446759428170678
0.0405294949988669
0.0452485142076583
0.0412492262758835
0.0461619053091036
0.0418026322346554
0.0431061275326745
0.0417784285549211
0.0470775935681642
0.0422568613082752
0.0431835833516041
0.0409475171459198
0.0474888104671597
0.0431363278097369
0.0465861149686526
0.0420470417596176
0.0455513733201252
0.0436162814123981
0.0446283052881586
0.0439616538111364
0.0463248521896359
0.0440941347828526
0.0472347703435633
0.043907840560004
0.0471239690167882
0.0430563037418212
0.0475423606428014
0.04445874292538
0.046431796115449
0.0464343642656247
0.04622523109856
0.0447686782373484
0.0458884355345798
0.0420172622157613
0.0480115251705044
0.042595334378696
0.0464081345179661
0.0420029051044724
0.0497639643761425
0.0446415353906369
0.0483601787819628
0.0448118415568901
0.047690129200492
0.0449349031822672
0.0471295902488386
0.04277276128226
0.0497479968146567
0.0436698834148524
0.0493605244366997
0.046345909349758
0.0469018885817903
0.04256306720933
0.0469643669751006
0.0437063222747182
0.0484838902244679
0.0454837533036351
0.048798856549556
0.0445591129437152
0.0470063943946367
0.0441542887673844
0.0482255821028633
0.0458090404200436
0.0472085853894218
0.0458448755799683
0.0496300023752341
0.0464081009442056
0.0481172656282178
0.0465453357097639
0.0488670574364379
0.0452975797259798
0.0472567582958319
0.0480885009299881
0.0485292334922736
0.0455102469283264
0.0485583341465204
0.0435601948273009
0.0468675404134702
0.0458533630040955
0.0505814895161427
0.0442502473345026
0.0487753085662977
0.0470508038179829
0.0474571018948044
0.0458155432970218
0.0470520492652092
0.0454629529395817
0.0476675204527067
0.0453458387865277
0.0487407873933085
0.0459925359317096
0.0474799772057968
0.0444631505327291
0.050695354154336
0.0451701427652195
0.0476103242745875
0.0455853136787443
0.0464868958897827
0.0453134824777471
0.0457747515292999
0.0447145184322247
0.0462341501897158
0.0427590620455449
0.0471982072315468
0.044354679059274
0.0492014621410216
0.044454738425776
0.0484321106549369
0.0435038320739072
0.0468783965007316
0.0434494568199785
0.0469690539370885
0.0435813122772677
0.0466403807552492
0.0440086297227101
0.0454772354813552
0.0426039779357094
0.0473668571018385
0.0440787223113819
0.0475969993430608
0.0449116270688268
0.0455206221987342
0.0424880300315498
0.04552238612197
0.0438107295247855
0.0465385034837042
0.0437549884240124
0.0444316836353122
0.0411986098894529
0.0451904658105728
0.0437896149847394
0.0447450275178227
0.042322988140079
0.0472319197511918
0.0439595061624467
0.0428879699414221
0.0403524022261976
0.0461512496380234
0.0417946800348174
0.0431770214645823
0.0407094057807788
0.0429013119532468
0.0432400456211035
0.0456745858098537
0.0397420453563878
0.0457530031511608
0.0427113251390982
0.0451925016961948
0.042222587455724
0.0457440089124489
0.0422420354188004
0.0443999818564575
0.0406751321570184
0.0442283679730321
0.0413017911284795
0.0452753787843037
0.0431252616932982
0.0463837021504707
0.0421723151556426
0.047593097218429
0.0420234787568341
0.0443821778333018
0.043054140198483
0.0434632873549544
0.0401128056741732
0.0439017331530916
0.0414458747835579
0.0442393772028263
0.0409165522087465
0.0431701561878604
0.0412226744492871
0.0444405097708359
0.0408282932325598
0.0448313167625279
0.0401639390772974
0.0452222098714057
0.040913595331113
0.0430008135090735
0.0409639926804292
0.0422268139633641
0.0421224203009445
0.0428929750534064
0.04162257691598
0.0428359120457258
0.0398846636276584
0.0447898738383491
0.0396039595558317
0.044709566469315
0.038908346010602
0.0437979291072465
0.0371043527175411
0.0422776758731041
0.0386768428067334
0.0425251113584075
0.0407183741522133
0.0450255438462916
0.0412229683014764
0.0421305218568829
0.0407159897759351
0.0419624499164344
0.0377832860709564
0.0406164903333026
0.0397758637188801
0.0419794382705853
0.0395272654299826
0.0407440724617889
0.0383503764549208
0.0410508411794102
0.038547397419638
0.0410089589539005
0.036490431183794
0.0394591216109953
0.0381599301008734
0.0429311019149352
0.0373548431016673
0.0416406543313704
0.0375338676449644
0.0383605132991275
0.0382357385992536
0.0409940076564969
0.036973246878026
0.0407348342562817
0.039457529798511
0.0396460994636576
0.0365678784705208
0.0388393061748629
0.0358504065418917
0.0378677606678231
0.0376924079104796
0.0384356351884841
0.0350971014490737
0.0399732986122729
0.0352554967617531
0.037997019312912
0.0353164749562186
0.0376316629285207
0.0354912598503776
0.0384403685674921
0.0334327405382147
0.0405126951764605
0.0328112958109066
0.0385425051810336
0.0345294164543231
0.036945831254303
0.0342539996224568
0.0373927139474515
0.0343979366330025
0.0373253384084466
0.0381976864170666
0.0418769126693377
0.0363591228073129
0.0378035310306432
0.0351993710579258
0.0400744622965233
0.0334013370215525
0.0360174109329887
0.0320213528038096
0.0385533526833584
0.0311495441228703
0.0379694819161038
0.0346895867421749
0.0369817619900312
0.0334540889372837
0.0353986505488405
0.0325916123896696
0.0364665155917282
0.0331374255111659
0.0369770286679175
0.0316737170567517
0.0347862120868995
0.0327839970663246
0.0349969314506086
0.0322502859664228
0.0371188281680077
0.0348471575446863
0.0434633969649359
0.0363415279952252
0.0366248488815009
0.0326121083369329
0.0367742012174044
0.0309448530419892
0.0336699152590047
0.0329918242157617
0.0342455751897935
0.0306690801803648
0.0359675025171829
0.0298675490262545
0.0348162896086731
0.0336711273810767
0.0371293621416577
0.0310933041620045
0.0360460768063547
0.0313886358282936
0.0368151938608571
0.0290071395795365
0.035161730731482
0.0315859708280873
0.0354361339124324
0.0304594673376946
0.0368431402334176
0.0307929606213562
0.0380746302372914
0.0452146240629037
0.033396924161652
0.0342705977524609
0.0316790826890219
0.0315378195868586
0.0320850988759619
0.0320757605531207
0.0333150255005643
0.0307602015937137
0.0337735272654569
0.0328762996619196
0.0339191351949314
0.0312268990282859
0.0348110692506626
0.0301403984405761
0.0329962264193433
0.0305723059310441
0.0324340527466373
0.0320262092987005
0.0324900164773436
0.0387680707444525
0.0402075608622872
0.031330993332003
0.0332432294231678
0.0322035109120173
0.0315201949428303
0.0429440813069828
0.0348712042932411
0.0312141748919378
0.0335725466500266
0.0303467315263469
0.0343834576682263
0.0297646246403623
0.0339568399511038
0.0321194872738487
0.0376786241745741
0.0281235263913431
0.0380308149635251
0.0299221476547381
0.031871947451084
0.0275446257413887
0.0340274091480468
0.0276820232561641
0.0328172997101678
0.0285768192072248
0.0334050502991182
0.0288126561386162
0.0334472467213681
0.0294827483673979
0.0329229966854448
0.0303755135574133
0.0378735932689871
0.0292449905020475
0.0319604913500027
0.0308724593368863
0.0343360534360536
0.0352115627538573
0.0477410692283061
0.0270596530391442
0.0352720665629998
0.0282524122801717
0.0325789288746054
0.0302069056362344
0.0336062865257189
0.0288051723794897
0.0326907924775648
0.0260752232433036
0.032386267422378
0.0280460190532609
0.0349008083763695
0.0299036214566241
0.0299061327461547
0.0281568261152064
0.0330461556710414
0.0298666440004791
0.0317905003297646
0.0308398427363418
0.0349351121394357
0.0399491987178597
0.0503254989324109
0.0376763062917825
0.0432206794554508
0.0354670956112564
0.0328616353523481
0.0273782275094112
0.0356750429974485
0.0275966421614413
0.0354851129215481
0.0297665477280664
0.0335456172920734
0.0279791484370815
0.0319810368463888
0.0271047675199718
0.0355203901658237
0.0259818760182068
0.0353895524588028
0.0280201780317639
0.0366972234603115
0.0266237487204719
0.0346017657950476
0.0249732414093457
0.0405456853609488
0.0313144663323016
0.0387379673031403
0.0325501065529735
0.0632885274418327
0.0434527807303916
0.0337957565183085
0.0378988338295398
0.0319610704710513
0.032430806826823
0.0338371765588661
0.0311883812053502
0.0377746384130095
0.0299556076264383
0.0318720037719119
0.0322503743963533
0.0364440298388193
0.0328742948703057
0.033791147166283
0.0325173466172867
0.0534774769444252
0.0336406918645295
0.0376034623799847
0.0303445146769835
0.0403394753395439
0.0476958681822645
0.0334325854603407
0.0361162826291951
0.032952017965683
0.0300840206789487
0.0329791574301755
0.0297486033640605
0.0340982958652264
0.0358814056186137
0.0386567221525463
0.030521854610723
0.0385209554536287
0.02927354035407
0.04135549960692
0.0348542809127984
0.0450362778009748
0.0387154464246793
0.0332323163925544
0.0354854913167072
0.038868070044381
0.033155480677073
0.0358316295636728
0.0306272585162119
0.0371809731113242
0.0403942451461431
0.0493358532204281
0.0338903259618566
0.0501287063182056
0.0372662865974943
0.0370984709150213
0.038520083317669
0.0423193794770868
0.0390763910047128
0.036925645218757
0.0461965637179407
0.0620755567351476
0.0369476907593052
0.0564411804900941
0.0285176329761449
0.0434140361562334
0.0286128225238186
0.0407440730927195
0.0321072836265916
0.0553657811918107
0.0301570621238203
0.0428726218072871
0.0329344841442913
0.0521546429296454
0.0427395778598049
0.0397500219569332
0.0403735260017713
0.0390397032755159
0.0400849566264031
0.0461210467967532
0.0386059886824136
0.0417234159696511
0.0636734145613094
0.0637156619646372
0.047955951030181
0.046360986597723
0.0384464013100334
0.0767155775872853
0.0365779669277409
0.0453454034418073
0.0361762110765402
0.0407730153366288
0.0403803774024257
0.0456402845473344
0.0574470709095346
0.0447693240901978
0.0393546886640221
0.0506008559222643
0.0348982514777509
0.0612931602312239
0.04516421823979
0.0484776094910681
0.0393528990602478
0.0519308197265809
0.0431001108037339
0.0799213091062825
0.0526447511641877
0.0536660258731137
0.06692416212391
0.0574186872096402
0.0573726250075775
0.0507825574268861
0.0526414253245484
0.0626469099008736
0.0661428851187336
0.0490467748909247
0.0509985136096905
0.0631258261296618
0.0690900460777125
0.047623237987231
0.0612236263899453
0.0498771688048033
0.0582109240980271
0.0870360551885798
0.0901032301844235
0.0709358357327771
0.0589588665656807
0.0620349183476593
0.0789541908654745
0.0594058140325758
0.0579208593610252
0.0595206733692833
0.0565625466589232
0.0621030040140031
0.0601355473096988
0.0742130956436814
0.0612692287041098
0.0621839231238794
0.0639227064852985
0.0639153291162708
0.090798454118974
0.102067573733105
0.0940823990418335
0.074467587689793
0.111151092715568
0.085358710460076
0.0722069422987012
0.0739108900084043
0.0709271305466023
0.0862672489881146
0.0700724335193506
0.0756364358447478
0.0720842060093679
0.0995099329714083
0.091924910145468
0.0784073102090371
0.097889060441761
0.0756847337780946
0.0986214122234414
0.0922125836226616
0.223907051736479
0.09652618985152
0.098468990428941
0.113179730102686
0.101099885378267
0.165094683520512
0.0968932043145414
0.108456275062777
0.105906442642611
0.111993696378945
0.115606558287636
0.124880876104693
0.11988927229082
0.136158646206666
0.127714258811589
0.133404093660321
0.158485399343019
0.206776939330649
0.165114595049664
0.162308327104729
0.143538430364187
0.171362341745332
0.164905339217043
0.162880942704532
0.161498381142616
0.171885019473213
0.16408983805342
0.225830503100055
0.165527803613682
0.193765038899394
0.181716261259004
0.22755395918839
0.180822118744132
0.249133719212755
0.218873833947352
0.208779037160576
0.212881426158541
0.210021351495161
0.220384720703714
0.220907401964581
0.256889150920429
0.239570596080013
0.227026638238347
0.238766034460977
0.233513489440561
0.24914822323887
0.240856438798491
0.263459396276638
0.248693748140877
0.312147372236978
0.272601136727514
0.392760363536932
0.281073438212203
0.255170711087878
0.268970587811648
0.26204395290614
0.29374259433366
0.281536539060138
0.294271391541381
0.288571282783999
0.252942389839185
0.273905677074411
0.258155320342951
0.27743952617012
0.262823480726038
0.278808801219582
0.252382773920619
0.301555127820671
0.278881389317435
0.29136818156657
0.332758823366318
0.261997425862563
0.273130695544817
0.268633137030041
0.26473720075294
0.263593648979597
0.270284025201555
0.266714454351022
0.287388732909258
0.251109937556479
0.264212401582942
0.258407027708815
0.267943204058633
0.278031026039701
0.236688443726882
0.253540895709391
0.234168551326665
0.24184382846412
0.236099517011702
0.230500166724639
0.269457640364245
0.22703644221661
0.230312008302236
0.227721526365323
0.219458657566479
0.222457799472217
0.218603811110305
0.21917556964487
0.223128283335198
0.215616398335993
0.22092345931247
0.213089672257515
0.214418171651616
0.21267063438012
0.210241066754359
0.212199345753002
0.209175932411173
0.213246576254875
0.201767223010791
0.211502250030253
0.20413616716338
0.203929694165684
0.203244936360938
0.21157018332046
0.210246410414294
0.208126544377245
0.207443826391599
0.20428333437399
0.200942291094368
0.208269654223604
0.199053901529273
0.206588564368822
0.196138098839995
0.20864086022267
0.198677818172641
0.204290387716723
0.194992741459894
0.205801812564659
0.194985460985362
0.204439337156385
0.193280562820118
0.20643854530401
0.2002170448219
0.235365278418783
0.218372994664812
0.186815341362169
0.203154594472938
0.185775421435859
0.197720860934756
0.189500333943737
0.222364430185463
0.214540033148723
0.18818321733213
0.189016051878019
0.183699616372616
0.192351942992611
0.192915456961464
0.175612888067332
0.189448532631823
0.180153764387475
0.218602812809938
0.256999933711165
0.192995315384867
0.251240681530526
0.172974138456449
0.188260828936135
0.168144014712849
0.21207407993579
0.161775425443735
0.179600981643134
0.169438125025505
0.211332864160346
0.180449130170852
0.163054108927075
0.1694719458417
0.166276516518087
0.181727746200409
0.183227469987929
0.174454445378086
0.177597200243308
0.200720251958147
0.185540326823028
0.21593338926778
0.195699810814133
0.174650137104911
0.154234540217118
0.154833813964558
0.159451349138409
0.155685793839136
0.208051157775267
0.152900783692917
0.160207005401049
0.146338048565163
0.141168062286147
0.154336337783575
0.152340481342511
0.167796042065431
0.143061431441021
0.182460289536608
0.135951513774172
0.153363396010058
0.167868605648624
0.16453674147347
0.177434298992537
0.142620526671418
0.145169940977272
0.15473045840944
0.180474891561833
0.135602903835288
0.149967079150609
0.129550942018367
0.135002262467939
0.146417853278751
0.13059255813683
0.141239803758927
0.153014490443516
0.14481681578132
0.193740400133856
0.177471337826199
0.164110973041601
0.131687731371613
0.121216196714557
0.128120421441977
0.126021707001001
0.128272853345725
0.124216390823979
0.128284048954777
0.145216678068225
0.112973301553309
0.180874080305284
0.128156370044726
0.127219303749167
0.126376936381911
0.129640810290646
0.132462776864544
0.159805024788549
0.155781259846129
0.156971451786456
0.137048734448
0.166978716838099
0.12937581119439
0.153822909602002
0.134564184862147
0.14998861200241
0.143090843093596
0.162099929931959
0.150626093486091
0.160723877173958
0.15314881376985
0.177297035756485
0.165667588469433
0.205632083604253
0.1618789470889
0.21287187151996
0.194838930444364
0.223400018707199
0.197911688249478
0.186873095508006
0.198998427064366
0.200977729765655
0.198836027275838
0.211253570346604
0.204333520448865
0.244849635236394
0.200141078359592
0.219374318408973
0.208696684801634
0.224750705299207
0.222466716411353
0.251945381820269
0.250510442535979
0.254078907000729
0.275321358496405
0.236216284619031
0.242782097616054
0.227497337418869
0.241491256101973
0.238796828249525
0.22476894113884
0.243812715903039
0.230763997454227
0.25773873269723
0.243399536877244
0.246035555006073
0.240923335268187
0.242686221093747
0.241901103878553
0.246794782985268
0.246116812512716
0.253208187238673
0.243146168686578
0.26499122093922
0.250143435189369
0.309705357096443
0.272926370614623
0.261043248904713
0.272922402186402
0.263054332104071
0.270128379519842
0.265327153723945
0.278568894367521
0.278762350386017
0.27086074110465
0.284144009881561
0.274641598413217
0.28749418273542
0.286265054578909
0.304291578247988
0.276709908713995
0.289228031427593
0.296905351872323
0.287923530596121
0.33693519384247
0.289468755075078
0.314340589070928
0.291257172607618
0.299219570076064
0.287834802325962
0.297478070740634
0.294248962354552
0.301729534889101
0.300523069835321
0.300460180642982
0.301237820176354
0.295847829771188
0.297983310440658
0.2974441525053
0.314781817839622
0.301482242514766
0.297609792688034
0.295001562361532
0.297462877698463
0.303415567653602
0.31004314281439
0.312496970395339
0.289289845564985
0.308312774732064
0.301426368688561
0.309686726774446
0.303445252928827
0.292424168304411
0.295702068112127
0.294823953142394
0.289400171644367
0.302405684790303
0.298962591459747
0.325650078131923
0.297982126225183
0.306088021317463
0.301492576243948
0.306211929068132
0.302482573299853
0.308630087384769
0.304753517197721
0.311899982865643
0.31307861557404
0.316805175815136
0.312237682603471
0.313313684144381
0.330547119722947
0.323096908809076
0.323294685671245
0.314800717039546
0.306810429873461
0.312920808238519
0.304608246648736
0.317387670778244
0.304470429190639
0.303788131899142
0.294492664379598
0.303785192561031
0.288720951323269
0.319462963525866
0.296918591302809
0.292194765956985
0.293397480082382
0.277736301479989
0.287846661830109
0.275527084810706
0.280859319582515
0.270504934832485
0.278267614818811
0.267570109681605
0.27578487403664
0.270293852364763
0.26600820145951
0.266891331402653
0.270321512782996
0.264788692039431
0.265388499247775
0.263298432954729
0.265007894195276
0.267034287302896
0.264480815669333
0.267777732958532
0.266045831979393
0.271080094167915
0.281290743477555
0.273067367931313
0.272662499325338
0.26254186677045
0.273134242569666
0.258081602742811
0.268972800549793
0.257441070556129
0.265542005844225
0.259607552671015
0.265596364933313
0.258680176727012
0.260879249593186
0.259048796506238
0.262128417907339
0.256897636669689
0.26278927633541
0.258601089204687
0.263692031265637
0.258225086133519
0.260875091315483
0.260829092950236
0.264405414805736
0.261219061264478
0.259405490908202
0.262565004528681
0.258967364086178
0.263409754607324
0.261712678200496
0.263540495915606
0.261117671690302
0.255787942970162
0.260714332466325
0.256575751011668
0.259282344558132
0.256259936941283
0.259462906478834
0.252138771420169
0.251002387389079
0.251605620389452
0.247991739257703
0.24867968757175
0.247564289930294
0.246987441006317
0.245001213054865
0.241228644413169
0.242050303174843
0.236350155559438
0.233538611442931
0.232287659157759
0.229203474016162
0.228700503003776
0.226889332543565
0.223936791362699
0.223729126542914
0.225677939158516
0.224139293882479
0.22291058773355
0.220596918894084
0.218914436612247
0.221345529329548
0.218184073485851
0.220517674522458
0.219544660343778
0.218916859863035
0.220266668354825
0.221264171045204
0.219918670107322
0.219905993851711
0.221889105425871
0.220846947900219
0.226192970454023
0.225010629476556
0.225572477749576
0.227475040867019
0.228501128663938
0.225731820246864
0.227846345332025
0.232554241291981
0.23205026460121
0.232005207535386
0.23047429229809
0.233508774057077
0.231641789327503
0.234570503307264
0.232220112070512
0.236794825982736
0.233567297003129
0.238845710146626
0.235724087735562
0.236155325309988
0.234886483153423
0.233765334520321
0.231699452180717
0.234201773623772
0.231131485450932
0.22988630044963
0.228286654062983
0.22989802098264
0.229824850577791
0.226814382522045
0.227989107037827
0.22585281548724
0.225813274996646
0.225017830396005
0.224016515377755
0.222547882513898
0.221987338079096
0.222291741472158
0.22005408442595
0.220964208833937
0.219582326447219
0.216059163089442
0.218404532057827
0.218923291967873
0.214285351124606
0.21600428737304
0.214232745474051
0.213846661428407
0.212661873045182
0.213727732195895
0.214738217707627
0.213092391794453
0.212430834413441
0.21155571780626
0.209459216537392
0.211525253838583
0.210294521850367
0.206921044411287
0.204404917819738
0.206488263003265
0.20465383693536
0.202091798965298
0.199242048129178
0.198315850926014
0.197496968817149
0.197932456987832
0.195557877193963
0.192522895332799
0.1916469758276
0.19076437979586
0.191104976441036
0.189491770421259
0.188354190448554
0.188932101829877
0.187490226903549
0.18757868863123
0.185769923590948
0.187073388894192
0.186311144544832
0.185941799704311
0.183937275572698
0.185049865744612
0.183738693447766
0.180684324290097
0.179343988194507
0.17987718296903
0.176061553782405
0.172645080896624
0.169886623191433
0.170598899749009
0.166511747072442
0.165961609948906
0.165978076613954
0.165255892816955
0.164500128812906
0.165569284433561
0.165681163019775
0.169145884648749
0.174073003654747
0.177527896459345
0.18067374153155
0.186663901210674
0.192228751170325
0.201872161852117
0.208559485794245
0.217227168549689
0.224140378029602
0.235461595702163
0.244743654877996
0.252310188862684
0.26107304361139
0.270588667845815
0.278712149155199
0.288927179685979
0.297332765990453
0.309048634010787
0.316494928949991
0.323215855642691
0.332247514530535
0.340883888833114
0.346003836089564
0.353593368549348
0.357017403923659
0.366024344325757
0.372174639332886
0.377833899828835
0.382483101603515
0.387624654148483
0.391216731788469
0.39281026703552
0.393969784079842
0.398014478764947
0.398853776321675
0.397038034706969
0.399960616766583
0.399808955934772
0.401222805427649
0.402921884877532
0.40067570706084
0.402327932053521
0.403570379418669
0.404787610104198
0.404847079257103
0.404056118424144
0.407427368486722
0.409207956948813
0.408795105538089
0.415641656232882
0.420152297559229
0.421042024994985
0.424152088030693
0.428563034708965
0.433915985219886
0.434750855077247
0.438970275221948
0.443968668449899
0.448370248177475
0.452669338026485
0.460684876021
0.472498370514921
0.476913155063702
0.481989126229849
0.489475301427229
0.496569845303256
0.503687124856802
0.510696875240212
0.512322234553116
0.514654697751283
0.51886349869874
0.526488341252098
0.525850713541086
0.5227162617601
0.521290315796006
0.520632551729879
0.515764726773953
0.514110803030334
0.513272815502874
0.511317088929268
0.509754824291026
0.510715563143502
0.510578847306879
0.515343768909709
0.520822488374557
0.526093524913777
0.534010672219833
0.539778580102978
0.546664794661406
0.557250403077197
0.566758180323864
0.576636065921357
0.585958601224008
0.590837816223509
0.603663522836671
0.614252319284707
0.621475815641079
0.634880477279026
0.646087310606677
0.65046183432126
0.657694420048517
0.66937732125293
0.677817877711135
0.685738920757921
0.698135518396847
0.716355671616832
0.729701484837676
0.739443788616282
0.757420484787782
0.763124764535967
0.777525868564611
0.790874913835777
0.804897089133586
0.807431453452753
0.822191656163906
0.840871747056412
0.844083162889829
0.858201246802904
0.861671440883759
0.875101926567364
0.877479301778963
0.882284992186823
0.879883769127744
0.880767176498403
0.895560683216791
0.881097316597536
0.875744983884818
0.880494699374841
0.879309777590224
0.868672966957753
0.85890473365959
0.864730167557166
0.86485481293825
0.855258363609614
0.861700167918603
0.857719556696394
0.860147605413553
0.864510157001229
0.872921735857446
0.87589910878533
0.882641117669674
0.89957200535535
0.910925218298483
0.920826887741308
0.926561098885554
0.936774524926614
0.937198056622068
0.949330330021916
0.965700078847803
0.962239746544919
0.968821281948288
0.976920265087973
0.975564685693097
0.978763573301036
0.990974214762358
0.996640560526126
1.00430535555339
0.989637692696157
0.997736762841799
1.0121831722541
1.02688015892683
1.01947020893265
1.02155233110648
1.02930661678301
1.0056196185219
1.01121708592477
1.01434148569909
1.00159288138613
1.01889546357348
1.00636460647635
0.999668528079468
1.00399621404621
0.999503814378758
0.987287726146313
0.988825848827419
0.980854340041398
0.962313101354129
0.964134871622029
0.942717402267285
0.922941749721127
0.906059754781133
0.88376180076085
0.8481851823882
0.82920694012966
0.799719875585868
0.758735665710349
0.731303026111484
0.696893315712743
0.673050628575034
0.640636134421853
0.614223510950565
0.602295437745062
0.589599359333257
0.573915223427836
0.562771977578456
0.55172657742952
0.556763457970738
0.549307064665036
0.536420611167987
0.535584933121417
0.531267182593088
0.526298055147214
0.520076807140587
0.512940623847526
0.507075347327801
0.500974247664918
0.490149176191336
0.485019408403154
0.480788798937311
0.468402144182518
0.453919790245375
0.440655310711752
0.426363984076015
0.417625570544028
0.406967512905234
0.391822123702212
0.373264003633837
0.356025075687623
0.346694889366373
0.329522962570501
0.312685115717217
0.298750914031331
0.28562322186285
0.271088648254033
0.259966709889435
0.24625062081985
0.236588620432646
0.229307483445653
0.218850123990192
0.207951918086876
0.201871624425657
0.197083881850884
0.191475951632609
0.183611362025178
0.179374897293867
0.177594909992246
0.174210976143882
0.171108964830239
0.168588344075551
0.167044479002524
0.165272650309937
0.166795609614877
0.16410094734298
0.165701569055251
0.165592003594769
0.167509341530573
0.167054243761391
0.165300366339325
0.167529031060362
0.170054772909819
0.171868498765773
0.173469011923183
0.170780966261763
0.173003143183285
0.175522014255951
0.17293153803826
0.172041258558512
0.168587837452548
0.169513942851718
0.169365444617784
0.164741643937144
0.161156999221552
0.161216297702264
0.163791589884793
0.166488589886675
0.160024266966083
0.158595117555844
0.158870368895031
0.160920177500123
0.161152064079963
0.161834211386688
0.16218267652701
0.167122711441815
0.170104343199041
0.167910126209558
0.169950049912414
0.175871599383858
0.172997869075239
0.175288348523326
0.175847358121457
0.1769495986598
0.177156280564717
0.175252911402029
0.180149039104906
0.179614279749739
0.181908114742927
0.18533331559048
0.179764769897372
0.183905595539356
0.184736076124251
0.185715303398001
0.184131539436667
0.186931230692311
0.185667025039425
0.190089971732882
0.190817470818724
0.194559942009809
0.195820826426937
0.199486006204281
0.199545888893659
0.206058268389412
0.214802821808516
0.219111663721391
0.225519350200842
0.233851088449048
0.233870207873665
0.241707474343717
0.247533287385616
0.252296784151348
0.255261145937967
0.255975869914342
0.255986086243204
0.251835208174676
0.254326785796929
0.250038043738544
0.242867381454829
0.239108783316689
0.232491845996231
0.23117653955172
0.229366784096923
0.226853011224627
0.223817779135033
0.223805108345098
0.225612947861859
0.23146921521491
0.226004688862428
0.221234435722017
0.228233992313489
0.229980502205097
0.22918829874512
0.229554077176303
0.223040586936803
0.222551841149853
0.219719986408774
0.215103827977977
0.217017971650525
0.215810460777431
0.208691870235756
0.209034696474237
0.209142753076074
0.213778022448351
0.206155377639683
0.202353379715948
0.199942259606771
0.204317856526632
0.194258684995851
0.192041788393564
0.194328156098692
0.191186101412887
0.193638781291897
0.196947293523294
0.192542111418789
0.188960148194608
0.195224206445981
0.195606462447961
0.186251817937914
0.183363656461954
0.191525854453477
0.191089192974006
0.185466065339575
0.190612236074633
0.186619650171248
0.185162666546059
0.187999112487366
0.183046382959194
0.179884215090426
0.178258221749778
0.182383631989699
0.179985440518263
0.1691558980838
0.183827442430259
0.182846701074621
0.180498240671039
0.180059486314536
0.181929004000563
0.182118313317859
0.178388278146227
0.172610051358443
0.174435987065051
0.179254218198514
0.17682662038046
0.175443733146279
0.178357691466993
0.18019555603043
0.182858047186433
0.184573909785039
0.186045694310458
0.184030512046394
0.179754757160337
0.180208313810108
0.187100235564605
0.184296934511845
0.187657136693871
0.193343772364132
0.18694588813552
0.181887038832708
0.19171652764267
0.187643239136565
0.190229711579706
0.199726896371227
0.196826510038254
0.208833092469047
0.206661602913239
0.20473738411564
0.218544914842617
0.210866712749864
0.209817837963502
0.219054431909538
0.224520998621367
0.228237858005518
0.232274275505134
0.224259604359305
0.238594320346986
0.24826384582993
0.257188391493714
0.252262052201706
0.262150052542264
0.276429787042652
0.277951903046905
0.279333431505513
0.292866783066687
0.29632365749923
0.311733668926916
0.324760724347203
0.319996960685327
0.332062327682542
0.336552562586037
0.329563848594608
0.335790320929142
0.341444762907574
0.318322958903819
0.303479970035586
0.320923085299172
0.322904878414581
0.324280249246138
0.315645600278104
0.317051015086292
0.307875807280924
0.319194492920087
0.315189406773676
0.309683188720431
0.303494175609373
0.322687746414417
0.322274447944231
0.316142386063077
0.294467996657144
0.304456522183601
0.3106187499958
0.293461639236861
0.304511638426069
0.304699232095849
0.282983588982835
0.292113559921739
0.27515246420895
0.288277898929686
0.287612192891801
0.283015631864866
0.283497742383315
0.299485110036682
0.296471402168661
0.275438805506816
0.293867187796153
0.283288287627354
0.26687976816881
0.286618640787317
0.267599415866502
0.28925799719102
0.301648598976212
0.286324864860173
0.289684403416441
0.303597833089398
0.304246774706447
0.299800639934662
0.293714282396761
0.297869585387113
0.2876335598265
0.280345477570275
0.292106043232318
0.295546560431892
0.305320927883447
0.291589746918899
0.310413818561959
0.289163021941223
0.290032871796453
0.315268937714282
0.284058010624571
0.304877593635536
0.307292443472478
0.306633783432444
0.321858864220816
0.314040553331163
0.320308166978956
0.311612763498784
0.313752686840854
0.325765464838684
0.31786757891481
0.327879045697837
0.342767313430315
0.346519574951161
0.320812098762897
0.322623895998623
0.355620069917486
0.352176144630428
0.34169501155193
0.360479693157727
0.361764973629702
0.345200592542024
0.414623063154417
0.365374805154138
0.383708685816692
0.42199681927412
0.368230211107614
0.423857297750859
0.405302510498237
0.390511418933703
0.395339484038335
0.403099528596237
0.390147501880801
0.416680764325187
0.390693575418283
0.400645690253601
0.436526390708764
0.381551708655054
0.384276953994832
0.366449534943345
0.362792503445676
0.387316448210123
0.39391748865073
0.387451349266817
0.405275491177
0.381627868218536
0.366037209270729
0.38995859496393
0.349571879202249
0.368984613024611
0.405676239970348
0.414929997509118
0.318748920684459
0.300537771819461
0.383060728904892
0.368980358971043
0.373483741330605
0.386292981157976
0.415160542906519
0.372233389120951
0.381115866503671
0.371163937621835
0.384999387044726
0.451534986631285
0.408452842874251
0.342540590780672
0.317327493421465
0.33277144949425
0.342759990969379
0.37288565099592
0.456073938140636
0.37331317291921
0.320416670636085
0.436614512733614
0.322807699030487
0.308848791385867
0.339713123143381
0.260309629375068
0.455532346035329
0.509819186615797
0.422575218047528
0.44994202461822
0.349557738654576
0.639082667170352
0.51633418710672
0.277427432120481
0.319528630662516
