3596
4000.36533379555
650.420452594757
1
2
2
0.0494972012390425
0.0488756566737828
0.056385716737913
0.054700199708463
0.0509518100347554
0.0448841905584228
0.0423186805832523
0.0451446717942624
0.0458983096298854
0.0536404963325679
0.0444880527017
0.0469163589833223
0.0508319711227564
0.0490812882132328
0.0440341418368138
0.0470059659866981
0.0447808393518196
0.0496479489517954
0.0465718146420398
0.0528003895214566
0.0523054563385339
0.0535991942563731
0.0466396199405362
0.0464442282948291
0.0485590183188955
0.0568188834778671
0.0546491642559247
0.0546271044418448
0.0578197613069331
0.0425302748680242
0.0428388654834302
0.0440418395880986
0.0500658497689317
0.0542148305731996
0.0526721585244258
0.0458241484428918
0.0476322102827935
0.0483418051389296
0.0381199122294382
0.0489312960959301
0.0522586915704075
0.0470989952149361
0.0473237792599589
0.049764467328496
0.048081064471715
0.0475573823223532
0.048367267552614
0.0481727245791373
0.0580752812985355
0.0500064358212092
0.0441624459227005
0.0474882674280209
0.0608884583145901
0.0500625289763022
0.0505617767116121
0.068610027864216
0.0550736821878698
0.045684257054327
0.0536949056408381
0.0459221489766796
0.0577556742109304
0.0483946267935378
0.0498170668896939
0.0483289116854211
0.0547655982060534
0.0441052694102384
0.0454068595734818
0.0507995025045071
0.048417755176282
0.0450830590887896
0.051803397764558
0.0611878903956312
0.0569752377652948
0.0485697147993592
0.0488840329909202
0.0522844399522451
0.0549327553367096
0.0434986697928674
0.0445853421244157
0.0585335779100249
0.0559844289085363
0.0533795385665042
0.0485650863607022
0.0454953349357683
0.054626383031397
0.0577062201537082
0.0470317232459687
0.0633469967041539
0.0658346672805687
0.0508612002990511
0.0441756131114347
0.041906533668432
0.0424988955673678
0.0452316551530206
0.0448913730640541
0.0486161480646826
0.0425417526838915
0.0529399078617142
0.0449333052678679
0.0451244238430479
0.0597460831650702
0.0820849966004076
0.054005503335654
0.0512607945743786
0.0720850965418511
0.0453003231490638
0.0676910792577399
0.0718196812133449
0.054954101166929
0.0468356229855766
0.0428843975520238
0.0463754651456044
0.0514099212255579
0.0507463053338106
0.0517371605531589
0.0674067171805599
0.0494559997535008
0.0480454373428403
0.0454159042169136
0.0440495246288359
0.0487257568610524
0.0880007800515397
0.0544435860416198
0.044818727846415
0.0525384648093663
0.0452306459333383
0.0527127253149659
0.0750790109325667
0.0545922514444922
0.0471532974425473
0.0456162969999757
0.0435815256163586
0.0385259546892987
0.0581763687165274
0.0671159370442915
0.0465645797188554
0.0496439994913934
0.040625094121884
0.0827863136822675
0.0685753721003915
0.0486888002109421
0.0486918827123838
0.041962301101223
0.0618559018805253
0.0596169396274647
0.0413569043767128
0.0471663646644494
0.0627941537451684
0.0373075448778386
0.0420324641100843
0.0429043314588188
0.0532139748981121
0.0551329095321198
0.0484918046380993
0.0573459792466103
0.0936320713736613
0.0636124760193235
0.0893507699871585
0.0625159406089685
0.0434253245347239
0.0468120084671824
0.0421995673866093
0.0499702421982972
0.0396574769314584
0.0542488807933906
0.0421110321136068
0.0682946499514852
0.0501347795766932
0.0467054322300179
0.0596811459085059
0.0616039721837993
0.047676815579896
0.0547494925472184
0.0747556947942526
0.0374794988424808
0.0581726773167647
0.0642818808584679
0.0443324460630108
0.0436578050237349
0.0659615523780934
0.0522613711747984
0.0429296149497623
0.0468173679358431
0.0379522794825766
0.0546425420806207
0.0581213894302048
0.0454722525243549
0.050098011841728
0.0509899735270506
0.0414857174306708
0.0613898703036147
0.0770552815564417
0.061917955427676
0.0498667355759599
0.0462955310306624
0.0441797599719573
0.0765669333044665
0.0476496762785159
0.0482068322202424
0.0411461398460839
0.0400147930410097
0.0440464852605631
0.0365459186534264
0.0435112357416817
0.043681051765283
0.0584987479054429
0.077938839886053
0.0471168785358195
0.0398343167554317
0.0397789569683929
0.0544471345002657
0.0548368744658579
0.0894407632240014
0.0466101835578402
0.05951991090602
0.0416364698904742
0.0537782142155497
0.0553073790318883
0.0455015915270008
0.0469029303719125
0.0456883690809889
0.0418150490997496
0.0460535682634385
0.0363917711603361
0.0434322283567444
0.0425388349031758
0.0416754295131517
0.046564645816225
0.0437261164110416
0.0469699653799398
0.0545051529988353
0.0453393145811129
0.042344145006277
0.0396410571759715
0.0446570123130854
0.0568877323344686
0.0451304210673528
0.0405155332690527
0.0410059798879873
0.036544217379913
0.0416578607293477
0.0411669890476873
0.0489894578287942
0.0461508765744617
0.0414038858091177
0.0518856421207272
0.0673100345896617
0.042876565043753
0.041732586068205
0.0341018454512869
0.0631326169131499
0.0388125920383887
0.0475613623242236
0.0435407315487075
0.0504874193741746
0.0442665018651057
0.0551906821660771
0.0663820299062141
0.0577301309832582
0.0495721263211764
0.0637986103260699
0.0414435852367093
0.0524613130356319
0.0432378743696146
0.0620000700501137
0.0928766520375741
0.059671305483745
0.0766665375220916
0.0701859225394879
0.0483090893506375
0.0583323492462862
0.0459208822184233
0.0603025299102852
0.0870238208243292
0.0717858586959988
0.0494742764472197
0.0506956888002251
0.0563800074117707
0.0482022587568785
0.0597581307446002
0.0543202079674742
0.0760420017902719
0.0796374242125071
0.0925549979831903
0.0718077944710202
0.0521457123137343
0.0927011317850221
0.0456063997231178
0.0544838122708556
0.0464107550021106
0.0516758483401283
0.0448759588860892
0.0662083344394067
0.0462476381601326
0.0667192061072928
0.0457281059000307
0.065127614922432
0.0633166706502935
0.0505560380000516
0.0496624050795631
0.0649709203976406
0.0552592596403226
0.0519880727879035
0.0475148716847851
0.053774958503936
0.0618894005936754
0.0493386753959446
0.0635777143074057
0.0897621610673296
0.0581776824195272
0.0670553669998556
0.0653361224429114
0.0471794310155524
0.0436799522863492
0.0551615794532616
0.0538929743523025
0.0548333794272759
0.0518334669551237
0.0616589968453498
0.074078650022217
0.044911741001183
0.0534452943654369
0.0558093773304621
0.0581120259493159
0.0591264395177567
0.0536594980161714
0.0564840266570222
0.0557209287574692
0.0530732208988769
0.0506023841495301
0.0665537710618346
0.0680982232549232
0.0565875703741594
0.0897126780532327
0.0646012090305672
0.0567500296809551
0.0608686746514814
0.0599023983736714
0.0644265681547734
0.052227049429713
0.0632174305499976
0.0666496569577826
0.0699062292077415
0.0712098577127636
0.0687474729827088
0.074875500380528
0.0910652502696832
0.0963635068811983
0.0894596723423969
0.0690766928020236
0.0805361272259904
0.0761233889328686
0.129621061354355
0.0767960254531295
0.102186651883784
0.0839685279928871
0.0676992127904646
0.0799679424143219
0.0780903890559142
0.0753947652459399
0.0721370018068564
0.0842078927352601
0.0766755717673373
0.0851631779766988
0.0867046024281844
0.0879893612260522
0.0845919182880249
0.107383045166546
0.114702123711197
0.088932832520131
0.0914967652280768
0.0969429775363442
0.0972436037245952
0.137785555403834
0.114747613273286
0.147117356743667
0.109204601117288
0.137345926617754
0.131356478547224
0.106513806103431
0.106900606085703
0.106724352975222
0.11649294280468
0.107953045574156
0.125424073884478
0.11448014768759
0.114009894252929
0.128510162473238
0.12116507083963
0.125769047789417
0.132510351120877
0.128736594063013
0.14908433471683
0.115088783345039
0.136297199203558
0.127987132781404
0.188752105534058
0.184878478264699
0.175720103681212
0.136877661290169
0.176355044275577
0.138971478794675
0.159993085733293
0.150214751495088
0.164395824543339
0.16060119717976
0.177684064592358
0.186096346373686
0.173337400677695
0.181717959909223
0.177670977006631
0.169563245135971
0.196858653771529
0.182454427258457
0.212748183462061
0.199261448409674
0.195160792127189
0.192169214238626
0.236837292983125
0.180710879174652
0.213466467833482
0.212798286326389
0.204739278285712
0.194304809609611
0.203887610620641
0.20903037337823
0.216711870958006
0.219609341729126
0.216871735882104
0.2232099691987
0.221106893591637
0.21910667700222
0.234192268447384
0.238108628408091
0.235168211917652
0.226402855337714
0.252238256357716
0.224878496606869
0.259468624834844
0.23768762582209
0.291656219549188
0.256551859864355
0.300284850616
0.267550189699619
0.261259628482812
0.261070653808739
0.267923978268136
0.264765294246711
0.278292811558283
0.270670810655982
0.289247387096636
0.273751258848315
0.290180136080851
0.294137882163685
0.299574053048263
0.292023485611035
0.302961338388212
0.300411304244099
0.321792007141202
0.292707666831274
0.319533265283934
0.320735847337421
0.367385944356178
0.348142383389169
0.357536799361875
0.328815133140937
0.345267073317432
0.323314543012121
0.345200033014973
0.343414498722492
0.355200350930943
0.359559070926814
0.359589522744825
0.35407324734515
0.368925593509818
0.356297929401065
0.38229903939148
0.380220482143229
0.396918358374876
0.386761898887586
0.408350064711045
0.366519539598382
0.40136324121833
0.388998981201236
0.41897971744319
0.400209867077899
0.423284851860391
0.424008226126652
0.426458802350204
0.421347595673456
0.444283897660219
0.442873473161426
0.433462173641512
0.434841036635318
0.444195490094842
0.419924053834142
0.461266785702843
0.451908006375078
0.471215684909724
0.463069702687971
0.474079854004965
0.445091514364931
0.503184824783346
0.474954405621063
0.506561525914956
0.464841771589936
0.515018431250163
0.494510799864218
0.520627601340976
0.49239727455507
0.517306747834474
0.526508764030584
0.543033986218362
0.518857073354282
0.533215774701257
0.531071707322956
0.560809867226861
0.535516327778926
0.555158107590503
0.521692151491963
0.548797956030863
0.524142717881724
0.5814620928994
0.573447433268278
0.578666728283235
0.562995041134107
0.604274107949274
0.571357141439669
0.620388764775973
0.559026794508676
0.608114801208226
0.571936054659705
0.623188719513052
0.568745796143971
0.631037654080905
0.584001684389486
0.614842187128105
0.59714323263583
0.629919999146227
0.616153007612117
0.631161849180658
0.633245917804562
0.679123498179101
0.630120845984612
0.685810669739669
0.680054309438544
0.682116899663031
0.643201375608735
0.696409680067886
0.669667614008721
0.673362846048737
0.664376919844677
0.739964970596178
0.678406864597089
0.702034264841889
0.679273049921611
0.719230635653211
0.665832774554725
0.748541742420885
0.71386780241306
0.750160065352215
0.696622715017936
0.735659017044747
0.715847372702605
0.761410512872995
0.727722590022048
0.75303770261612
0.693587488670825
0.762827807471435
0.722905491865221
0.784124195633993
0.712221369986768
0.786097565241017
0.767467299400678
0.815208650227273
0.732892651827349
0.805076362953535
0.772706563778523
0.838478810133156
0.792578124809029
0.890357038442324
0.803327806422171
0.830985356056267
0.804655049937763
0.870294876223068
0.836682434666681
0.851450114515666
0.834728500884302
0.869576411206582
0.816181170432195
0.886428820866081
0.867223801907251
0.880634834471507
0.81198002676741
0.864410852920186
0.82986701849418
0.898868159708033
0.89296317461856
0.869202210039606
0.857658148481086
0.921987778238438
0.853890711318321
0.908644315619701
0.840053766801321
0.962425170332211
0.863975127700302
0.928769066028346
0.884991964235193
0.953412417358908
0.892250577528562
0.967665989360828
0.887846491214756
0.931001959871043
0.893818623285448
1.00341809798506
0.906082895929349
1.01690239684698
0.93231685290649
0.998591947344889
0.920491012485009
0.998030718964921
0.920001245219936
1.07988025436721
0.931222428707851
0.988431678613065
0.952987949024448
0.978521063436635
0.927825596402787
1.03283502683518
0.98709328717385
0.977355472442399
0.962853795938486
1.05065265841367
0.968545918010902
1.0109559212772
0.97822739620211
1.06131554831191
0.993230152931268
1.07582721610561
0.938213291426268
1.08016706107394
0.971481326627541
1.06080498130625
0.967918572071787
1.0982558770784
1.02721004812723
1.09977494668514
1.02170298430124
1.07969941459505
0.979655904316007
1.06290722626716
1.01578856486885
1.08961099915349
1.02434096849199
1.1051024664835
1.06192082486783
1.22093011876351
1.04842215922674
1.17266035994567
1.06094093060491
1.09075770622784
1.07626900105946
1.15158768477728
1.05391384849987
1.20730593193195
1.07212050989948
1.09536512573009
1.06301442785978
1.10539992999576
1.05011293664097
1.08804625440714
1.0750280512363
1.06532794068581
1.06116303546592
1.14065301352121
1.00245712395678
1.14700554022181
1.09080552137637
1.16517513028707
1.0955366328164
1.12731338084725
1.11479412223097
1.24612443152588
1.11447884626308
1.19884637470946
1.06887851311234
1.13742062950946
1.11696259818084
1.14963392761981
1.11303231340168
1.31529307069919
1.07566339149128
1.15870717832271
1.1253892598208
1.10742514151667
1.05344104001425
1.16228736552872
1.14365445567712
1.21977263612873
1.09441445186478
1.20126248571935
1.0954382351376
1.20936417231811
1.13460091672108
1.19077218282608
1.09188223023002
1.29691161970862
1.07481524733132
1.18716488832646
1.12784815584712
1.18728877757735
1.1106317162271
1.23798514029877
1.1101123305271
1.11369313434023
1.11300881339561
1.20496402157924
1.11013644561735
1.13758539885232
1.08353192263739
1.18363551948019
1.12210073779401
1.1698077836198
1.16676090727801
1.22857993588186
1.11416973875665
1.13788962935647
1.12478526345469
1.27690945456936
1.13394925157143
1.25491602949267
1.08638302016961
1.1876480473291
1.11071235985506
1.15348676172008
1.1300734977666
1.25516214508193
1.08514171990149
1.28312776250853
1.10209194973143
1.20896162406599
1.09088111316287
1.13124041888609
1.10509491057197
1.21035536482206
1.15067878764234
1.1428332109919
1.07161468202106
1.20180555871928
1.13059317968041
1.20327851959038
1.16490341241813
1.18257967180883
1.09647468960574
1.1438238942897
1.14942957542724
1.17214782969939
1.13252785797497
1.18548071108034
1.13557967623187
1.15197613300223
1.14041024095403
1.2060713993406
1.11716568454297
1.17227889983858
1.10292540662133
1.17277761748332
1.11566355338183
1.17277556376543
1.09680956378198
1.12788772802956
1.09005125309526
1.22857497926488
1.12745463958749
1.1266901205495
1.08207636879916
1.15463471001975
1.11032099962865
1.1369912135219
1.13527915237135
1.17159014880578
1.09863718201852
1.12324328447433
1.13166526331582
1.16990932475234
1.08063847541462
1.14372524959866
1.12702196310026
1.15530391207555
1.10113832234957
1.12787483229274
1.06056977578464
1.1670495852847
1.11021680817677
1.13475267235339
1.06245181323581
1.11976050031742
1.08626131151218
1.07166725963256
1.12104940344187
1.09720403930326
1.02822608604071
1.08082359363561
1.08597301150658
1.12312620706139
1.08528277593373
1.08159394892964
1.0397680453929
1.11086853800493
1.05128656299869
1.15830629848987
1.05645520425019
1.07117059245022
1.0731754411242
1.06222213281057
1.00590273102392
1.04232827694075
1.04058004307167
1.06343787940259
1.02580853030387
1.04973332988376
1.04715620153852
1.00919718919883
1.053233840242
1.05877424091021
1.02763378664298
1.02125646943479
1.03979806460526
1.05945962771406
1.02501371716562
1.00549576487323
1.01141796419521
1.00937450806088
0.989319239168919
1.03185509258951
0.97004221421716
1.03117922257862
1.00349143190872
1.00973231339483
0.978620634995077
1.01188941687195
0.963729094913577
1.0548917456835
0.96583916990829
1.0184443532771
0.933823090935203
0.991219746859998
0.98115309869638
0.987574953713571
0.955279599479538
0.980448720313378
0.947192964069315
0.975517816898747
0.911855051138649
0.931734960200463
0.935453092202826
0.929632119801352
0.966133078161481
0.948491857549819
0.910068918872021
0.957248321671836
0.906758833146262
0.937143849173714
0.904808420683265
0.939568110147137
0.89655496955224
0.942806328484141
0.892912750384324
0.911008277409557
0.857786962693191
0.897900994658749
0.858965459840556
0.90463178386728
0.888769944487842
0.888251305951177
0.850342441757533
0.899436388449226
0.852333812856477
0.86612170918572
0.849294868173447
0.840170162262697
0.837442668874575
0.859173363897228
0.814284841311022
0.852429578842573
0.820603275043958
0.854836580457396
0.83050593930831
0.826424401799896
0.803273036528184
0.827051593717256
0.811197889999796
0.827447968597179
0.802570157665308
0.814711733120447
0.77961004454025
0.815179724963256
0.798123922058253
0.784909063351709
0.774161745481352
0.777623700133041
0.774630709831931
0.764713238825965
0.754256051419416
0.766682893105211
0.737468948478788
0.787433324582557
0.749647762588433
0.756303457094641
0.733818502192791
0.761572165607978
0.732551936331657
0.740576821704461
0.745636474271594
0.743204857042767
0.728467678051233
0.72777904480674
0.709034564856951
0.730406572687134
0.700026767000524
0.714277401274894
0.679842952994971
0.705109902583814
0.698147234793648
0.705616381092503
0.692011514293393
0.684052083159722
0.676321992796055
0.685133361055252
0.658902761318287
0.68708892487131
0.657798252377362
0.659403759886017
0.653649434564539
0.661828928175445
0.662166614252622
0.664989621363822
0.646405262752353
0.649649244032894
0.630983172779035
0.645033393168978
0.632230251441973
0.63407805963621
0.617398649853188
0.624470221275345
0.619539012547595
0.633095085947758
0.601973088749508
0.619228427916125
0.603606630769408
0.612406197672791
0.60057350227822
0.601472270313386
0.583882142050761
0.597010095743697
0.584581282284412
0.591272196385332
0.594605243912682
0.576131667274785
0.584971493348031
0.585222700590344
0.572406690953271
0.578727364984273
0.571308790736058
0.57224851970817
0.555934052610573
0.570261081186855
0.556704989116054
0.563446063213816
0.554432104676221
0.554862168343547
0.549761203388907
0.557068791722691
0.536131588387472
0.537794915549422
0.531945820433478
0.535590394683749
0.517881451538336
0.526570921503547
0.529260643357765
0.528329081626676
0.509957217773875
0.518485779289988
0.519827942908881
0.518973845928764
0.504948504503626
0.494833701334824
0.492931526108407
0.509825883924121
0.491299034123062
0.50197570747106
0.493291682947828
0.494462088115336
0.49084555150392
0.481935639578005
0.466667103819721
0.480741026988878
0.476826039020385
0.475719348832434
0.469870754140124
0.480011148041462
0.480535667701184
0.469079822142103
0.467536022128969
0.46203804282254
0.452156345296567
0.455183922357448
0.45999024635726
0.457732278993174
0.452236486330128
0.450344504045843
0.438916493101857
0.457660182530308
0.43980244643409
0.432609995099785
0.427622675398396
0.438371684572246
0.427103825924378
0.423944778600727
0.422085113354322
0.427742055713771
0.423606537220554
0.421394093079101
0.412311834671937
0.424408897424313
0.405447048161712
0.416538756666913
0.409051016155
0.405516929230439
0.400268066621146
0.402468115953969
0.398145995919162
0.401323504819718
0.392894948372427
0.39703028331647
0.392367368839139
0.395476575740053
0.386075506319508
0.387130616873857
0.379507668472356
0.388888571835941
0.381340996345214
0.380808020461952
0.371864571421081
0.372533591182933
0.373529894853958
0.371698012175797
0.362908584455907
0.3668458568659
0.363478590812792
0.361341454156952
0.357896631719245
0.358245768544401
0.354082148935723
0.356565615542397
0.354645238789443
0.349398171071555
0.353134413048577
0.355874255886338
0.349875465606885
0.352913087562351
0.349589110528732
0.343350258776637
0.342460813743045
0.341658333388493
0.340795627380693
0.343308200369948
0.341550105517759
0.34345926156215
0.339043820602413
0.338450697146571
0.337087103966183
0.336984843306196
0.328829533950955
0.332920057304496
0.339328963719488
0.329872754015742
0.334098017368575
0.330828999310961
0.330843463700606
0.330329944681682
0.325601031408927
0.335781458831488
0.333130493512938
0.33206817599024
0.332425950949014
0.339789226412991
0.330669368933656
0.329629573065154
0.336005456048231
0.338316509895663
0.337399623797001
0.338447812809552
0.346665698233972
0.346024032440545
0.342841603102691
0.345573160713432
0.346694368650751
0.345526629322254
0.350203214863582
0.352236719700782
0.354263560675739
0.355006012178658
0.359536327129231
0.350584438986962
0.345690835043827
0.362503522603779
0.363584664646629
0.361029080571987
0.359131760921172
0.366105237999746
0.365916594391476
0.367699111915724
0.369696006723509
0.362765507108268
0.371412751258273
0.374316812981923
0.369725941915273
0.377902768033155
0.383860182772467
0.378932095141457
0.391110942798765
0.388703822284374
0.388287009321131
0.387385958125627
0.391521486337684
0.396082620824317
0.404194235562313
0.399234586744747
0.402032324720658
0.410041533169818
0.414222569130188
0.416193899922324
0.41731018929937
0.414944459713109
0.422042699014088
0.432513585272358
0.431429449490004
0.436460889744172
0.437189537220853
0.436430435037174
0.437737015827104
0.439686225695147
0.441337271508932
0.43949061948729
0.444510779734994
0.443981555744651
0.452346462389348
0.446912994132039
0.443953451567205
0.449541187381138
0.442049627551166
0.451738444025399
0.456664417192289
0.453447389844417
0.454321967341813
0.451609127658152
0.451241188167885
0.444817587376673
0.44660230183514
0.44902839475066
0.448214972635085
0.441236952502183
0.450219827309734
0.440892659898183
0.435873090165369
0.438225289115821
0.434700711934168
0.438026541159187
0.446837467761443
0.444879836496429
0.434793433176363
0.436620887274328
0.442968082379081
0.447589601507276
0.436414133471855
0.441818349312678
0.444199752009415
0.446434051692212
0.448153886802993
0.44496482245855
0.443845194198882
0.443513409559577
0.444226784300982
0.444364460505065
0.441139843429525
0.445741229040994
0.445550681515347
0.440408555310719
0.440268853240282
0.43936088145326
0.444709096961607
0.4407929083222
0.439811484858599
0.444678224872135
0.442272006952048
0.443127007043178
0.439614962497452
0.439430857147187
0.440784002486347
0.436857378185516
0.436994198708783
0.437183243299594
0.435229181033887
0.438979827954036
0.434056078005978
0.438617591628869
0.425311908903402
0.431651772499708
0.42920348107855
0.423560190461141
0.429138213526596
0.418497051827251
0.413086097770622
0.415423794484685
0.410499146871734
0.411829257783697
0.408969924221032
0.404577195685348
0.397721175127082
0.396296084027445
0.393506574030363
0.397733079135048
0.392373645993394
0.38778139796091
0.380941324589679
0.380033954518033
0.37546751362912
0.373317562523247
0.37396306103765
0.365426312391661
0.361770460272865
0.353871844349768
0.351624173615115
0.351578985308764
0.352445129955573
0.349088470222705
0.344868683269902
0.34112666122027
0.342286794233434
0.337907292768819
0.33857037015874
0.335965126413598
0.327031445499709
0.328357112508993
0.332156122401198
0.325591866486688
0.324780367230858
0.320556070725254
0.322604223746953
0.318232685163247
0.314237223128709
0.30932197561094
0.30968884103526
0.310825389439623
0.304700935309202
0.306912026659406
0.307743973983212
0.299754681268596
0.30037443492337
0.303062256106887
0.300619951865257
0.293636295501061
0.293810700248603
0.289408509491915
0.288309600332064
0.286617891830837
0.292296559235285
0.285909065625077
0.285365538982785
0.283936030956851
0.279915429406135
0.276466596401818
0.278627885171791
0.27896743751163
0.276424526117053
0.27526548988061
0.277203153184669
0.271430520724722
0.271957139770527
0.274504352046623
0.270907039724916
0.265173498561244
0.268234099151802
0.266776811020764
0.264639330741601
0.264523733645968
0.267857399592966
0.262157191222771
0.262920826738275
0.259531879103057
0.254993688453174
0.250828871535172
0.257013265096067
0.253554703853659
0.253936061364275
0.252007681240436
0.251677852383344
0.248900191535357
0.248090267361834
0.245033045226342
0.242866213018854
0.247177763580342
0.247850280893638
0.24373847688825
0.245304949622073
0.240087036354402
0.243623792076192
0.243040916927514
0.245377002875591
0.238319581329405
0.237675823843361
0.236357999808089
0.238619019311173
0.239345954106991
0.236602906917751
0.232917473213814
0.236581976304093
0.236827715084071
0.235917886141941
0.230941161160145
0.230531341228358
0.230644601066835
0.231308618720118
0.229029266241276
0.224834079342653
0.222359102296616
0.229357936123446
0.225385472280912
0.226272704312828
0.228065481533088
0.226841377976102
0.223698359682983
0.22632002851253
0.224883103791421
0.222113353426689
0.21856825853017
0.225246406725035
0.221544789067069
0.220635939611139
0.219802929660459
0.217868377109678
0.216604479786438
0.218419974834952
0.217878405718336
0.220249960506141
0.211598927515971
0.214815309564094
0.217108252432409
0.211587202538542
0.210540939670401
0.219930152614813
0.214100282878514
0.212535018060583
0.211070753746861
0.211566587128953
0.210436024625207
0.210788641246241
0.211140237339652
0.214191728879547
0.208737437811727
0.209778547855934
0.212453902247113
0.210853140248342
0.206301622977655
0.208277060498642
0.206573234597765
0.207265055685628
0.207281183952141
0.21323773448016
0.208125467802565
0.206259980520119
0.206118124437143
0.207847927667775
0.203876157208386
0.209279302538821
0.207929006034675
0.202500522372906
0.200993755801468
0.201628711780373
0.203041496304136
0.201482707868516
0.198948257245553
0.20140398956955
0.198950609379677
0.201100377377588
0.200366367659916
0.20272239865499
0.196824294216252
0.197885680758279
0.197871922642403
0.198384418972439
0.196315589969906
0.199202320450468
0.198175789145715
0.193576690367923
0.18540491786114
0.191235732282917
0.193383742482974
0.192810492807146
0.189762684358571
0.192026195323325
0.186815499451264
0.191225457557909
0.185747413416682
0.185249352385487
0.18915097235004
0.189585408761347
0.184291363809406
0.186234742234758
0.184468024357873
0.184458350683745
0.181401186857465
0.185034964160936
0.183691186918349
0.182117933835732
0.179109261108628
0.18091266059224
0.175392175132054
0.182346178161375
0.181256865113214
0.177967680172421
0.174693358949298
0.175031488126099
0.172744374226763
0.178426279397866
0.179660906087143
0.176390137986682
0.174676900558548
0.176953252532302
0.174919974920058
0.176571426413214
0.17027458278391
0.169759494368684
0.168409325823374
0.170716802529918
0.166103554815868
0.170537963994243
0.168104746056053
0.166048801763292
0.163507449580229
0.165963905545341
0.163858600436975
0.164526355971533
0.162669566524835
0.163457073359066
0.160420731744405
0.16037178845719
0.157853863734763
0.157169670730734
0.157717861322736
0.156886657571426
0.154830393790643
0.158338089352754
0.151964712286959
0.154374405204671
0.153214372251447
0.155106638291367
0.153809202683623
0.15361089838669
0.151274737176995
0.153202038983276
0.148569249362462
0.15292943663588
0.146819119368112
0.146567214074621
0.144168301448363
0.14689566671393
0.145100237669496
0.145988259246561
0.144869026083975
0.14486197591095
0.140143814079452
0.14533808280241
0.14216290816962
0.142898166780411
0.139574603455175
0.138093801428063
0.138907786879613
0.137533100855483
0.136210301541652
0.139477319410149
0.136528963284303
0.138514663809793
0.137657150129374
0.139970063767368
0.132569548629679
0.135247754807004
0.134233250954803
0.132962252801201
0.132018413593106
0.135171462310426
0.132393100924021
0.134291805613681
0.132665196499434
0.132190105348399
0.13106403201376
0.132529451665816
0.126952059033744
0.132111618357715
0.127356410922303
0.127443868689903
0.128013860213406
0.12700924603436
0.12253549138507
0.126782107647698
0.123721638116988
0.124213547161383
0.123081179833988
0.124741266828913
0.122722047469528
0.124503417096251
0.120458133790305
0.124357110556876
0.121430744040146
0.121282128239828
0.120977627021755
0.121728680254644
0.117745350419423
0.121976395075973
0.121261285159651
0.119525921694033
0.118279092094672
0.119731540621337
0.118453134841628
0.122487548427357
0.114919296694604
0.11772908489047
0.11588021087203
0.116618674629226
0.112626115773035
0.117843007918934
0.116355631426234
0.116845019125218
0.115609121856609
0.117882448004586
0.116265200837653
0.11801343078743
0.113278843090722
0.116626746492775
0.113807795678241
0.114485190197429
0.112452695152255
0.114926749621737
0.113494066570255
0.114232952247295
0.106900978688475
0.1153153685066
0.110780245710449
0.111090742466971
0.110097815560312
0.114609485978814
0.112326294976318
0.111986884509497
0.106705371458181
0.111747178032176
0.110006294317876
0.113782955386708
0.111239930215819
0.109535943875457
0.110814970771038
0.111222458217787
0.106865043917356
0.107299062381272
0.107351336721187
0.108700835465641
0.1071960888093
0.109130472056187
0.105980883618952
0.107478501706305
0.106077069065117
0.105215170409703
0.105560294509804
0.107577735282288
0.105179835407613
0.106848698978367
0.102807211940414
0.104840120199775
0.101034682792923
0.1062811296871
0.103336634562536
0.106442566085683
0.10101089937358
0.104110047542202
0.103356289454468
0.102449780914628
0.100066917985955
0.103176031770547
0.103534281620454
0.102740155146097
0.0994368161811659
0.102583109685764
0.0975677283011858
0.0995142757130618
0.0990076204382163
0.100440483049659
0.0976594547646108
0.10249759572477
0.100292232606601
0.0998343741254456
0.0994200232308735
0.101304169344954
0.0974688579178859
0.100131664300432
0.0972242877547859
0.0987823726361016
0.0954283910253581
0.098691684337568
0.0971902078292362
0.0981916501620318
0.0973925419227055
0.0992187057178691
0.0967531675097908
0.0994219410850098
0.0968182622478329
0.0976268119034001
0.0951243392820175
0.0981967553770328
0.0932209191201167
0.0974921548885541
0.0934167720972725
0.0927762314195345
0.0927600794049475
0.0961816116005004
0.0915842995666696
0.0937570310933284
0.0916835733887838
0.0927802856125036
0.0900799292643397
0.0925166969318137
0.0919357846512387
0.0924504852395054
0.0891062264389959
0.0899938711095214
0.089119212079027
0.0909328522582072
0.0869879643025177
0.0902734798029376
0.0859404472828258
0.0884574970172602
0.0883154780063444
0.0889023520767443
0.0842622644958608
0.0871069497139586
0.086457245201932
0.0871953734793484
0.0842242038387895
0.088291716354006
0.0839928276722847
0.0852037860317688
0.082764770039909
0.0865194244203061
0.0828907510439889
0.0830675658273728
0.0808825163459476
0.0854988811572838
0.0796625204465122
0.0837841727466463
0.081245119733152
0.0806102216502472
0.0787219320250283
0.0832256857224452
0.0779688860991157
0.0799254865925197
0.07583797059197
0.0808046064529216
0.0790518570094574
0.0793247730654701
0.0781052001289286
0.0820786278055158
0.0774668108406982
0.0775657935451778
0.0745962223260657
0.0765686804684162
0.07569423689604
0.0792764344441004
0.0748282224458992
0.0764035243980317
0.0731541209124917
0.0766076822820548
0.0744172391352826
0.0763258776540758
0.070824269878602
0.0755214405954032
0.0721064549467042
0.077047447069657
0.0739003812076614
0.0738542169336589
0.0717817534012951
0.073371934697201
0.0712468553489407
0.0755419638890193
0.0708809704113112
0.0728865080339318
0.0696974415804218
0.0716302613440654
0.0690188452034702
0.0722169346825706
0.0697316342476264
0.0711864429194164
0.0696193953897525
0.0719817155210051
0.0689546416435797
0.0701704774486243
0.0685618096676598
0.0692183376669098
0.0669717328327214
0.0708256488766656
0.0656586578191299
0.0673548057970298
0.0667143747166323
0.0702909606421342
0.0669860779548272
0.068705781997919
0.064919579405308
0.0676710262350883
0.0642014751959508
0.066932644389448
0.0652385847742492
0.0669249199337215
0.0664365777706646
0.066196194690758
0.0629057552181013
0.066725563694673
0.0648335254495676
0.0680637047263531
0.0643791364655189
0.0649812777309079
0.0636657463897921
0.0672236250243121
0.0616480723291324
0.0653372342268437
0.0639190962408721
0.0651088421712865
0.0624522554755422
0.0670624831024255
0.0652096571623021
0.0659495163496566
0.0616683045606458
0.0657004088199546
0.0631406191996511
0.0670815315458096
0.0649511720962404
0.0649435792181303
0.0646023491528504
0.0656843989536798
0.0634941952579773
0.0641448478349003
0.0594885010836538
0.0597972716687432
0.0557062662688983
0.0572714013534641
0.0532601017258899
0.0605506390321767
0.0554236259898174
0.0557301597906883
0.0546984384465823
0.0556949690161051
0.0545369989695797
0.0512170167571888
0.0531103567802139
0.0564761342753576
0.0491072202147485
0.0553553905656617
0.0525688663103118
0.0552907592268832
0.0493449500540014
0.0567905821351757
0.0523871135730746
0.0562138854562203
0.0542654324153257
0.0593287929173012
0.0574068982875828
0.0572258421693914
0.0581243864362228
0.0534780672637122
0.0544848307245994
0.0512942124457944
0.0558891878674598
0.0509837529956049
0.0492197154215871
0.047191257448778
0.0539675472424141
0.0502279848033211
0.0499372097962627
0.0476501358336241
0.0580633987596969
0.0506592522986739
0.0594889669093338
0.0494490843793242
0.0582125793998702
0.0467388666374504
0.0639637917186698
0.0521821943838362
0.0649027347682605
0.0459634938678787
0.0650909722579655
0.0490254699533463
0.0631489239238644
0.0457249894327685
0.0646171960506412
0.0486248862792582
0.062808905600017
0.0482393486323103
0.0604284188841632
0.0571869408796729
0.0572177631388476
0.0587920772572412
0.0564707355097511
0.0603565249240266
0.0493462934236462
0.0631200183565406
0.0531238187217888
0.0633793313125359
0.0540547734136915
0.0603913365497193
0.0538443461694668
0.0615187369341541
0.0562987319550246
0.0605127855501789
0.056777585270829
0.0587905236136865
0.0551042442759651
0.06080807171783
0.0577263839202848
0.0595383888767429
0.0548047354897565
0.0609473798471189
0.0551956268314609
0.0586017773703647
0.0546402302065685
0.057426589801965
0.0520799803262075
0.0547178429525896
0.0545792217733281
0.0584791500970282
0.0530921393105313
0.0550164213277632
0.0528577520094121
0.0571011348286892
0.0541688464365092
0.0570303865808904
0.0544363759086332
0.0595340402322029
0.0545784683647607
0.0576081856691674
0.0542052014566573
0.0604874760584899
0.0550774653769714
0.0568228181717452
0.0542702707334312
0.0570870084868969
0.0540933006542703
0.0594092465202265
0.0536893986045936
0.0589370133966522
0.0552182165806989
0.0587524574497483
0.0553641946201486
0.0578564976005424
0.0554986237289273
0.0579008956558321
0.0518506314467828
0.0583876321374545
0.0534970512854463
0.0561820710176636
0.0532636388991616
0.0598340359406942
0.0555075738656616
0.0592945342258327
0.0551875456855093
0.0595644959623339
0.0549243226913155
0.0592930695721675
0.054904995405988
0.056843663611631
0.0552170769204738
0.0582600587686918
0.0538087942982404
0.0570395456997975
0.0547398905487707
0.0596662909348009
0.0539532017727319
0.0599126563561231
0.0557612707480293
0.0594707404185478
0.0569921174739934
0.060433607990334
0.0536430765573159
0.0567891065837419
0.0545151991955144
0.0582049487299651
0.0559081939251977
0.0583480834929439
0.0583820772638947
0.0606556361319455
0.0540514874091554
0.0615477758334517
0.0552254730958193
0.0586771882494594
0.0571824670195413
0.0594166324767381
0.0579828420687801
0.0594184175957831
0.0552776678272395
0.0597884103037179
0.0567594703953443
0.0588253573436077
0.055641536881945
0.0598889876811503
0.0558207415319274
0.0617200780104623
0.0577727055871023
0.0574165546476903
0.0560109485037384
0.0607099325182499
0.0585170582435724
0.0584882702859645
0.0567421424148501
0.0618619946775546
0.056474020385992
0.0619014620683404
0.0577317958257141
0.0606666145179774
0.0581012740511018
0.061300149693827
0.0570649086263025
0.0615632203423472
0.0586928717815588
0.0624824431879046
0.0589554770097846
0.0623678812569449
0.058664483491895
0.0618943480348727
0.0597456675056908
0.0635183703178136
0.0594587665057451
0.0592490003837173
0.058941699702089
0.0596224683476668
0.0597751331770827
0.0633232161841996
0.0584995893807412
0.0638570919791276
0.0604800509110639
0.0651793132931941
0.0600029257921737
0.0646631526682566
0.0601890277704408
0.0618273181250691
0.0598214413948861
0.0615479706452803
0.0588191416207958
0.0640840891397754
0.0593626816464941
0.0652616677148206
0.0608577544973357
0.0629719121990589
0.0615674099026835
0.0629958488232625
0.0594956896147585
0.0629922601381453
0.0590539862587769
0.0623457957625646
0.0627686052871088
0.0645025497156415
0.0606455393270867
0.0659916064034732
0.0619563102577333
0.0630707822614931
0.0621275727624422
0.065683450300776
0.0632372200642517
0.0640997226365702
0.060860962523077
0.0652025145207585
0.0622834904029521
0.0644917973685263
0.0613763449514593
0.06426078897559
0.0625436586572573
0.0666628353577104
0.0617381831407219
0.0660915278770253
0.0625863802807587
0.0668988213491556
0.0610710882633206
0.0641488859228892
0.062907130953603
0.0645702556870372
0.0630211177301121
0.0638492584873335
0.0595861652686957
0.0649806045349523
0.0624694859484306
0.065649611669707
0.061954780428982
0.0641075424310533
0.0638081972081742
0.0659313158664804
0.0612256823371516
0.0632054845926808
0.0622860711451718
0.0624194442335844
0.0601387150655995
0.061740784626157
0.061727551733307
0.0620547686808944
0.057877313052617
0.063298266820565
0.060164992788514
0.0646024177523006
0.059735126945008
0.0640631352145511
0.0599655774202263
0.0648046135741543
0.0609963762300476
0.062895082747252
0.0598040845749493
0.0654065001541559
0.0590941416082465
0.0640571207417159
0.0589439957973353
0.0618071984146724
0.0600285118363328
0.0629346623370269
0.0607526790274742
0.0603951768345036
0.0575933873226427
0.0624150908748676
0.0583925636624598
0.0606609214509375
0.0598468767250998
0.0628074176474617
0.0569032199965121
0.0610493129094222
0.0585106196250429
0.0602613680496522
0.0596384360419319
0.0620987696918363
0.05957640546976
0.0599882104758395
0.0565002749155795
0.0608031082987208
0.0563375423953469
0.0609090171267
0.0565952804844183
0.0600658293472856
0.0593717164740225
0.062393503018882
0.0553661982675324
0.0603579761687506
0.0578909121090056
0.0620076459366995
0.0594031566451465
0.0621833516893727
0.0567310411849384
0.0599775602475987
0.0573263104857889
0.0601475809428306
0.055514867764155
0.0591204709340876
0.055780302030818
0.0621510303367837
0.0565355245647945
0.0615015248804569
0.0570321642588405
0.0610607173317606
0.0584954460845508
0.0608460007829203
0.0554569163570046
0.0591849921729483
0.0568063440413127
0.0591890135725152
0.0553472796894136
0.0579702496771013
0.0573085220905069
0.0598115005250131
0.0564644073054466
0.060050724348525
0.0552758137437663
0.0601506928583365
0.0563839396631404
0.0570679950086066
0.0558953453206422
0.0572858312405
0.0560870836287077
0.0591979736377656
0.0548892821227156
0.0595913230665542
0.0564630652248164
0.0602578789006924
0.0539975701946047
0.0571500426478085
0.0526988920269551
0.0584055260371361
0.0558401544514348
0.0560241394206421
0.0546249767838786
0.0590108388534633
0.0547623767166942
0.0594264165010862
0.056077226669629
0.0564120107727461
0.0547639547416736
0.0565716082636084
0.052541995641088
0.0578592446869311
0.0526153528336669
0.0578397229560059
0.0538078960544804
0.0571849523989428
0.0515216467564977
0.0574126180229822
0.0522169605725738
0.0539978760432941
0.0495179357326307
0.0545678291792893
0.0526605614478832
0.0562326294791996
0.0526875609902047
0.0543004213374461
0.0523315628728731
0.053929377001721
0.0508242215790619
0.0550393304382527
0.0482445736194136
0.055591205888056
0.052738268208587
0.0548197990254706
0.0494237683935935
0.0534823367178046
0.0508707987199766
0.0527728589784512
0.0505258542229827
0.0527360185393056
0.0469720530674502
0.0527743130193194
0.0491648878889558
0.0517817249987033
0.0476937895414977
0.0522061468567117
0.0482113937534413
0.0522213355981312
0.0487091632627826
0.0515318155801617
0.0462597555907255
0.0503392190706488
0.0485569281738251
0.0508537169026758
0.0465143339799183
0.0526221356024098
0.0469206498988376
0.0501932971811297
0.0510376783856733
0.0549342061374594
0.0469880932154695
0.0510106244032753
0.0493939138408583
0.0520639830349847
0.0462583241188341
0.0495549735545942
0.0453477561925475
0.0495443797321866
0.0447741149816387
0.0507688645266199
0.0472481509092723
0.0502235390166772
0.0448701654632784
0.0473962070029558
0.045919024206646
0.048475362588914
0.0471843448318749
0.0501176007499939
0.0467919476171256
0.0502645768811816
0.0472131031368358
0.0494436874697537
0.0438177938910278
0.04772424901713
0.0483515725969164
0.0556680422670546
0.0482356697312806
0.0501415701036693
0.0446101017199996
0.0477166879538265
0.0440766023103445
0.0487819613352435
0.0438366122952867
0.0457144971199102
0.0433424292983592
0.0476534288744811
0.0438265603406255
0.0476892778229027
0.0454730305835447
0.0488344949656152
0.0423669438976223
0.0469784707518209
0.0451679390923505
0.0476552185570779
0.042021902951042
0.0485624460384108
0.0427830447367803
0.0495366602596166
0.0423116223343832
0.0489703270737475
0.0412656700762293
0.053850487008904
0.0571122631549637
0.0477389335870278
0.0444114983469939
0.0468718474124121
0.043170291017179
0.0450952773166914
0.0432425585807973
0.0462822946945871
0.0418544458050575
0.0451015968143566
0.0439281602440293
0.0457712933767129
0.0414904958803937
0.0459847388723265
0.0433783505556687
0.0459448857377687
0.0441062047564992
0.0451452327623936
0.0450744497481103
0.0445665899916923
0.0496005537763506
0.0546993895035076
0.0450831690706417
0.0452490956897804
0.0429799811471856
0.0463944230614614
0.055372057355308
0.0475871302047826
0.0445804254531878
0.0459741072885712
0.0420899637114093
0.0450828058547846
0.040479807482365
0.0468644142302632
0.0451209974426788
0.0494235246645018
0.0401091676533806
0.0495247115303887
0.0399289599661301
0.0442149646586917
0.0400739413680222
0.0463854865830081
0.0425444555330241
0.045977098421927
0.041979106538186
0.0453277115809827
0.0405914239423148
0.0460744486097271
0.0421721031003664
0.0451609808255908
0.0431047729014713
0.0479406279027832
0.0411638024967903
0.044276946821497
0.0440619181433222
0.0465994994719028
0.0479105559329247
0.0584234877358347
0.0401728833313743
0.0478334115057875
0.0398628903763175
0.0455684497827379
0.045143069156285
0.0449686704833773
0.0409035679021272
0.0467860481311607
0.0401423748777768
0.0452325502142301
0.0410359921228873
0.0466644107924551
0.0402808666879409
0.042618272492528
0.040398937818968
0.0450048611132521
0.0427182438475006
0.0445982090467747
0.0428719370228484
0.0495661643866064
0.0523994433418671
0.0632036845109961
0.0499737270283172
0.054335806962155
0.0464169725346949
0.0450893166949097
0.0399861441208617
0.0463376460665304
0.039928948232703
0.0486178597026836
0.0433156122045761
0.0449158918283835
0.0425401558316235
0.0474368413364931
0.0421794826036643
0.0484178293196646
0.0378281499406961
0.0481224817132225
0.0409008525873556
0.0492123476398041
0.0391312886395166
0.0456875876378733
0.0400635027062824
0.0535158667192799
0.0449493393433432
0.0511637172585202
0.0466803740144732
0.0773669381895611
0.055772861903176
0.047290449722578
0.048614902656417
0.0456845325957888
0.0440128538148644
0.0461698672000998
0.044825665718776
0.0489478240961537
0.04438564839403
0.0456144709451548
0.0425954622239313
0.0480416746797622
0.0445093526389944
0.0465727974959917
0.0511078313011405
0.0660644093058444
0.0485090228308983
0.0506849035289437
0.0439008815507673
0.0549501764688371
0.0585685146165883
0.0470353383876072
0.0477815676835057
0.0482665445650029
0.0449736426744062
0.0487307353596429
0.0449310850367832
0.0455456264438845
0.0489901752221504
0.0506592939865439
0.0441591753157269
0.0498587863678536
0.0436073292346361
0.0546141432944669
0.0494281519231132
0.059160558888405
0.0525910565203528
0.0478693814859374
0.0510270171064058
0.0520144568789148
0.0455005113108717
0.051442664904175
0.0459976551136157
0.0510600540370481
0.0540311843376562
0.0620314681657263
0.0501720771319246
0.0646491963750846
0.0510665181506614
0.0510152125648754
0.0519011704647378
0.0581924222322963
0.0541362109721464
0.0498399292891193
0.0642984023335526
0.0754652193897364
0.0546293028827384
0.0700993285318486
0.0458231228098301
0.0573964807838895
0.0450826141258477
0.0557309640505108
0.0491806433534254
0.07018324057777
0.0462800463023333
0.0584645908286387
0.0478711597498026
0.0715234985411297
0.0595384589373165
0.057960802038001
0.0556242817570891
0.0542365318325431
0.0583492019205203
0.0656822755129389
0.0548375814754976
0.0575266567718385
0.0749857015151601
0.0808718767197702
0.0643130830386031
0.0621090263274553
0.0536852165929247
0.0940257997609643
0.0529267425011758
0.0619862938284662
0.0536423478534917
0.0609646730999552
0.0567785222479466
0.0651888933119838
0.0751706495236179
0.0651016373449685
0.0569093204429739
0.0655043300635373
0.0541379861593476
0.0813765356743592
0.0651845565455334
0.0652223583602922
0.0553419090590393
0.0690372650233549
0.0624480756777863
0.101443271834387
0.0699971086681917
0.0772703334712473
0.0874644957316797
0.0768302644405225
0.0749592998748513
0.0729726248075488
0.0747517614552708
0.0839838912494174
0.0840648656017721
0.0718227117345633
0.0724201413998907
0.083585367820462
0.0914742061691646
0.0722767177749405
0.0800808720847525
0.0724715503307843
0.0836766219277507
0.112212243472168
0.117332616614315
0.0934682391674612
0.0847530170202843
0.087420680997175
0.104797229731816
0.0844019597771501
0.0840052927899344
0.0830915964982894
0.0812342876697864
0.0876221339327913
0.0881336740800008
0.0973248676217947
0.0875990508514964
0.0894653581379046
0.0921548824499079
0.0961667304909679
0.119336183561278
0.133291368050455
0.124401834781906
0.107654117926536
0.139146398862612
0.116817064429882
0.105691398528943
0.103708902766524
0.101811229128586
0.119575411572332
0.103358862971178
0.106957696811791
0.107916329201687
0.133500114701052
0.123922174830877
0.119141456042288
0.131085749385066
0.11449467184345
0.135459390580274
0.131162658875806
0.25402837472643
0.138940113308484
0.143066761459255
0.152119347802271
0.156098620498137
0.206048951064519
0.147894370973575
0.157816158350511
0.160920933912379
0.164334189184097
0.168397436181822
0.182450202094599
0.180386477218934
0.198197057330988
0.19176999539341
0.197509206376115
0.221730106388445
0.276065460766357
0.237916506607872
0.232682082147651
0.217216062274696
0.247823416576046
0.240873621333701
0.239414167310913
0.238632250565761
0.256039301269387
0.253748526119479
0.302202966131401
0.258061724674633
0.283083874570742
0.278187472575361
0.323815770229303
0.280985728676217
0.354072835358085
0.316686186865876
0.315538617010058
0.315969425110239
0.320512476952559
0.330132649604504
0.330729482142121
0.373872335327603
0.355047021696555
0.349441365277131
0.36091716010814
0.358863062996686
0.371935168643194
0.36641307841836
0.387773498658599
0.375935642590769
0.447148532160194
0.400373020447435
0.520671753016087
0.415751736018176
0.392425767356682
0.395406297678671
0.400529992241531
0.428617537876023
0.426324684567698
0.436683995262569
0.425352721550775
0.388161095645275
0.415872026153588
0.396327331696488
0.415326820313635
0.391776214010489
0.416374951190465
0.389335676824975
0.442834155200084
0.409452518519026
0.434246333492798
0.468778510796771
0.402713057514317
0.406263139822279
0.405211762695518
0.402026567809754
0.39978463478032
0.404111842180017
0.407564870155014
0.4175925446368
0.383154927699087
0.391992201146154
0.3881390843106
0.397815117175354
0.395402087028681
0.360945470516336
0.367347153502007
0.357027111544716
0.361979373131596
0.349078399444009
0.362825674896796
0.390129523564659
0.337031591982902
0.345605180654951
0.332949189785648
0.331949032792481
0.323944024289528
0.32045244124957
0.323783775972862
0.324276271900228
0.317388401077202
0.323199831174972
0.310343329345905
0.309943423231323
0.308822087260842
0.307814565253296
0.311060602463788
0.304392410600841
0.310257418457527
0.301109606684177
0.306397389999505
0.297990412191184
0.30772815261894
0.300177620248046
0.307420062576899
0.30155467221378
0.299522163166708
0.299824848698414
0.305963417643614
0.299062655995202
0.305012112020004
0.295382098735911
0.300162938571145
0.293327938020596
0.304498230683082
0.29832841305059
0.300911260715573
0.293468416419581
0.303392850144088
0.293249785769661
0.298903541520068
0.283780073507093
0.306356239443131
0.296153546286591
0.340771614571508
0.30709893231511
0.28923752720265
0.292688940293774
0.285422719586892
0.294673752848527
0.288010979540598
0.321986974743502
0.307220638069857
0.279387942486982
0.281909881840929
0.279210455785257
0.287601998535504
0.287500708073778
0.269882779604453
0.280060447820061
0.273578961618296
0.322979524885352
0.362111124690095
0.304802844252695
0.335932835885433
0.272551043650495
0.281587472690703
0.263658678711469
0.309353821219598
0.251460604137018
0.28152816924143
0.263994369900927
0.305124413220755
0.277043217657324
0.26033790801634
0.264486318620079
0.262506207182744
0.278483106736238
0.2843696555733
0.270677355130554
0.274436380000717
0.291452453996881
0.27107438581235
0.3063929894637
0.299146309957969
0.263067741532382
0.244395931874791
0.245035067961377
0.250510510984892
0.24307774546593
0.297604131541589
0.236459364852068
0.245884702428284
0.229445480455163
0.227839206490504
0.240863744959662
0.238060884983213
0.251752257231778
0.226785256587123
0.267450234169957
0.217799199676305
0.239378978619597
0.249150915272527
0.242180789161168
0.25949778338507
0.219042550733493
0.218585473246828
0.234705242940283
0.251414018162436
0.210295495107998
0.227779478641029
0.203035274615994
0.208707031864704
0.221286004205764
0.202218037927082
0.213956302274281
0.221744991081673
0.22009788058788
0.272263259784138
0.241042241201033
0.229456836398144
0.196510256474328
0.184967919475884
0.193780573836767
0.190400053886275
0.192064320253921
0.186953852368576
0.201456824759431
0.207822236554704
0.176322950483561
0.246514200923443
0.190299129608132
0.189067578665432
0.189574015333373
0.192236746854383
0.199136220946668
0.229323446089345
0.222974247734686
0.225140654966966
0.202201653297969
0.231586434956485
0.196815901128604
0.220237842438522
0.201881128742377
0.221607112280835
0.215078240156977
0.235640175208465
0.221985716776517
0.235477863433249
0.228814158002176
0.252648136990244
0.248730107969375
0.286311799315351
0.242719095939767
0.303275508466568
0.283395330421164
0.323277733457259
0.288192675576432
0.279532966730087
0.289346355911283
0.293258216446174
0.29427290383783
0.304888042022551
0.305678120879808
0.34784877718573
0.30151165459113
0.32593364709675
0.310230017664533
0.329886626194092
0.322886536646384
0.358220815345534
0.352389470090363
0.378541050005153
0.383037540771955
0.344231026374455
0.351004937574093
0.337775342007744
0.355908979828638
0.352653170527342
0.343559975387343
0.35717088604001
0.347783679185314
0.371599335459355
0.352860680989679
0.359890941993796
0.35548364783349
0.358981094487725
0.357853898316503
0.362770648820262
0.367010730410323
0.369904280476182
0.366443480296125
0.386559357881086
0.371343763836928
0.436992358186606
0.390253571736884
0.379816048115472
0.395155888359952
0.385930861886832
0.395033309328441
0.393553683000818
0.40455740724314
0.407101623214366
0.398671534404152
0.410947398289886
0.405050920723096
0.417757398585565
0.413306826248304
0.444995308166601
0.410690950982528
0.423209196192484
0.425004620882982
0.425815343643648
0.479773001316623
0.426157447995798
0.454250624503652
0.431815260049127
0.435971957553593
0.42698021446106
0.434670611560958
0.43242744793353
0.443540013009779
0.441134707117615
0.438174463850302
0.440945388502646
0.431017227213025
0.438501257667832
0.430874158511759
0.453823167750776
0.440729404320999
0.436848809779335
0.43171506720987
0.433535611623863
0.438484708859999
0.449799522592394
0.45076484687782
0.4261983564573
0.449854005218986
0.440097366450588
0.445253882823946
0.440278833080497
0.427604504280347
0.433139658287312
0.431315249634914
0.430738542902532
0.439633177242112
0.437438700958384
0.468744275736746
0.443000704191003
0.445520164462454
0.442021313390692
0.447061931829595
0.44920896425023
0.447429157789644
0.445699027060261
0.457900765316956
0.458316110103527
0.458955462110654
0.457097234258194
0.461780108567254
0.473777517194473
0.464232198017299
0.467938992480246
0.454806031514434
0.450336882816374
0.450678288440718
0.445526515313399
0.461359245661799
0.439928497369922
0.443666426356466
0.429975287633812
0.440117397005233
0.425460606124756
0.452242201376498
0.428004851834954
0.428961657700868
0.425604792330889
0.407444510608777
0.415307612353325
0.403282008766946
0.412656660403608
0.405061916540201
0.405825256649723
0.395199445780737
0.40174474779195
0.392908620013727
0.389426977744364
0.390788617248516
0.395287919575706
0.390769940578378
0.389949320919413
0.386709483855403
0.388668593652882
0.387535499013737
0.386976110787128
0.38726729811219
0.392216245592357
0.395710422651384
0.402553683262269
0.396923366218939
0.394552562823897
0.383164137561889
0.394123011728819
0.384502708834464
0.389055399833963
0.379729907204613
0.389564837259924
0.3853358716979
0.386055474697225
0.380067204796867
0.382195306273899
0.379252233550914
0.386560480161371
0.38037085605369
0.383410059177629
0.379530322750707
0.381548662048903
0.380936272994242
0.383745146390034
0.381213024320512
0.385751570388519
0.38747468517321
0.379236922378044
0.385741425796737
0.380306713948589
0.383195374305611
0.380188996245125
0.384496993940242
0.383120683087036
0.379214944835523
0.380833008932734
0.376739500402171
0.379841253978127
0.379119836745922
0.373953513666187
0.372683491685762
0.374915629186788
0.371381559031119
0.370229223537244
0.367414632022487
0.364896666461014
0.361386195099995
0.358018805309077
0.353409657312563
0.354362968919521
0.349224587161284
0.34188647908175
0.342859474146255
0.339651304861673
0.338537656524495
0.33636524177618
0.334531925383052
0.330162789935649
0.332474389350058
0.330294037533757
0.328499658796419
0.328454409440718
0.324749111524208
0.326924710738885
0.323531878732062
0.32283399271734
0.322011522376097
0.323818538835
0.324470015053108
0.327003856679516
0.32548570192377
0.324045793473987
0.324210991034853
0.325870136932159
0.330636491957322
0.327776545516854
0.328232257285564
0.330795198777978
0.334348877100296
0.335273976621705
0.335305037310316
0.337658191692405
0.339674688202251
0.339671906979764
0.341272174058599
0.342924415183898
0.342976498676189
0.344991676950261
0.342546159416536
0.346289245469575
0.344954173706949
0.346035509505251
0.34375652831399
0.347515356468303
0.345403631430376
0.346814906969783
0.343659917843886
0.347995879635207
0.342612101022897
0.341995395005573
0.339084845045006
0.339077531801563
0.341405965309737
0.336648230915345
0.336712651455202
0.33576583901149
0.33501322090618
0.333622405298859
0.330231729233542
0.330799076929115
0.328160446639175
0.330223022458316
0.325789796216325
0.327882711904606
0.325711017480506
0.323125124972634
0.322140419153455
0.324872067242568
0.319933246215138
0.320229571246923
0.3192194885322
0.318661143970149
0.316990361008875
0.317280680767626
0.317110377930367
0.316715604494909
0.313816644037039
0.313861125506569
0.312556257201844
0.310890481755501
0.308926818845269
0.308386212768456
0.303483377452964
0.30575573118168
0.303609352324998
0.301342762904074
0.298567620754228
0.29443271001872
0.293705776617451
0.292209884721498
0.288493742075596
0.28603002914509
0.284117713139283
0.280200144446186
0.280644139504538
0.28041161709373
0.276941672584693
0.278460878993533
0.276471450931901
0.27574024976911
0.275791316135057
0.276072325444924
0.275425895344963
0.275677765462851
0.272308508061025
0.273510405871122
0.269674960362284
0.27006482333123
0.26717004806211
0.263175150053493
0.261190929449371
0.257307563764351
0.254173987444663
0.251598846997412
0.249028951089744
0.247883418243346
0.24629282757071
0.243856085985068
0.244193480185047
0.246164179219285
0.24756038960227
0.25096403336354
0.257040583060646
0.26298468278065
0.268073938411838
0.277930843992741
0.286293008845394
0.298026976955674
0.308690508921396
0.321944235178499
0.332807474494634
0.346525151602288
0.359965989712682
0.372833537490102
0.386197702735102
0.400413943995954
0.413375969669692
0.428515663853639
0.441363208977362
0.452940595430606
0.466162159812355
0.477350719307964
0.485191582703402
0.49777933174932
0.510163685588121
0.518695576375897
0.526659999542743
0.53936920504691
0.546724856935107
0.553436429857737
0.562688585451392
0.565786706566557
0.570691294972926
0.573178702874813
0.577651401071587
0.582519174702088
0.586779328327182
0.589736568480158
0.589616333178164
0.5884139384027
0.593441665047754
0.592356981357519
0.591018785262249
0.593749938724185
0.594391938791849
0.594732558461621
0.593285267649888
0.593451688200685
0.598772131358674
0.602460176020924
0.604806988956368
0.610765071395598
0.611632294072936
0.619264670609923
0.624704821993806
0.6277419843135
0.630662667764717
0.641731419231365
0.646315301436361
0.651878568361397
0.66346133848067
0.669971670468202
0.682138313546589
0.685818191401339
0.696342464316876
0.708112728856175
0.719168463807316
0.733242977133959
0.738981845100381
0.740790598830928
0.746727554646037
0.755057272069582
0.761689167644081
0.766851240020169
0.765667380538853
0.766430334392799
0.764939835788786
0.762400400685692
0.760696856562191
0.756409632573273
0.75832800925534
0.755596336219082
0.746045530443577
0.743522917110762
0.752993337530903
0.756448478738868
0.75703888502691
0.768377895861257
0.782935740897269
0.795854372473888
0.805737361130467
0.813693704327853
0.834808408186633
0.848542779455643
0.863526159751574
0.866923157248888
0.887221791623556
0.908285657758887
0.91736029929944
0.926941962560258
0.939371766802879
0.949638276648316
0.96935143954772
0.985335804086092
1.00765245146416
1.00993075974796
1.03209591544932
1.05234743647289
1.07686147189488
1.08768494431119
1.09946400038655
1.11808888874863
1.13846015060765
1.16359791244686
1.17845286222724
1.18712720916436
1.20837683514835
1.22643674878726
1.2473686543745
1.25419958890722
1.26020517542363
1.27493334334219
1.27641699667728
1.28822328796072
1.268720132412
1.29533538283668
1.30462515958659
1.27713460866376
1.28513047294234
1.27372044824107
1.25953237406253
1.27863802118532
1.24119687164724
1.23567679491199
1.2376271275392
1.24185591916413
1.26112354334596
1.23812956568532
1.23943062097558
1.2779675238326
1.28296810840544
1.26959691468055
1.29356765155264
1.28994606300846
1.29718436318668
1.3334313496058
1.35651409203911
1.36356865823438
1.38363422379924
1.39314070459451
1.38952538711355
1.37884245015993
1.43863692689005
1.41962203187797
1.39168482743776
1.41991982552738
1.41977022479078
1.42712494649859
1.46821533514235
1.40013354187768
1.4371588373795
1.48258469954167
1.43978122113692
1.44607666535393
1.4198583127302
1.45091381392641
1.42924350963256
1.40776969631533
1.42178567498144
1.43522017758327
1.46428460603142
1.44755718491041
1.41713387133461
1.43333500922217
1.41983580904477
1.38937195227175
1.37904992931167
1.35634315998277
1.36221361778334
1.3371729671239
1.30886827748336
1.32077091051897
1.27644916051133
1.22019188620275
1.19567298364022
1.15186797596416
1.11617078094853
1.07278606260417
1.03610747530037
0.980618625958531
0.939580469149008
0.918357620464289
0.880727197983992
0.848838392116512
0.830576145143628
0.811547485428055
0.806300764935094
0.794633838328229
0.786956102537451
0.780942665136382
0.77160150908073
0.753316982884408
0.757477368713349
0.756426599879033
0.743780950408341
0.730095239795591
0.72769580219097
0.716014909502049
0.70135390964523
0.69613030512873
0.683581457643229
0.67015896602151
0.652047802864618
0.631170400080986
0.620124134482433
0.605290178917048
0.58240217706857
0.5635658317242
0.544775316358417
0.516317709408703
0.494415839967339
0.479764935309312
0.461008416295294
0.43643285160361
0.416992522707733
0.394948165516086
0.379362462068018
0.362952163057613
0.347984207716265
0.333599753883385
0.32247549025404
0.309131940333961
0.298553025884654
0.288613373785016
0.279620188413663
0.273265478700642
0.26521160434488
0.261357229054173
0.255458195888425
0.250287871006338
0.245649844337865
0.246150166098811
0.246811834324698
0.242579993168589
0.241435525610989
0.242055140108579
0.243579696675157
0.245031677317028
0.24244752650699
0.243330271004491
0.245394044262049
0.247341262066388
0.248765416457779
0.249679711327888
0.246318034807868
0.25302152950837
0.254901555236536
0.250850250016141
0.249430568517273
0.245752441668952
0.247897878788223
0.245170089449949
0.241513303763535
0.241262720619613
0.239972330745294
0.236952691947701
0.237206238225625
0.237020925178691
0.23528337758436
0.234467435457995
0.23660639301441
0.236818009314991
0.238231110253134
0.235709256728327
0.238620142995064
0.244229942283449
0.246735879550193
0.247761961943435
0.253309921568268
0.252315739992486
0.258624283453274
0.258903805594134
0.256635181770621
0.259858964803614
0.258425867600317
0.264359747381127
0.26585227729717
0.264743042324082
0.267651895412693
0.266876438644358
0.272198178840052
0.26905465948966
0.270743883675468
0.266523441230455
0.269211816530231
0.26967965872675
0.274733062855707
0.27404814651015
0.282701151245576
0.287106201613657
0.292875150350271
0.294250625889375
0.301553323854885
0.308734181696021
0.320365615183593
0.330966062551933
0.336663288410326
0.343371870203206
0.355179678710156
0.358533067658441
0.363300915786885
0.375302977686093
0.371917911261851
0.369068775085521
0.372535776510825
0.371489694258232
0.361329700389861
0.354250284727668
0.348767196130022
0.3364589589433
0.342108324898526
0.341281494917123
0.332995929898097
0.328107636500385
0.32654104171562
0.328169239941291
0.329730566463818
0.330704674313141
0.331176930353377
0.331108397417921
0.338531215194866
0.331437389283973
0.325404831011911
0.32872002873539
0.323078424319758
0.319759732843661
0.323238190786633
0.314063797222661
0.314103212917528
0.307909411382197
0.3059499668293
0.297933179144797
0.299770990911792
0.30372263001158
0.300643028289128
0.292094262485529
0.291543117131101
0.291943762451429
0.28150751131832
0.279734401191472
0.283717288687503
0.278675806310052
0.284592253930223
0.282037693513294
0.275199291881476
0.276645216256129
0.274660282656581
0.275979561659183
0.276552234174569
0.277165142219482
0.27412076025185
0.272984719565664
0.280349645576068
0.268776908238186
0.267521379748712
0.276711120519705
0.270006377860659
0.270196941513001
0.25825911858022
0.259955319017027
0.268489686957663
0.25904850300982
0.258799385074898
0.255791015417996
0.26253437147922
0.254100763102463
0.257099192563202
0.263722628629146
0.254147669293062
0.2463299311703
0.251920130391207
0.258077729284646
0.261073246214499
0.257365518290668
0.2598384428111
0.259815353696449
0.262290825799987
0.263597021157746
0.264136955657337
0.268097332289881
0.266537615347474
0.264514662184408
0.267187809110489
0.272032355425653
0.276350910510614
0.276518677521617
0.272867378375015
0.27631028605598
0.287351825393106
0.276007328802159
0.283655382209985
0.296635405920696
0.285537244327383
0.279393710626192
0.301688086723824
0.298362515796
0.301461910625392
0.305585524100463
0.306901422510276
0.317685758092409
0.330637631451518
0.328585397926381
0.320752758151177
0.330558079647974
0.352485875988782
0.350482018434832
0.366852106063953
0.377493242296131
0.383533755281174
0.399670065750327
0.406602074191418
0.406455367448275
0.424533388652616
0.432620179702965
0.448311882876536
0.452893795814302
0.463107550946855
0.478282893552703
0.487869641164892
0.472508197586413
0.477248936666941
0.490842119528135
0.46526854335918
0.473609331912547
0.488087672957962
0.486970315513588
0.474283364547189
0.455983853910745
0.465707587767594
0.457204197260784
0.460577469830539
0.44929165092777
0.446368212852919
0.470860697925519
0.465002747870573
0.434907061780273
0.452813675715565
0.446330076766692
0.438134542685772
0.43587770930452
0.422717245736027
0.433643863039887
0.434602224553641
0.413376577787629
0.426246712382465
0.429502157133008
0.417148861642885
0.418146515156028
0.393392589718072
0.420027701773811
0.418568346366744
0.397544149780853
0.413371923308791
0.418241309838033
0.407406217442378
0.404662143684528
0.411442588403677
0.390345506705985
0.419418080567734
0.430264379482146
0.417054340154975
0.429745140047717
0.43180235712914
0.425105386910537
0.426974279297388
0.407399567240997
0.407270115265743
0.434118512343386
0.425265573998781
0.423275497553405
0.426819821851843
0.421196003985227
0.416353018673035
0.422703881412774
0.399751630087959
0.434932693681966
0.446432379414595
0.427367548830934
0.456791176729719
0.453488373709379
0.449776556967066
0.478529183117034
0.471392228423201
0.431024507641264
0.450265503533552
0.46707106461696
0.451005938647013
0.459614322744392
0.46739989203122
0.487692412031771
0.474195341778296
0.442974996642045
0.496724992156664
0.54029638532872
0.491232307210986
0.495251433194246
0.551231550683932
0.548513084717035
0.510059990113557
0.619645755856505
0.565588249512491
0.544911565311157
0.573266129689916
0.601686343467436
0.619584156487423
0.56836872824675
0.620661420937712
0.572344675287543
0.520868622464681
0.568882261321994
0.605213366018408
0.603833028653338
0.598475941879821
0.585401201257133
0.586515717635011
0.599588216798744
0.544836969694888
0.568601403861627
0.558098811818751
0.588492834264692
0.554478372515599
0.609303236151465
0.546551473379469
0.489024870141036
0.450262713286974
0.633861573801352
0.657572487957736
0.498059127630715
0.529457259327641
0.585460821031472
0.561579830345163
0.635219535838992
0.546845578501766
0.555279735945676
0.565502156870105
0.565726453900529
0.547816414620547
0.590559152770365
0.512049188944936
0.518034142256003
0.648255284269346
0.564170164001636
0.477280630341065
0.48871811502595
0.652333582615527
0.39882205089812
0.495691033413604
0.552006360699597
0.526742421388968
0.629545044201504
0.529616970302428
0.53664370780928
0.600237215993048
0.987357593471638
0.801184128797793
0.702822332805588
0.647466984731951
0.563301421322313
0.948915211149033
0.718485055362813
0.565732908325281
0.614008803060122
0.407654584411309
0.414480388487434
