3596
4000.36533379555
650.420452594757
1
2
2
0.0140323422430281
0.0195984605412104
0.0164987614831396
0.0251239581560554
0.012332189711136
0.0151011345263956
0.00334738443137041
0.0227095504130192
0.00717764743227687
0.0239388324825304
0.0107239543196655
0.0216013583367443
0.015038137208132
0.026910535688415
0.013274177452011
0.024002698336129
0.0132610850661215
0.0228743323288528
0.0103959755176991
0.027766104748131
0.0144883301299877
0.0211041538877805
0.0132440947457063
0.0209579673781605
0.00678541744058526
0.0238342209273406
0.0140838131390426
0.0247475195507147
0.0156373121331024
0.0178824767087889
0.00377464043226882
0.0177028343389977
0.0142247168094887
0.0264081240447592
0.0118586520911516
0.0171775855851465
0.00959253970716917
0.02004376392623
0.00633477676835881
0.0253150058122012
0.0107371291163843
0.0170905247892679
0.0165345464361226
0.023204267700174
0.01278618713771
0.0206999306624509
0.0115121630626066
0.0158628963846319
0.0112783110099408
0.0175922545657363
0.00670384914001757
0.0174502773925354
0.0182597615330846
0.0294297621452425
0.00858371568106611
0.0282191950795819
0.0174151864159463
0.024168646227972
0.0100939180322664
0.0156698135943494
0.00814457213877439
0.0179788221192412
0.0131397757892585
0.0296479486032359
0.00894777454940094
0.0200468760003491
0.0015158036197837
0.0266871303558995
0.0111354359374334
0.0220074598271445
0.0105874241503178
0.0199239909622582
0.019722026920058
0.0220998007916564
0.00953559364113554
0.0279161170083018
0.0171003795390116
0.020841175826576
0.00571505192294771
0.0232670098989248
0.0109128098260088
0.0197494964589178
0.00572363918239663
0.0215248472257
0.011390229568468
0.0229825614219447
0.00205125506090562
0.0238717085733937
0.0180784369016167
0.022675263193586
0.00920613609489802
0.0177859073221523
0.00906239765579727
0.0207108287439453
0.00951570153894503
0.0254571476545939
0.00545113059830556
0.0255196244692463
0.0131057529825868
0.00772931452966093
0.0214536849268865
0.0186197402283455
0.0208879383485715
0.000175025349009418
0.0139048850216327
0.031845699028271
0.00351247575027539
0.0489147247263716
0.0105840226893628
0.0260694433060974
0.00241639444022009
0.0221159721648074
0.00804292854425187
0.0273736188568297
0.00429089979267228
0.0191966468578023
0.0145805970836469
0.0209503345335399
0.013265790293246
0.0154809420879641
0.00971441688774346
0.0275076956030394
0.0219765813779431
0.0162339626013285
0.0158854006053639
0.0145549139240228
0.00515366425168863
0.0220301657057633
0.019259761481108
0.0153980306789031
0.0169657147876397
0.0152053434237201
0.0132091614394141
0.0080436130692898
0.0218494206248121
0.0190486967485482
0.0212889892544349
0.0153400130220815
0.0101420603749418
0.0327951356124534
0.00816482548973368
0.0182886757585119
0.00710356807174027
0.0201928322908355
0.00969734491459598
0.0160729518598538
0.00468499636302507
0.0213476909090704
0.0122498946751529
0.0121016465163136
0.0159774201960042
0.0223095193828022
0.0136909549701655
0.0225044141945437
-0.00334409090224968
0.000869603869800602
0.0382381986539798
0.00557806544805946
0.0318414424516429
0.0065774000721786
0.0209723783269308
0.0146850532540547
0.0170329526783059
0.0173317408133196
0.0151559276225467
0.0223671480859979
0.00947078395516698
0.0220943942991231
0.00605430453907865
0.0126537815831541
0.00377753941184288
0.0234966999142131
-0.00459454035109064
0.0274632730620158
0.0138759992896074
0.0171109661973638
0.0229647716277108
0.024025566630006
0.0109355009035874
0.0148653642390025
0.0233651001955346
0.0160395589830352
0.0164256039343233
0.0125040117621336
0.0117433376273748
0.0235877142809877
0.0178693411709173
0.017223282588686
0.0177171805417603
0.00744334141701975
0.0143405394343372
0.0259135324037893
0.0214762281120399
0.00799481926302669
0.0215873618326207
0.00765886459795264
0.0184669999328993
0.0289082173646479
0.0139048122094381
0.017025615905763
0.0120589862841007
0.0148344370803523
0.0136470702689536
0.013374803676754
0.0176166406639871
0.0184420739760346
0.0292687304062726
0.0196364020021644
0.0118173282720678
0.0132187522288016
0.0124433853029197
0.0165117159806392
0.0298208981211043
0.0257200689375173
0.00617258666443412
0.026223293252753
0.0120065734536819
0.023438177182696
0.0174101558455211
0.0246918942746096
0.0161971348016431
0.0154651538628194
0.0133791904228969
0.0160652522048628
0.00871739051554821
0.0200401464485094
0.0167825754715333
0.021310612636437
0.011092488851806
0.0163284831824346
0.0161412751388544
0.0210866892371763
0.00814127956228646
0.0224632134459621
0.0154339420201499
0.0160750735012842
0.0168475740527783
0.0171605408167585
0.0144219300325172
0.0163139329626234
0.0184606120311831
0.0138962154816158
0.0205384643984828
0.0169116589186212
0.0203904585936214
0.00745978709495567
0.0277477166115796
0.0187414481466347
0.0203862170545934
0.0214698825600652
0.0171708627831491
0.0234177318705069
0.0133938986412409
0.0271782743721163
0.0169340734150992
0.0254899598221021
0.00890951172503752
0.0371305207560677
0.0179415424780622
0.0208688408302246
0.0204695840573893
0.0318188485106293
0.0129372177414939
0.0285011707064499
-0.00696388316292193
0.0441335171615959
0.0238600754387228
0.0131150060365485
0.0305403194227031
0.0269872523625312
0.0106039689931033
0.0291455703086441
-0.0100740194275925
0.0558874626964617
0.0300633947533767
0.0292257374999195
0.0127620291067444
0.0372989575520109
0.0135667828985298
0.0223212292801722
0.0208817341703955
0.0213038265543228
0.0341984762964972
0.0100401403676629
0.0374103048107834
0.0236058561719135
0.0190811058862559
0.033810740446788
0.0208359197079991
0.0247156104793721
0.0172083631977394
0.0235842693607706
0.0132161537749225
0.0360669354012919
0.016355446066866
0.0395617206565649
0.0140900208702074
0.0370313194560586
0.0223900120284574
0.0342185215585207
0.0128886807040999
0.0366923427522291
0.0218224600261693
0.0363864827947443
0.0264156968904774
0.0348145000099622
0.0240826315687833
0.0283742087509943
0.0309340403970564
0.0349229651308728
0.01682908126506
0.0447364941014693
0.0233327368342255
0.0391527702570292
0.0277943048338886
0.0415470842964161
0.0256973067350829
0.0418763077418156
0.0231598339300958
0.0449130712938832
0.0284834428165903
0.0414215623673061
0.0358281151973121
0.0388917876731153
0.0347950099922369
0.0409044357109184
0.0375300856853075
0.0390703313747305
0.0284205871647431
0.0350935131687347
0.0212118338949764
0.0549547239663799
0.0306654866473386
0.0509674672703345
0.0541427168527046
0.0400489796683423
0.0482982335124001
0.0474144348572396
0.0477013176236155
0.0467183073943658
0.0484470277181594
0.05634552013848
0.0462188223155658
0.0565247399038987
0.0581553915033871
0.0568997642759491
0.0467213731252196
0.0554082148946802
0.0676015835296876
0.0560094052502183
0.0636007288093971
0.0652028999907401
0.0678684582663441
0.0830196892055464
0.0571351665379994
0.0877406164874921
0.0583582765911473
0.0869663787479153
0.0692438730611744
0.0894014043547747
0.0716582347757735
0.0928637298447039
0.0754958448567645
0.0925290780238645
0.0859963037402722
0.0960646501326392
0.0898704107453282
0.100725832076784
0.10255098683245
0.105692060950687
0.0969452983728294
0.11673862558212
0.100471140983019
0.124371353957297
0.11360559263225
0.131272625904392
0.131335618560336
0.113777409780584
0.137472464244589
0.116340802721526
0.129362751779981
0.131702850936105
0.130092142700098
0.141148793410938
0.142479568514472
0.143449306526215
0.149033148073872
0.15285117648468
0.153345167112376
0.154949180100578
0.170496599084113
0.160648610480743
0.170656360621536
0.171733814834921
0.166113788655319
0.183790055747336
0.187982276928126
0.200975007676112
0.183945133455581
0.193633881727524
0.187800551827855
0.201861498210311
0.188735359352264
0.214076185422861
0.192821982853438
0.223165334779733
0.212411433204865
0.227107144374597
0.209865603777988
0.224011870865663
0.235389137718297
0.231604939889278
0.232724717689628
0.241591019917001
0.242750147053646
0.272253237738974
0.244374305674351
0.262448542996738
0.258922245710711
0.266661016396687
0.244101008801591
0.286972889455955
0.256769214851072
0.272055021689799
0.272354066391329
0.294666131565374
0.272815322561751
0.297085196198617
0.289875121094173
0.297194549732421
0.290247082647736
0.312342158057148
0.307561817326737
0.330649924091328
0.310077219251771
0.316230424481984
0.332600805898094
0.324502672828728
0.32643838038873
0.343071455765685
0.333926677881585
0.360427694756752
0.335049039709055
0.373232671963581
0.339495397148836
0.377677275051194
0.356330695497777
0.367963326961338
0.356821693321702
0.37714960351259
0.375127964727953
0.398029314993011
0.386988887850019
0.413902772122205
0.41128994472822
0.41231133750962
0.386593632414113
0.415668608622874
0.410360745670616
0.411351238246111
0.411325811160036
0.443660154917761
0.417698111326702
0.462163826207112
0.445389890596205
0.487932814129523
0.449315222114111
0.4623053328164
0.448149288482948
0.482502158012965
0.466897301169947
0.492956410861229
0.465389854107884
0.482826405429813
0.495347216250939
0.499256875268883
0.469214436199082
0.503505767356071
0.504606335672569
0.525561933302856
0.509034011978688
0.514635105240901
0.513204858075582
0.547619404948262
0.532478746909367
0.557100321744994
0.531214488418555
0.567770762007339
0.544789744532428
0.576667670816332
0.574548594306257
0.578418168458836
0.556035519286438
0.591725504571111
0.581256952377369
0.586150714276522
0.5878291967798
0.615306427166558
0.58203708492186
0.62228811237958
0.593193379185874
0.623191369986963
0.616261374564624
0.64802823049136
0.630399708417223
0.639823603810754
0.625480317778556
0.662817910412425
0.643158312797445
0.666870553689473
0.633874882988365
0.674475828402558
0.668718963914859
0.672096845321775
0.683908168993551
0.703493741911983
0.658581381312566
0.701107565537668
0.670339711955925
0.705509519924218
0.697029061533743
0.715504041454729
0.697491472923056
0.737030458028909
0.706020479090639
0.712910021916888
0.715691478497039
0.736185487453296
0.718888943922871
0.770091564216246
0.737365405955205
0.765904478107928
0.720225421691367
0.794541588322492
0.732682225725566
0.770116141084988
0.757639695335689
0.757172582595671
0.71647481121989
0.779733215338011
0.821649124383898
0.832646654028252
0.753418291177089
0.788769248383859
0.767709282650775
0.809615573018332
0.857419340472273
0.90924349456816
0.86651532715758
0.884266954422987
0.824386291448076
0.881789760456974
0.876567766987402
0.90126356308999
0.883132603142085
0.819477050428287
0.796939747396693
0.904817104439358
0.836266039817919
0.907398495301955
0.901394441280272
0.880926093307428
0.853949908251069
0.88902595170438
0.86738849482172
0.935277913089123
0.869831591139602
0.887113532282551
0.838266661193207
0.889047993947545
0.883641511589288
0.936566677733696
0.941042423162026
0.967677887109634
0.988521224378356
0.967384550745988
0.931329541457617
0.964180388592195
0.930855926304975
1.00212161551202
0.992969598041982
1.00994478521314
0.976961977135225
0.970020205509331
0.959395693767532
1.09307893604658
0.95720442207139
1.00449647674746
0.980307283248735
1.01701513312424
1.03266887426322
1.02336376917982
1.01227051622527
1.07453463089063
1.01037781974828
1.05533072321539
1.06109780173602
1.10614798568637
1.04890650807075
0.999668921284676
0.984191090924119
1.04654139278011
0.980630340950128
1.05201314711416
1.02736431778712
1.02378939625597
1.02755887034683
1.17544126581519
1.07423131983467
1.08277820272243
1.09983401081214
1.13036556492614
1.06487063243453
1.15640200114884
1.05179620959711
1.09299207475157
1.12696353479228
1.1708075020916
1.09590651610689
1.13245709454101
1.09315541302536
1.12305513543942
1.11555723107508
1.17485513158294
1.10681308607905
1.16377714486709
1.08895881600563
1.13717475194631
1.08979765404933
1.13615260726033
1.16241637089902
1.15289526936938
1.10182595862385
1.14539722626785
1.16545477653781
1.21910120811753
1.14612234629885
1.19053794629594
1.13727326211134
1.14406821369389
1.10353936626811
1.12611927773462
1.14616374338695
1.24279251133275
1.21784067038216
1.23149246857303
1.19926871453292
1.23387161925929
1.14452302230269
1.21837082507379
1.17686753312237
1.23258225552491
1.18807577409299
1.24637869250246
1.25117116975703
1.33104433319581
1.23015789923469
1.24389853743273
1.22143187567508
1.25795806067901
1.20900515162067
1.32326089852355
1.28119497616964
1.28300290844934
1.21051337521175
1.31970135859175
1.29778263834384
1.24184918452551
1.27107689425987
1.34068152259497
1.225388874586
1.22147330354769
1.22217118792984
1.30360950160749
1.22677762927112
1.28606913043572
1.24243723811361
1.30175509688951
1.25643211498281
1.20687405132257
1.26110122436443
1.37671180525883
1.25496821199244
1.36815034591327
1.31024927410679
1.35162435526448
1.32235936363434
1.32280265071508
1.2494505080628
1.33834820607653
1.2844636839531
1.35593651397337
1.32371498162095
1.27361106890883
1.21187906478718
1.27130687430026
1.31634674490044
1.33278971494264
1.23389275492585
1.28450466459105
1.2927677004256
1.41176023143061
1.29455347138316
1.25665853438236
1.23674378718104
1.33037700377132
1.32325997610323
1.30743933737901
1.30469601514101
1.31580490776275
1.27383657924516
1.28360109849928
1.39658868754845
1.37061307778658
1.26233903027598
1.33668932667044
1.29928155560753
1.28056174456154
1.25364901955454
1.25951385640358
1.29108391478855
1.36342043703769
1.31774226046382
1.28546186104709
1.28955781582316
1.29021963577745
1.27237734345816
1.35114080925641
1.3095514603877
1.285994255145
1.29287033554781
1.41371258206598
1.25883340648224
1.33256923760831
1.32894371303625
1.27366219591293
1.23287937201587
1.29948315415332
1.33060509034904
1.28746646499819
1.2171684771987
1.27795596983486
1.2809670777131
1.288031653752
1.25095859655976
1.33375782999737
1.32470575117805
1.31527638188658
1.28557005565835
1.36477690990053
1.33321336245354
1.30954993379366
1.2352707692799
1.28851978780153
1.29100649620165
1.30038127205161
1.28860263075407
1.36667568702633
1.31980464301856
1.31423890899736
1.27562555770521
1.29011494235312
1.25869756087368
1.25776850171654
1.24149517794474
1.32452068658176
1.30184828176122
1.30225126764414
1.33150604593353
1.27808038399082
1.22969762452621
1.24049179018471
1.24676136010405
1.27532149696567
1.27255791706008
1.38187458205053
1.25546702017824
1.30556785768035
1.33514631358908
1.28476562630485
1.22405753669573
1.23629501141626
1.25969899233532
1.27944782970345
1.21049711104903
1.21023537718801
1.19924265273352
1.27394188663397
1.24880830870562
1.25721475324244
1.27174522367443
1.30938142673328
1.2790858675938
1.26169383198638
1.24255471547743
1.23399868141391
1.23844615962347
1.28029089774433
1.27104591265907
1.34634165492284
1.23052546331507
1.23532961606682
1.2143416920605
1.28385946291532
1.21355362514352
1.223439955871
1.19631729805958
1.18339840713863
1.19034087061307
1.20372953270748
1.20014470858998
1.21207941165929
1.21825967297273
1.23949567891804
1.22307770742305
1.22342101255299
1.1887680318276
1.24928523251737
1.20713978286714
1.17226155680952
1.16749526534403
1.20676990698515
1.18993083218061
1.14946628560801
1.18820397600082
1.27687186890894
1.18103100898933
1.15898629346728
1.20206208867576
1.18407854527527
1.17003479958974
1.18842300470391
1.13827876243512
1.16527202923237
1.16398719887319
1.17588926441334
1.18868281014854
1.16987092281327
1.14050702469172
1.17113611530161
1.14607457596111
1.16136072077193
1.12934080268974
1.17376606941619
1.13330501261823
1.08701223691904
1.10992342588985
1.13064393182216
1.11446322139012
1.12458031957272
1.07703170392223
1.08032791655022
1.10526384978145
1.1346896778479
1.10134317827639
1.11526156231869
1.06542954627728
1.10075911863257
1.09705700310959
1.07832003967341
1.11269019306125
1.10776835109411
1.02363480711828
1.05610065828036
1.06166800045412
1.05379884130336
1.04275318643866
1.05845802623076
1.04130562668808
1.02832440984701
1.00306677504951
1.02686841753421
1.0234607477151
1.03691464918771
0.985486250791735
1.00518618863724
1.00366042910086
0.996734654487042
0.972973697146522
1.00471530006473
0.959780908299745
0.948142428523099
0.973562182714257
0.984195992687858
0.963519468432853
0.97142057745362
0.96777293818993
0.961986281097464
0.935545630564554
0.949646750820862
0.906194338557077
0.945566461830748
0.925923678094075
0.929434213157779
0.919379359542687
0.908270199700714
0.896199243660896
0.909904981273126
0.898466679466465
0.903956075232332
0.900380866683867
0.904852286637372
0.895799098608382
0.892907204123597
0.877828083957643
0.886162589267244
0.877050881791684
0.845391961944397
0.833328267266614
0.867524213987949
0.85301742950588
0.832430677969202
0.821180926074443
0.845001641323559
0.837256339628313
0.841029336609325
0.817114467168015
0.804027557389336
0.810005124926742
0.830010416030747
0.79386055845795
0.79463358335297
0.789977064927696
0.795631378736575
0.792769146346401
0.779436970043828
0.764474068320309
0.782503498221009
0.757689401878772
0.77025819919106
0.763947213310828
0.761403959428107
0.75731973669084
0.75175010168547
0.737530252191191
0.741181589005434
0.743061245621022
0.734260689641195
0.709149811089425
0.734467227444681
0.723141905550062
0.710489555498761
0.696853632569635
0.687833247937538
0.679618684789639
0.691611580921211
0.688685292058086
0.696744882684283
0.690807039702253
0.698634302154448
0.685016880978565
0.675508123256561
0.65608197576796
0.66692448739214
0.656028903145683
0.671929693667633
0.65412180500827
0.658279502770559
0.648021812884803
0.649915443733873
0.643639856641898
0.642878054359131
0.630029616915478
0.627417947891835
0.613839146456354
0.614766283665002
0.616952873852625
0.615830188125208
0.609819806088797
0.616133864497734
0.608699501707994
0.603624591015774
0.597202322641032
0.604642695844797
0.589121088590099
0.582480975806047
0.573626961460465
0.582140139600125
0.567980222269316
0.571999848417709
0.561847906232773
0.577164123761185
0.563456389128905
0.55767688563287
0.556460618139764
0.550365723915253
0.54624035393117
0.553430194813074
0.536755893415397
0.54373947669041
0.541920188741316
0.532517700277966
0.534490097774939
0.533738312363017
0.527457361184605
0.531582533171345
0.508698597422952
0.510518811600817
0.505373962885035
0.509570925251419
0.503580986113586
0.50540766453946
0.496482811782711
0.509160816863449
0.493228158244844
0.487199477684632
0.481582804985889
0.487798524538979
0.481120970886316
0.482084530156269
0.465435654740065
0.465426988686841
0.47093208233171
0.465888235735785
0.4597069740106
0.463010327707941
0.449915578421587
0.449840209353426
0.449234242515086
0.452271386840522
0.437339539474992
0.443156835022978
0.438553496644503
0.438567373143354
0.435310390450082
0.431632058960947
0.423601702919909
0.42979694205141
0.420347090285534
0.423857198900216
0.425306002960414
0.416847458967465
0.405835218418559
0.413579949208183
0.405060213452138
0.405760012150661
0.399556122883343
0.400910783569778
0.393688664355525
0.392086246078562
0.395269523221468
0.397196353685017
0.385626046204245
0.387958577544013
0.377456752701614
0.383618059670614
0.378334018567029
0.376376532680834
0.36929374303155
0.373111932742188
0.367352348547836
0.364690720241495
0.359539201154972
0.365094420805267
0.356370112713606
0.35706582853096
0.355152463573296
0.361726593273888
0.35513112875858
0.359991525999527
0.352138371409272
0.350458035111226
0.344223656453042
0.341219787409629
0.333357797719614
0.342617132494728
0.33357530783605
0.333365362470937
0.334573371304536
0.334906088164803
0.329415578687437
0.336013825180099
0.329803161106326
0.332288723731287
0.324063074432647
0.332411007797543
0.332097021133319
0.326452412394072
0.325827208665639
0.325903161719926
0.318155110213774
0.320045698570711
0.326601465847036
0.323499993916259
0.314012239286684
0.32073763621851
0.321527693073768
0.320424185267055
0.31638958175688
0.32448116255335
0.317544423852215
0.320815477240663
0.31948055474557
0.330317386919931
0.322466975344763
0.32590810204652
0.322641354197212
0.328086128070185
0.326387678961079
0.320543284583258
0.321968625418023
0.332287779398473
0.33117429794864
0.334366413330016
0.329073830560794
0.332888168389913
0.327709395115613
0.336890368904685
0.334037405585116
0.339824606349048
0.337224199613989
0.33476160925859
0.335388921581543
0.337458562441046
0.339254618205497
0.344037773059913
0.339929728273383
0.349014546235272
0.345446245600685
0.346759918531437
0.341520138175046
0.35335129116765
0.347129821180531
0.349587974343022
0.351516049820999
0.361249558862681
0.353390327840772
0.36073704091266
0.358357583416754
0.364358221385546
0.366270265323939
0.371672942986012
0.372012710033252
0.374628346868941
0.372992830926525
0.372982809326012
0.376165224922907
0.388703121781562
0.382823616635708
0.381421492833603
0.377575125074924
0.392786296462198
0.38532963420092
0.387313613086164
0.381643280760594
0.391307927737345
0.387513672613335
0.389660988464346
0.381589885072474
0.386899535629185
0.386940728013092
0.393034463837677
0.386849228065037
0.383688660421869
0.381063305001392
0.390042210465879
0.38645331111378
0.385471802050536
0.380491002871945
0.385698902856203
0.384952471740521
0.380990978229677
0.378115560674824
0.381995717906953
0.373823565094002
0.379845336392498
0.378582135055284
0.382409401329717
0.374259140618783
0.376382715688373
0.376148905576328
0.379094702611198
0.370436344749909
0.381121779018198
0.375554765624103
0.368786850904024
0.374670161497426
0.376061996114431
0.370047816553669
0.375467181116509
0.368776967758597
0.370910350978087
0.369326366903165
0.372857201289411
0.372271693813259
0.373457300932964
0.374207411957852
0.37552091192736
0.369500300501045
0.372901030348223
0.371896216924866
0.375690929152079
0.372943078561105
0.370717445816276
0.36642263318847
0.371192277928684
0.366239441870707
0.371663526884318
0.364879800610842
0.364756184482339
0.362524197911125
0.363516368180247
0.359711508075751
0.366463786009782
0.359061571688542
0.357645877017803
0.358540420475523
0.355673568215734
0.351097145854451
0.355412424505848
0.347418241965154
0.353686221565953
0.34488777969364
0.345978201489447
0.344329962981237
0.342471952883373
0.331991604409328
0.332814334238517
0.333670424121696
0.32948864934469
0.325074777537395
0.324305753721212
0.31981628943155
0.32256357556118
0.315064574682291
0.309839521336854
0.306155855628537
0.30383128310726
0.298473611829882
0.306369839004147
0.295999454146495
0.293493386970005
0.293692205869264
0.292752999482456
0.285946403844353
0.286706203669088
0.286186135518911
0.28311614990312
0.274151271940892
0.273697592641714
0.267823626581407
0.27203984893239
0.269945537615586
0.265269140100169
0.262496709279943
0.268756433571947
0.260284327550924
0.262434354232626
0.258673975161429
0.258220889069286
0.252456924357257
0.249985004342672
0.247938358909432
0.252552623992505
0.247175373687016
0.245636515681797
0.239645163537327
0.241553890175556
0.236834590512197
0.236898970149315
0.235263354814994
0.238673586663939
0.231423570886405
0.23085633643521
0.230144602474441
0.231356286216265
0.221909061200049
0.227309284466613
0.224090631339585
0.224502238772432
0.224250472884302
0.223030534112706
0.218331104753352
0.219421546393349
0.216222313388141
0.218008843882394
0.212773765721967
0.213008553322924
0.212352719126221
0.213379533880044
0.210248976331665
0.209686443215853
0.205476126373538
0.208810763650127
0.202557888092437
0.206057736127569
0.202266256856376
0.203438664554551
0.200707338255705
0.202594947612082
0.199995118864563
0.200338954626942
0.194764170085058
0.198483004762893
0.195419001211016
0.195343661555176
0.194577420980605
0.197595061303962
0.191930126441429
0.190646190198614
0.188334376063608
0.187067673228916
0.184822732392797
0.189502956741331
0.185480125649641
0.189227922862628
0.184070017348264
0.1854632763305
0.18244611212019
0.187194166741943
0.183191756841824
0.179044178844352
0.181443126381977
0.182579239698981
0.176797700167795
0.178089570422394
0.176462548743524
0.177743712866059
0.17650921045943
0.177226515415369
0.174111064801865
0.177072155135772
0.172675624166568
0.173405064585294
0.170773445563073
0.172793882478662
0.16899632261732
0.172166762188549
0.170119111774908
0.173898437079476
0.168974040318628
0.167948326333377
0.167121069408551
0.170397191946197
0.162635234798044
0.168071306217885
0.167506137849858
0.167027067328692
0.163881043244047
0.164125708126723
0.163714174546283
0.163063189812179
0.161810313550102
0.163949492101491
0.159674706610523
0.163797814936699
0.158647368570961
0.161372537180794
0.160480665382899
0.159803478675656
0.158614157886679
0.160549137252574
0.1564437906167
0.15994777597576
0.156262724730573
0.15886934744598
0.157521605323107
0.156899722848628
0.154323449782225
0.156037493740393
0.155265885688329
0.1584708362249
0.156433818509234
0.158418967788764
0.15278311899089
0.152449275655559
0.151859995183578
0.15333420523508
0.14963059608854
0.151596322568101
0.150292440997416
0.15226445723894
0.149979353293154
0.153812989497724
0.148709640294969
0.151768027981865
0.150949153479473
0.149337764996652
0.148325941198412
0.152846987664309
0.147990954391476
0.145084693149694
0.147759401427262
0.147545530115338
0.141842134899724
0.147734048910974
0.145139992316774
0.148018073934351
0.142881063445325
0.140866866291634
0.143184040898915
0.144269037412806
0.142209729119361
0.140276525883311
0.141638948009368
0.140373478517578
0.134051305089157
0.140074170604151
0.138589501719813
0.13691621434229
0.13600905434868
0.140258749933282
0.134460033870615
0.138772299314563
0.133048857702566
0.133560625556784
0.134885501863148
0.136014487390071
0.133901885424102
0.13308334407746
0.130132757224145
0.13017362720709
0.129320579779858
0.131788119290493
0.128207859683548
0.129566620933529
0.128040980573746
0.12821487561225
0.125828044624154
0.129320978199227
0.128808554970149
0.12954819343052
0.122446356042219
0.123160916616304
0.119826957909506
0.122643169746227
0.124687801186286
0.125806360079164
0.121480661646169
0.121323570439116
0.122857011885458
0.124767760399514
0.116618632755456
0.118273431387069
0.116872327481796
0.117139508736684
0.11394116108033
0.116749436805779
0.11382518332691
0.111843962888159
0.11265617659434
0.116671603595668
0.113478910369411
0.113958749570714
0.110985895366103
0.111158354400771
0.111856457056499
0.109806722637569
0.109141064114822
0.108637547829815
0.106635973699152
0.108567308772934
0.104755786471597
0.10583554122708
0.103015931700736
0.105653106319093
0.102053975611317
0.103845220528907
0.10459319787128
0.105495715779362
0.102144269821578
0.10133406330732
0.100694002667624
0.10571529383695
0.0965695610006211
0.0968559087740524
0.0962474473273289
0.101190378626095
0.0971361611469017
0.0977102514334341
0.100418427039445
0.0966851786853969
0.0936821599130098
0.0961761698319545
0.0948545576966952
0.0964318085818928
0.0930438391880433
0.0937405984948389
0.091674337712365
0.091943057050008
0.0924192350947415
0.0927912966897312
0.0916764225578678
0.091859791661288
0.089006289539411
0.092769310907621
0.0892806881982318
0.0890432294010028
0.0861248648956225
0.09026178286911
0.0893394079270469
0.0890024276264921
0.0874769416218107
0.0891885395565089
0.0863793722667448
0.0854927815985031
0.0864738906955113
0.088866199946192
0.0858459128098812
0.0881309820685375
0.0836412744678701
0.0851552119334507
0.0832157380284168
0.0813331398113801
0.0806085560959397
0.0833262768559838
0.0815806226180691
0.0852902989873223
0.0814076694916894
0.081217859173105
0.0821979597126635
0.0826671667350755
0.0805156212184557
0.0833560756430472
0.0787663392354212
0.079747533568144
0.0811887414851271
0.0817169810542951
0.0787711108134096
0.0825732363541934
0.0816006121998183
0.0788237462192005
0.0791462839195831
0.0793567690040684
0.0776806565822876
0.0815635397717874
0.0773498110319423
0.0799251091433537
0.0752453282443975
0.0770642317398166
0.0742061146329864
0.0756102707438022
0.0742790072511268
0.0767067241534632
0.0756477865199916
0.0769340514862476
0.0750541207973992
0.0766239112900052
0.0754311231292904
0.0759357064243882
0.0741718808388868
0.0757335593686984
0.0729930330985235
0.0758305532275494
0.0756635675781323
0.0784012953293411
0.0719156324384622
0.076357795356294
0.0727058388656341
0.0734619264643945
0.0723859721377712
0.0751885821721527
0.0739261739815864
0.0749755246601651
0.0721033557773394
0.0743321791916488
0.0741261980485477
0.0757771652958221
0.0734338374963887
0.0743117158819031
0.0716776597086584
0.0729429432005301
0.0708545499014804
0.0704282284746163
0.0709989430174185
0.0691777522800001
0.0712819496586778
0.0717236514239452
0.0700857146902889
0.0719073036361659
0.0691985514806247
0.0685814758655334
0.0694928214696911
0.0698451758346334
0.0690102103064634
0.0702801553839402
0.0696759411748711
0.0711915723036966
0.067818967245068
0.0717929254513279
0.0673924956041912
0.0700491624333091
0.067942436594075
0.0686301174674768
0.0678598328262334
0.0675258165218622
0.066193399544173
0.066804073962762
0.0674786596198741
0.0671303245259157
0.0670053873437762
0.0691206181483609
0.0650380850188526
0.0657369089923561
0.0661560405543709
0.0686818488467032
0.0651819786610122
0.0687015489292032
0.0669143676487743
0.0643602878188205
0.0658525306450042
0.0680666735243392
0.0651867700357747
0.0656193990419525
0.0633315718998597
0.0662087603075515
0.0656210217727617
0.0640087735866283
0.0640533907683531
0.0671980416187838
0.0653683095365207
0.0632352282446422
0.062920398025613
0.0643941169046348
0.064008697921527
0.0655377047680992
0.063330500616799
0.0650918072651694
0.0606693340283721
0.0653130850608675
0.0643622269279823
0.0617256097270711
0.0607212613122231
0.0639720568992265
0.0638916790491221
0.0627141144161201
0.0605085510789844
0.0620847424751327
0.061636482936764
0.0603562995113353
0.0614453254998116
0.0612370372120827
0.0574113924332638
0.0590302730701292
0.0578995737632958
0.0592400592790955
0.0599769729024714
0.0619540882121097
0.0579479323186961
0.0565266586999537
0.0575751073822842
0.0604964212661796
0.056724649364883
0.0568950086799287
0.0571396629333562
0.0574863640494078
0.0561491376065324
0.0592114910881659
0.0556115709238592
0.057239917011938
0.0573396149384831
0.0559438857397109
0.058524943297139
0.0588216553336185
0.0531256797030997
0.0581374611986347
0.0557966017169793
0.0556558628176667
0.0547270089314795
0.0554180680672255
0.0539436563134741
0.0557420573153845
0.0535666445048646
0.0550423079927109
0.0500211016556035
0.0537346519670984
0.051113522287387
0.0523895203014736
0.0530980916997666
0.0549705545319772
0.0530912513836243
0.0517977837692214
0.0496753859900461
0.0526538119621291
0.052056942608933
0.0541268649092666
0.0524009796907213
0.0518703873158649
0.0492746293793865
0.051282871492551
0.0511224660238801
0.0515794574455778
0.0480375715151351
0.0512819224346988
0.0497189222618455
0.0506473127746971
0.0501488795365258
0.0524648986547431
0.0490707972625695
0.0499745956869098
0.0499831336215738
0.0508877385860502
0.0487343202732471
0.0502352829166852
0.0481227383543447
0.0482040397009746
0.0455266787553491
0.0505995021770645
0.0496960301605422
0.0494119831920939
0.048949973342952
0.0493219286744077
0.0475367361611499
0.0477704881453351
0.0471708936879848
0.0485924976816735
0.0478636777078492
0.0494401976260168
0.0473840467175215
0.0481839954631665
0.0471744760565025
0.0501564133480309
0.0475119348685882
0.0457594885419879
0.0437475665645043
0.0472928429629006
0.0470451310932264
0.0476802871653909
0.0461054459390451
0.0481735641701894
0.047898100059977
0.0478573193334973
0.0457312926148998
0.0476624882054143
0.0488144949614138
0.0466683952386713
0.0453646776400795
0.0467081637835688
0.0462775290949239
0.0481287653958417
0.0438174383414252
0.0458054453419891
0.0460866131971705
0.0470179207280284
0.0474105443228777
0.0484044415898057
0.0448649348753255
0.0456751686958808
0.0449142910824141
0.0480103429128792
0.0435933416199441
0.0469141553100196
0.0464444885028527
0.0429364082759881
0.0464962193595166
0.0501811019836097
0.0491115633454829
0.0467826710756908
0.0426276488633789
0.0414846128051755
0.0391857514442775
0.043785096988522
0.045995344470943
0.0490616859125361
0.042923934126208
0.038185672265314
0.043676626898667
0.0432864260280303
0.0409485878793221
0.0402116177990045
0.0439078565488458
0.0470453666404514
0.0447596369576353
0.0435600281150616
0.0437183053897076
0.0433513174650625
0.0423346753108445
0.0458349688912053
0.0424370537933901
0.0464150357362221
0.0447291043780427
0.0446209233373549
0.0445284732770649
0.0467662566176372
0.0455654576275259
0.0412423682307478
0.045472807171411
0.0381042163745335
0.0437918814645926
0.0396786482956178
0.0438851517645917
0.0410052153448631
0.0469023637062125
0.0427365121923351
0.0488241387114533
0.0363603050326829
0.0466748602769715
0.0399093478879498
0.0513876607579436
0.0337246583344707
0.0543399083530372
0.0380362192834979
0.0538355469554752
0.0263391371289814
0.0544970131167144
0.0308000360115439
0.0639249323350803
0.030450395454917
0.0588813277589182
0.0247689942839447
0.065492737254019
0.0279083057560823
0.0543665682807021
0.0244009750753077
0.0609206134234516
0.035117507513389
0.0521559021304258
0.041875352845845
0.049433095309848
0.0446486608672755
0.0436786188239123
0.0498201276850353
0.0401288414678862
0.0518317981119572
0.0383705767722336
0.0514948295009105
0.039723626623097
0.0496764911651858
0.0436817451304346
0.0473298991194497
0.0454482881394945
0.0446706441986377
0.0477642915685296
0.0479247694038785
0.0486777087336591
0.0474901263764161
0.0442497373565779
0.048456761858516
0.044124508046499
0.0469866139753947
0.0453614768438852
0.048528848672067
0.0450777648025194
0.0450105486515809
0.0464311033995969
0.0481849457335129
0.0465423519902119
0.0473387547761222
0.0447424616918844
0.0467990143290898
0.0471144186517888
0.0475396756098736
0.0466164828141504
0.0500680575892737
0.0470144444315737
0.0464988362915702
0.0480300862433126
0.0485769011618419
0.0480373434500396
0.0471929986995828
0.0472099482542596
0.0490829378312708
0.047402760079715
0.050088114342337
0.0483520479945339
0.049259782729111
0.0473856854373092
0.0493152257735196
0.04806427068655
0.0488572111056526
0.0477465138692089
0.0508577204807682
0.0461228482612299
0.0500178477044207
0.048388527246269
0.0504071638010049
0.0484918179377962
0.0496332223817343
0.0491465607557335
0.050902985003753
0.0493289486020227
0.051954125978876
0.0502074640054383
0.0505434269743869
0.0498045133683337
0.0505414927742111
0.0490074435224351
0.0513187040001747
0.0497008328356965
0.0512122006725741
0.0500465079746471
0.0535914723972698
0.0517130011088478
0.0528037396004904
0.0497415653399777
0.0524036496651751
0.0500258807441263
0.0531785920031657
0.0507148641069667
0.0515271865974104
0.0496073502590812
0.0508023091823332
0.0516860953889928
0.0514071501097193
0.0527583886599337
0.0543771177043038
0.0504594295564921
0.0532777918222975
0.0520265165528495
0.0522675748759715
0.0522773720000715
0.0528891208594529
0.053800993450532
0.0546122670992561
0.0511046158609117
0.0540032962895732
0.0522609651840549
0.0532879966297089
0.0529205830237386
0.0536758112744432
0.0524390695171772
0.0550492609750099
0.0525548097639409
0.0529868734654776
0.0536713065099869
0.0556817087533279
0.0557731902359597
0.054980696074586
0.0538090505618879
0.0570869698205714
0.0529588325862759
0.0553380976582311
0.0544709419606398
0.0562285609132576
0.0546349510311163
0.0561856810819395
0.0555901253209955
0.0558960858905081
0.0550088590748802
0.0571906609889918
0.0565911198882982
0.0579055204172058
0.0581034807422276
0.0591460225863124
0.0580457634520049
0.0584408302801398
0.0576983274425502
0.0561094411411062
0.0572486149742056
0.0558648593070705
0.0562437104306314
0.0601374264796526
0.0579111798370749
0.0580127781877641
0.0574766113389249
0.0582831541025846
0.0565535102337917
0.0613971765618687
0.0586998688517339
0.0584240432754857
0.0574387800706826
0.0591861205569558
0.0579113612016696
0.0605269584027091
0.0580896978828533
0.0608957312800654
0.0610359541139032
0.0610647249234328
0.0590939204690214
0.0589138923998223
0.0583764626480672
0.0599785752012995
0.0599490320890212
0.0596444886165004
0.0597584550856428
0.0607726860629198
0.0600825998065008
0.0617279563867421
0.0616874182373076
0.060988920554589
0.0602862820780751
0.0615572711455089
0.0623025779653331
0.0606484677172796
0.0599648672617136
0.0621751532105525
0.0615283153472383
0.0618659428302578
0.0620683369466557
0.0619691023687943
0.0613975161690141
0.0632196470601005
0.0603099834246682
0.0622631961769991
0.061642938548873
0.0649279791639304
0.0595073707078498
0.0630621532648749
0.0615419272859745
0.0608907714572302
0.0620302033240306
0.0604732418030905
0.0605172025733422
0.0626111718285778
0.0625439884150352
0.0633113223385381
0.0618740850936575
0.0614317532742664
0.0622429386760668
0.0617926370243734
0.0595640270486347
0.062062940786389
0.061050200703896
0.0610967535563294
0.0607219184831463
0.0602769103296531
0.0629045638813817
0.0612332069814626
0.059062883244166
0.0603469209514777
0.0599808614139132
0.0638397598546957
0.0602745989947967
0.0601612672779932
0.0606332138795618
0.0613945274219678
0.0588966373342065
0.0602955115931468
0.0594175304029265
0.0623429327406655
0.0609608404328486
0.0611824326084766
0.0592557456192484
0.0607382888065023
0.0599861467345847
0.060742165355125
0.0620843808116593
0.0604222065461048
0.0584514841969641
0.0598851210024105
0.0592293143347459
0.0595148682718963
0.0603595783688214
0.0593456740400273
0.057656583350724
0.0611992091923308
0.0592666119842535
0.058159299421657
0.0588111094492011
0.0595196665281163
0.0575905740512287
0.05686632237116
0.0570188144370981
0.0601435089807954
0.0573625129493341
0.05956394434156
0.0582104280776279
0.0570186444855101
0.0583409561023704
0.0582267878017772
0.0561413665153809
0.0572628744468413
0.0578412646115581
0.0591892486903736
0.0580161400314062
0.0589072558965978
0.0569112126722911
0.0576971918368376
0.0570914178145936
0.0583821173217602
0.056629955890114
0.056828807727949
0.0557570578821463
0.05850267113886
0.0572716046991753
0.0580205874245582
0.0565582406276628
0.0572815227638188
0.0575894865628534
0.0574112083347996
0.0559925954539323
0.0573074335180093
0.0554536409324465
0.0564530050391878
0.0558192779643205
0.0563415472663243
0.055682461668167
0.0560455870158399
0.0566686097970494
0.0571771635902557
0.055081560566361
0.0565597308130501
0.0552400190516139
0.0547004977595611
0.0552284099943657
0.0557433188204749
0.0564820573509306
0.0558977862094314
0.0545590342715351
0.0551967670262086
0.0539226749137634
0.0550402308425468
0.0554231585277649
0.0539284341675507
0.0525615078627893
0.0538296335684408
0.0543711678420897
0.0536484748491512
0.052954339819771
0.0531484064611907
0.0527561698366191
0.0541804668185649
0.0505629567379956
0.0533807009581769
0.05352161343786
0.0528390319075863
0.0508026301521785
0.0519158143289762
0.0525065952182561
0.05316506924835
0.0532307930916705
0.0553054839602304
0.0496723678990442
0.0513153405083623
0.0505943781702529
0.0495682090932034
0.0502954195186891
0.0490299974180849
0.0496621238562469
0.0517330508237255
0.0480154326114179
0.048547817141594
0.0489858456126817
0.0478608436366484
0.0477706226804527
0.0502460317985007
0.0466860850970911
0.0498941115434994
0.0480855770063013
0.0479604955352498
0.0468877718971169
0.0493724660861346
0.0456854873371209
0.0476660252898705
0.0472887543611498
0.0461899200960856
0.0455192778187809
0.0496353782715348
0.0457691566702159
0.0472577694718752
0.0443956217618685
0.0450821651021443
0.0441375595070499
0.0466353958659546
0.0440018663860338
0.0468954762971779
0.0438144393038232
0.044384097295536
0.0445735941362382
0.0458117201707979
0.0421445824385881
0.0466201362317677
0.0425023107648443
0.0451482278481563
0.0433147478225039
0.045184944615446
0.0439509806190376
0.0456949469903999
0.0458984420459501
0.043493341234214
0.043284776040328
0.0417733434215977
0.0421386067823845
0.0432766736126044
0.0438279378123699
0.0455947456786066
0.0430086301901894
0.0418399458486336
0.0422703700029523
0.0407354000871982
0.0436117045184252
0.0436388272933612
0.0426476933075947
0.0418053645471949
0.0420676570245856
0.044582608929378
0.0410417110511851
0.0410445464677423
0.0410447024330535
0.0429402036329649
0.043780392309475
0.0424918470100834
0.0431997381039471
0.041152251991741
0.0416288501175388
0.0418010040604273
0.0406945195917169
0.0422850382116198
0.0410021612648094
0.039522577318398
0.039516855619245
0.0384529749508629
0.0387373639836442
0.040389027852407
0.0385732070196817
0.0413595318131191
0.0398887979984662
0.0394728247155242
0.0420825334850923
0.0405299539429858
0.0383993819625978
0.0403402041692107
0.0404074577931597
0.040583073998589
0.0392999204314663
0.0382675256699025
0.0399858177145982
0.0403485221081969
0.0417278038853697
0.042249399527834
0.037709858664162
0.0383626457657331
0.036782838571194
0.0404330898740043
0.0377424565516166
0.0380642175755502
0.0365929923766277
0.0379155000484822
0.0375565770767174
0.0395582726723892
0.0367518138165705
0.0384786944775621
0.0348433119481364
0.038381092309499
0.034858868392334
0.0377850776468568
0.036669777048547
0.0398442252609287
0.0391508077415695
0.0398439859000145
0.038809757599488
0.0382611023629521
0.0354780004627873
0.0390994123330534
0.0341460283081755
0.0435703336894324
0.0346800605745087
0.0407441552766629
0.0349697663296835
0.0392838527554245
0.0341690502000711
0.0384672019633865
0.0366278121999537
0.0385980367707039
0.0363075111433716
0.0362084230344132
0.0355478393820278
0.0339849514619244
0.0361178820475536
0.0393608278893691
0.0369912057360661
0.037104035668921
0.036813737442537
0.03726604936968
0.0355026680208278
0.0402053848623711
0.0359739456645065
0.0388774614394762
0.0356549266114206
0.0388260324503336
0.0361711591542207
0.0366503559295953
0.0384299924986664
0.037702916970026
0.0378504872205599
0.0375486967880418
0.0378127809994837
0.0356549810143782
0.0378972186937329
0.0349703907750937
0.0386314826286845
0.0354337084485994
0.0361115139349987
0.0358441925165484
0.0352331861587131
0.0360104699425216
0.0366511942165766
0.036857545493526
0.0371296454078614
0.0349698013013252
0.0380922838396541
0.0371083007255539
0.0374816266079399
0.0379595915230257
0.0337046890266652
0.0404199671552944
0.0387962625262272
0.0417048475925582
0.0376540065969494
0.0397055632344429
0.0364979051692524
0.0376160762817598
0.0366918140941377
0.0370674768069529
0.0356777739467579
0.0372687744257559
0.039143565162421
0.0346967064797277
0.0366426467463585
0.0368112658084049
0.0373235488396624
0.0380583363370603
0.0366919559927218
0.0362574235221468
0.0386966556218402
0.0368616888962495
0.0390304980654056
0.0350934992500061
0.0389180487708657
0.0356073537782737
0.042694240437536
0.034816549483904
0.0445190447730246
0.0367399809594485
0.0455611101274505
0.0390887139770734
0.0374184300916751
0.0417636836628841
0.0374149280572394
0.0395674684079366
0.0377892126622206
0.0384836561000766
0.0385103507910848
0.0373371316414517
0.0379983615923431
0.0384523778168147
0.038369541311853
0.0401522724691254
0.0398009777937592
0.0431094837209562
0.0429393651407589
0.0359213493093872
0.0397456537854052
0.0425516592415021
0.0426522663082433
0.043329952057656
0.0362443879890179
0.0434971054072369
0.0361715494273531
0.041790213122132
0.0382199869253513
0.0420507172303393
0.0420511989569214
0.0423465331176239
0.0408721774118009
0.0415416920531672
0.0410656638258812
0.0437826831673972
0.0446206191680517
0.0430609698047261
0.0433698734543951
0.045675234447095
0.0406322137249434
0.0449099332636884
0.0410918875604365
0.04223672598971
0.0407446252223946
0.0439252555179387
0.0423205650740172
0.0440457080987937
0.0462034059256444
0.0456138281469366
0.0449384779643201
0.0470460922776887
0.0431141049863191
0.0500426408081574
0.0439585606788379
0.0470768996563826
0.0443793611179178
0.0503847790594458
0.0505528763878244
0.0438211180911975
0.0529203324942172
0.0430174054675641
0.0486677047726603
0.043249259570113
0.0511041231221639
0.0426767791804964
0.0548764885871928
0.041505376682735
0.0506164656538023
0.0452738897924305
0.0535235361291515
0.0473242738044229
0.0503663701785132
0.0478860858949753
0.0518392773475641
0.0455518946227528
0.0523813292194397
0.0512683551775336
0.0556407511485004
0.0614188150971937
0.0478035004101376
0.0557989614581722
0.054019784774639
0.0529740733512232
0.0587502730927366
0.0496816561854282
0.0556862308993055
0.0517146162415853
0.055975275661253
0.0567366880568853
0.0564669103854996
0.0587230189107378
0.0548099396541913
0.0547652898517798
0.0589153440414533
0.0585387077892506
0.063189833815699
0.0550182003142254
0.0603460320987432
0.0561326167461004
0.0660441660906654
0.0493314927477325
0.0710959940640584
0.0583174149605874
0.0700299538387565
0.0678093853670001
0.0648841036767929
0.0692673117720777
0.06666381957889
0.0702664330992234
0.0719328565352941
0.0669577285563453
0.0692595912420089
0.0687401051151952
0.072977960761446
0.0769881607436686
0.0674023978560229
0.0755441443237005
0.0707962037078668
0.0786374857043224
0.0843044264978306
0.0827751006526339
0.080747660011997
0.0839027038695855
0.0797011125975735
0.0914597055667113
0.082576595718779
0.0876956008516192
0.0856637217574733
0.0883246202465516
0.0926725018079444
0.0895345793132258
0.0954805330795586
0.0905000058424424
0.0965191243541991
0.0953193295904754
0.1053066888644
0.110693587323778
0.100484008055012
0.1153139653043
0.0997069097005265
0.116448264776402
0.106092278981334
0.112722563375125
0.112596442490329
0.11546859414485
0.116412143135047
0.118657113531229
0.12231818466718
0.123646294056153
0.130250438302447
0.130823305704324
0.132411985757419
0.139066457348061
0.128953560818483
0.156315419219711
0.134965517665091
0.173743059469969
0.1350230879007
0.164116748648461
0.150086645283683
0.185134263896381
0.173573582085609
0.174888267248218
0.177871172216755
0.186516963186421
0.186231356735255
0.197110649354621
0.197097619984168
0.209303393332589
0.20701710395807
0.215372524408431
0.216816948366177
0.253758948626673
0.239888438227404
0.242219059625532
0.246222842164867
0.25664784528252
0.259707887318866
0.268915241034053
0.266716853017996
0.277941487497796
0.282948907381751
0.309364680520309
0.302353316320739
0.294768762931611
0.312937262716253
0.31523102278319
0.329636743043105
0.325329437291444
0.352728015367229
0.334135136831926
0.348666298209793
0.35083570088985
0.358545476798226
0.367896629924025
0.375483043497715
0.384768797142062
0.374190325676793
0.382749893432741
0.387989098820749
0.389692725106985
0.402228188801656
0.405324777056772
0.404909737924692
0.412396162634204
0.443860664586277
0.456619433687215
0.432085066165787
0.412509994546546
0.419741838624898
0.420524316480027
0.431106892848533
0.44340253720538
0.439379957773643
0.443759175729174
0.427427610243567
0.428169351803013
0.43895471721528
0.428515426816205
0.43426271544566
0.4334713843158
0.437729172981565
0.433208209218035
0.441876507757109
0.424165314119667
0.456380905431065
0.428288767963047
0.423153057639914
0.420763594370966
0.41635197257183
0.418976660357447
0.411327438578707
0.420442685413178
0.41102863652019
0.404737396328486
0.396013978995899
0.400569318021898
0.393321273003024
0.403363553076191
0.376924036929119
0.376006429055404
0.37794058608575
0.364430931988787
0.35991492636582
0.364082589939702
0.373762780097944
0.354911682322052
0.344760963875927
0.344615458819561
0.335919782672135
0.336353983599729
0.326348799474155
0.327933508903743
0.32050213872259
0.322536864254593
0.318100340445029
0.316333318535798
0.306183466253862
0.311058814667297
0.304769194802609
0.305511002875248
0.304067519921706
0.303861333477265
0.296410387981871
0.299482153550192
0.292100906653645
0.289865842335444
0.288132043878804
0.289657237143224
0.289407136198353
0.293271102653633
0.282121893521744
0.282565082930995
0.285866723207237
0.285234635062112
0.276390212189608
0.281648020087902
0.273891505267218
0.27760803856582
0.276540308771581
0.272543896742517
0.269849764620218
0.273876601461333
0.268047416475194
0.267207932203503
0.267366432275331
0.265167083457479
0.272758979264193
0.265608125976288
0.277400002974278
0.261871066363753
0.262905045148487
0.263432846515674
0.255429490399935
0.25742959307103
0.258992476973135
0.26530218460486
0.249152397990546
0.247651047151579
0.246056421727887
0.246280040408608
0.246227904015506
0.250468448833402
0.235782927542723
0.243993746111672
0.236207875378111
0.271457581093882
0.236169176220088
0.24797739281203
0.23108727234804
0.227835672900227
0.232778821445091
0.232522799874343
0.230301807764685
0.219675364714479
0.228932055852988
0.218068329191218
0.225133245640613
0.215701744597341
0.216014153443754
0.213513729369944
0.208789547435194
0.21535426576585
0.20983445221585
0.20422185179079
0.214269287406052
0.212628591817972
0.204691549132252
0.219720992997567
0.203705667296445
0.198805727349779
0.19195725464643
0.193190094378094
0.198845860650101
0.194654675124952
0.195047059386708
0.188068094248185
0.187970257158426
0.182282955267223
0.18598830837916
0.185298364012453
0.18086165375495
0.187699533250499
0.176198144672876
0.182385247435303
0.16958626969356
0.193720971457379
0.173523883439675
0.186665203868577
0.173014919818176
0.173813979516944
0.175399695386929
0.178999164901761
0.173050411661548
0.170720409285309
0.168904923304814
0.166203812455031
0.164604696918839
0.169256860578693
0.15857241948774
0.164535245256263
0.168592828677657
0.168540667116266
0.174676441537345
0.16941735215019
0.158649703209754
0.15765254723038
0.15918900010035
0.165086388783776
0.155572784048915
0.161410911685188
0.153384945694498
0.169136676115599
0.163196631437138
0.171019688532583
0.170274143805013
0.163467334256398
0.167026441406875
0.169388846788279
0.167282253514132
0.1853331977588
0.180378442563757
0.177765887135605
0.176435188146582
0.181525158050668
0.183531433553902
0.183551192060862
0.185587269044981
0.187095064910553
0.194539380065261
0.192392443617321
0.199124681143422
0.202990283823679
0.201106567384218
0.211929756433684
0.217649585101146
0.219332417696615
0.223084647069107
0.222033786610117
0.246152200243746
0.230799472634827
0.246967163047272
0.240784480743393
0.250631765159759
0.253751148621892
0.253149504780704
0.260190804362637
0.261911156052399
0.268319735394012
0.270310714294771
0.264207916544414
0.276133053304767
0.274836430816588
0.284845209796094
0.279652421439683
0.296722372649265
0.294125734176568
0.301223658557695
0.292174211743987
0.287509441790158
0.289491003518932
0.289584981125121
0.293433628744885
0.290670662499229
0.294147810303397
0.298195604157226
0.303209629052613
0.303260082682743
0.295562972678019
0.301574056210471
0.30165228930773
0.303353340039203
0.308580721749396
0.310152879135628
0.312444837295838
0.313195971913407
0.312071944845802
0.323236293711928
0.320278106890191
0.333461559669451
0.317364943925764
0.328103522440326
0.326104118943848
0.329724097268298
0.327264890937137
0.333539890756401
0.337756517216719
0.333433625608429
0.337827362961841
0.341384180990526
0.341470266526256
0.351347220905847
0.347933090235795
0.352130047304524
0.341329759881207
0.355151798226114
0.345361387262489
0.369149294877922
0.353869223552701
0.352075352351141
0.355665669374565
0.354735025341482
0.359304786558809
0.35545030865849
0.356349891871798
0.355653331870156
0.364791980792966
0.36062547897017
0.35865587103587
0.356355097519462
0.355936467719606
0.36002064549683
0.357983614660261
0.357668176161565
0.349288349491158
0.35324493963404
0.353762222335139
0.356578119520858
0.359903789360195
0.357924939037425
0.349512925576047
0.354580408122885
0.354279922371474
0.356435815916167
0.355730978453061
0.35206517336687
0.351320981648953
0.35352871215038
0.3483810131398
0.35305713579618
0.350935922452677
0.362504733695789
0.36109796522679
0.357549523838426
0.364760927359544
0.362086794253268
0.366708308042634
0.36582928732265
0.36727922241631
0.369415746446211
0.375926935505566
0.376076524277976
0.376589510414627
0.37601481203498
0.380299999822419
0.376867569277904
0.379431019746539
0.368960922924497
0.368974138932008
0.368163777260982
0.366045670580936
0.365387975533921
0.35841330466643
0.359750559252981
0.357280857556409
0.350394439469139
0.351294620149863
0.350344728196779
0.349110237457253
0.341195467903693
0.341133177787611
0.331602496028333
0.336008281817149
0.328513071082701
0.327938186126671
0.328208652049374
0.327275832596536
0.320355670544687
0.322769617678839
0.322934623253009
0.319012414061616
0.31732172619227
0.316264006578558
0.315962348409779
0.319713015716535
0.31265740840112
0.317442353725471
0.315770364908104
0.317223690569103
0.314672436955431
0.316815438547636
0.312703178433598
0.319645143402904
0.314262224030634
0.314699178973954
0.314488851168756
0.311673825680384
0.315441673506214
0.311865949267766
0.310381020078779
0.31278133557031
0.313437967782795
0.307369473013191
0.307864254703425
0.307637582332707
0.307549520748289
0.309228486724015
0.309022128243726
0.311140614103319
0.309239615357364
0.3049094697591
0.307613731986398
0.306176375538374
0.305308689060938
0.304990910479728
0.307421276515372
0.303909623474866
0.305023626240374
0.30565645364242
0.306022616096282
0.305281351705554
0.305098408252191
0.302144236001323
0.30083103495342
0.302588621358547
0.304061882261007
0.300648973392556
0.300039258907306
0.300186659316818
0.300173816867297
0.296747078161851
0.295219369549563
0.290853178725121
0.292820459497394
0.289268731814306
0.285949242074907
0.285509362332697
0.28017352766952
0.280876091883146
0.275656589444798
0.274552141681803
0.276086132398157
0.273183343748581
0.269993913907325
0.267260213632433
0.266979960102284
0.267664948474215
0.267624646168409
0.263432056977929
0.262720401067573
0.264684329074854
0.263979094244316
0.264799463173273
0.262963718503783
0.262746778548528
0.263235000103233
0.264404842020686
0.263653566986868
0.266087775826038
0.263829637819609
0.268275415084512
0.266439049748514
0.266805179679562
0.269482074719293
0.267556401950673
0.266684789267413
0.271681178675751
0.272495100221038
0.274085651076912
0.276412925284561
0.276763609344391
0.27764657082834
0.277940472885172
0.279181756692994
0.277865265247592
0.279406764648709
0.281244800026635
0.280411592440317
0.281738885573915
0.281280138951956
0.281820247687946
0.278192719200117
0.279715376400217
0.281152552453071
0.278055317747217
0.27867715661299
0.279124680197652
0.273906175590155
0.274754511921286
0.273630317230879
0.269741613646369
0.271993568743174
0.2725666406109
0.267877957052012
0.268591240501823
0.269668592938887
0.266542417634258
0.262906266137214
0.26310627284727
0.262450614058886
0.263407094414767
0.260052250587957
0.259220172275561
0.260661063560612
0.258224886997941
0.257148661963833
0.256337804003715
0.256600442035702
0.256542620530994
0.25315028752657
0.255271585632022
0.253343233295106
0.253426399643725
0.254586635530053
0.251960298358851
0.252769131176249
0.251144783737701
0.251275114478654
0.248610244766353
0.248287144312103
0.247045732096239
0.245269215344864
0.246460142261046
0.242543657970923
0.240680111131456
0.239480800376467
0.237082064482742
0.234167021846015
0.234668667481088
0.232904578776438
0.228787491847413
0.230728839230873
0.226396654550909
0.226663292653665
0.226996013847721
0.225528682709232
0.225813099532905
0.226303934142949
0.225263547683526
0.226195519168023
0.224788383911981
0.223630318015938
0.226216770979244
0.222269576098074
0.222041991294984
0.221679727526692
0.220091971922858
0.218432650597425
0.216061809358219
0.211593897745738
0.209890942398501
0.206958973664918
0.205136269696004
0.204637331409786
0.202543283276475
0.201423213972848
0.201391694495765
0.202052604903303
0.204517534749286
0.207255400639756
0.208704703995712
0.214250093902369
0.218119805313383
0.224042491572878
0.231548143251954
0.236674793434222
0.24572843652791
0.257437490489859
0.265734076047377
0.275992125361685
0.287316959201559
0.299026251065051
0.308859502310632
0.322190782829104
0.335118890139804
0.345278809818307
0.357405741759566
0.370206982960873
0.384118604877223
0.393141767389627
0.400240139774918
0.411591524442959
0.424247677032672
0.432426618250092
0.443144907844175
0.449347546867695
0.456078916693154
0.461545110060536
0.467937903997812
0.472164662800481
0.478937145254638
0.482170025856098
0.484445447843691
0.48299559098779
0.485471613100036
0.485830415959164
0.489359042721494
0.487971281716873
0.486452600670942
0.487023821663936
0.485897026714226
0.483415152368204
0.483647313464163
0.4847373553638
0.484540543318659
0.487373741705771
0.48533613670012
0.490969252252719
0.492821892288748
0.495722932638967
0.50036227396099
0.50240194372979
0.5061653292175
0.511202271600164
0.513950751456655
0.521494979061091
0.528320913053712
0.533326297843016
0.53912899089084
0.549567902371758
0.557095936223994
0.562176713533079
0.576721701123824
0.583114602801911
0.593473214025578
0.603334889803326
0.619636528488892
0.619237232938457
0.625584121097071
0.625333101267808
0.631318109843184
0.634051896444882
0.634300856816451
0.636021849033367
0.630983178980355
0.62595814351733
0.62551818627722
0.621177033015761
0.613785826589204
0.609681468756136
0.60321568775785
0.60654312087897
0.60648493091875
0.613416722914629
0.623241422334718
0.627338885828352
0.634315566392005
0.644429930923996
0.660739367416741
0.669378305288031
0.681879845504899
0.689855423281783
0.705871805431082
0.714177748176544
0.722250663497454
0.738892838843045
0.749145034750009
0.758031927015739
0.761595712066005
0.775591508689832
0.787369397837074
0.800653814595843
0.815843978090727
0.819220231626553
0.845459390984917
0.849611410887364
0.874581752922189
0.887091943189299
0.898100630148645
0.916205533677175
0.923814616968623
0.945101403579172
0.970034240398832
0.96791796940964
0.969784160770354
1.00228139902386
1.0185113429535
1.01128522100168
1.02193342058498
1.02119771089835
1.0323826427901
1.02545972936475
1.03260075562285
1.03818114939277
1.03765690873927
1.0165458586133
1.0132734533872
1.00406362071357
0.984410021950537
0.980060218776024
0.979468208058391
0.955850900192459
0.966716573360275
0.962509244263114
0.951760859562324
0.944765754747677
0.956235479480225
0.960827445174273
0.967583562127187
0.975049809106425
0.984086952635098
0.975576774883504
0.999745644716091
1.00043137724673
1.01527658583169
1.0115599963819
1.02437152044819
1.02872127590722
1.02337133660522
1.04784778265891
1.05239121209242
1.04555982500909
1.06229924919231
1.06652038911637
1.06567138071546
1.04956834360541
1.07940585807099
1.05665348600582
1.03917436719058
1.05839799646566
1.05739953367845
1.05343127082052
1.05069163725957
1.05481209488124
1.04314687238954
1.04672355088901
1.03402442987544
1.02714898095595
1.02541332326398
1.00328939897786
0.992963693559277
0.982371156506527
0.998065351417545
0.982584873739562
0.967100910271494
0.951925534229259
0.94263051218452
0.923137553116434
0.913899832278893
0.878735060220094
0.854547211664865
0.82182823957197
0.793009619108659
0.773581657226324
0.738884159648445
0.715781384914642
0.674521840068832
0.643893361984585
0.621292751486704
0.596870015739276
0.574369962490224
0.560825747223758
0.541383908885943
0.534995764298431
0.533625278836674
0.526622734360738
0.525083811403934
0.519515948407303
0.524003538276647
0.5163662939086
0.513813334867186
0.511505637419155
0.507761268207195
0.496973910181368
0.490105136876905
0.486131084335329
0.48070321348128
0.470121113683094
0.460237109554145
0.452044365102838
0.442449996304377
0.434314318633218
0.420825623423415
0.403941423739816
0.394303975058884
0.380780191906043
0.372682912728249
0.356278762921916
0.343260339864882
0.326404528756084
0.315311514663767
0.303580262289878
0.29162908651144
0.277341820229428
0.266613061666187
0.259858408907146
0.251137060736039
0.243011101320965
0.235082260812877
0.226456455989527
0.223805472877411
0.21590736385938
0.214380381268514
0.207727128440139
0.201962780159965
0.198899643659687
0.201635283439591
0.201103850371974
0.196458447964384
0.197610703976856
0.197253816717946
0.193830182023441
0.197010948340261
0.193937306926501
0.196881906849538
0.199451549508607
0.199105075915965
0.19537366614951
0.202393959127664
0.20086269464912
0.202594644055427
0.207169184685695
0.210349490980352
0.206044896387858
0.208286338054325
0.209001017834886
0.207577375486223
0.207105351914591
0.206708207275177
0.205246708137722
0.209308997477203
0.20223712778838
0.200197152358571
0.20254902133438
0.203527409302843
0.203227896924897
0.200813420378508
0.199247985309606
0.201743052407158
0.204994484223187
0.202556460620437
0.202781140550972
0.206737074931287
0.210104439777751
0.213435352116329
0.211232777668548
0.214224772383212
0.219874311265339
0.220908465426796
0.218741500190364
0.22240060865237
0.223209980075486
0.228564646570435
0.223900731741278
0.228403237363676
0.228858413106057
0.228056137259583
0.235271090855432
0.232873497332497
0.230841031758979
0.233544676062138
0.232281889420862
0.23510262529707
0.236341251659963
0.23627631117774
0.241449135640896
0.243828628853706
0.247411367619308
0.250650790103982
0.254813406210366
0.259668652519206
0.265811996832301
0.272382961780592
0.27467649696647
0.286087275915201
0.291722964736952
0.295426270704697
0.30279656602205
0.305644428429272
0.315542174745817
0.323562833476875
0.318540105446245
0.318833712552031
0.314675305959409
0.315815630035632
0.305378643848273
0.304230640074368
0.296040914071405
0.298119522821879
0.295472405113472
0.29342630774463
0.289094806627463
0.29747310517614
0.291831302626199
0.297530616328147
0.29051164439331
0.29550287098876
0.297216570703368
0.302621467416427
0.299905153705898
0.293171305105605
0.300285340665864
0.294057262559926
0.29725329136755
0.294090295256499
0.29066071042951
0.291400353036084
0.283472217485121
0.28382204043795
0.286604794839575
0.285590653664488
0.286081765947233
0.276757944055964
0.282005033017018
0.288760544843067
0.282246058024072
0.280735542686816
0.280302514309608
0.287608643461707
0.280267663578634
0.287046270503786
0.28650865037674
0.284696357567662
0.278277853872919
0.285691701298548
0.279371209937656
0.284318688166629
0.279135458055362
0.293540688621029
0.286187491694727
0.295823833959669
0.28583074222622
0.283758948967632
0.285553290003215
0.296649853657612
0.285288771566783
0.296807555927588
0.284731909253702
0.289517348216596
0.28931902290805
0.28206800798657
0.289955307770901
0.294545320816216
0.295253516758469
0.294269650560661
0.287161202882731
0.304437512873417
0.29890273757904
0.292944923847275
0.294282028784505
0.305507674602288
0.292671280048184
0.303467227921546
0.297449396887624
0.301196710030816
0.306223204336328
0.303300907342847
0.307090571493483
0.304317351118704
0.304937748255653
0.312654692064564
0.308273856749816
0.32659310637608
0.324162547605195
0.323024956694287
0.323008707736001
0.323397230285822
0.318983654434139
0.33332586387008
0.322433132095069
0.338357643002414
0.324633602260704
0.341953559505719
0.341885177694308
0.353358525529818
0.349022047047179
0.355908054651807
0.352684488675314
0.375482824182544
0.364289974658372
0.365462456844281
0.3737055586403
0.377996767691605
0.376461874570887
0.389892690369955
0.380479178325316
0.407480249710013
0.417555889538459
0.409567192839448
0.422153856068175
0.435997024645732
0.459104618234144
0.4631531912584
0.458214568841573
0.463154987313155
0.466903773560683
0.470188555216483
0.458856966841686
0.479483949950907
0.481621613926511
0.498335759148813
0.454048641833366
0.47177773924847
0.447636734581437
0.455527439850855
0.451617866141044
0.463581921065993
0.461314084974278
0.466912563851198
0.457993240535901
0.462366933774113
0.444192040092608
0.470599147972956
0.466182281484928
0.466508973803452
0.46722828880951
0.478654175503678
0.468286096519733
0.466497099262825
0.451801339389056
0.45889317242454
0.476585790087768
0.449168951770707
0.454435500335763
0.461887992736451
0.450155253557606
0.478788427238505
0.457753223757512
0.462609440573936
0.441465466904682
0.451845696190183
0.444344323358312
0.466325406132518
0.445224399842251
0.460586007554666
0.439620266137528
0.449985775770443
0.453992925873292
0.463198027491175
0.446819867650301
0.462722119181373
0.463415682445349
0.479111847664426
0.444290982548116
0.497346341646739
0.462787812141152
0.484200067387517
0.449135755717648
0.479702832107356
0.462980233380224
0.495720807149636
0.484273082246811
0.506798770947586
0.442227012074939
0.469845992629812
0.455470255747228
0.480277763272509
0.477475755448029
0.534160013713015
0.520092701112561
0.539967408750999
0.503806875815798
0.492368431045723
0.524305125664069
0.538537934739299
0.544124189869922
0.516360770404732
0.518695969081944
0.527706270939104
0.497225348366754
0.510455953520234
0.476021231352895
0.563525840243666
0.491502123100901
0.539361679180397
0.525594070948721
0.577858600775831
0.595486327961868
0.552835244280508
0.56092230958282
0.6089885302232
0.577494397447452
0.536995010847157
0.545712956969761
0.599657117365268
0.560447521286506
0.551799370742267
0.626962716660773
0.536970428015221
0.553418966401272
0.64772403480978
0.610779602546169
0.58110676263747
0.614191723095681
0.516731527072643
0.519915187753492
0.558446787556407
0.568951818546107
0.617894319420334
0.522214758770577
0.704709647934527
0.576399779772523
0.620326454471851
0.500120525555537
0.61649692514671
0.645782952002393
0.535695016779621
0.62397027515828
0.538071376490478
0.531703068784608
0.579852700217063
0.51351077187483
0.665692636752255
0.494366487122837
0.586744007824813
0.498947410036384
0.462350905786628
0.525192076970624
0.607257794758455
0.471164844021472
0.685656284352415
0.514904125500224
0.528013763795637
0.778290872277527
0.641937890351802
0.522932316023318
0.61682229322533
0.514891100692732
0.952959077204782
0.725189958927395
0.57976402211123
0.677477695752118
1.19718251148131
0.308703660551417
0.582352130880922
0.429483255479905
0.796257466937191
0.528361167125522
0.510519680332929
0.606644121462718
0.705941884518057
0.504563126611922
0.504354017721191
