3596
4000.36533379555
650.420452594757
1
2
2
0.018328157466331
0.0377981312178158
0.0207644419731948
0.036227663135082
0.0135730650845433
0.0285585161416322
0.0147749854185646
0.0284164833367189
0.0104228553556454
0.0327388911301432
0.0157069627477749
0.0312947825309218
0.020597948203456
0.0443200354103122
0.013404470697745
0.0358426094426331
0.0151486292583903
0.0385814914546186
0.0227571567454424
0.0358652294537685
0.0137123873968305
0.0297759331436663
0.0133487448184646
0.0320903196669601
0.0154877849574607
0.0343234718733333
0.0205868810780741
0.0334406645371122
0.0146504619556388
0.0255694545825637
0.0212303829997921
0.0310315001868885
0.0183779957791095
0.0352156678654115
0.0144620565689428
0.0328550934395379
0.0214358326462882
0.0351270138213944
0.0208614969934677
0.0308348292903765
0.0175068725168632
0.0333698009487865
0.0194402952570459
0.029784630068642
0.0173915258400413
0.0312290650138914
0.022542479634878
0.0298097335551641
0.0231934123487896
0.0288626212421995
0.0223424140848199
0.0301737778984795
0.0205714225002292
0.0359805517046549
0.0144845598273063
0.0408762712920582
0.0175043024632082
0.0309545829543493
0.0183540955059518
0.0238447954083644
0.0200641883174016
0.036398361137316
0.0137806143339282
0.0337891195246039
0.012544710787405
0.0313623051899509
0.0120781697527807
0.0369167607108475
0.0151756563417876
0.0320839522920299
0.00962399146276132
0.0365012069692038
0.0179695276746961
0.0289643550144326
0.0157002814970947
0.0388946392871319
0.0222622641731102
0.0302126387314521
0.011332453541246
0.0354014853618211
0.0261004795410941
0.0369971698702008
0.0166935805812956
0.030594924884432
0.0191319089044727
0.0415062246795547
0.00450708008424711
0.0368648145177998
0.027203338660484
0.0379776198126827
0.0147946989581473
0.032945054968378
0.00977731530603093
0.0233157730680795
0.0132168159413198
0.0311638968837009
0.0106950453435749
0.0371017944977286
0.0160812168360951
0.0229726682818392
0.0213723712360957
0.0356365537600607
0.0321223240765012
-0.00521847995872021
0.030293257871313
0.0357399805036909
0.00975982933763677
0.0579208149827871
0.00934135581516028
0.034513852023306
0.00839405004130997
0.0321400235116201
0.00848473303164893
0.0457003034207432
0.00534777732576433
0.0375407532815131
0.0197810870607333
0.0272701587580455
0.0143131467069719
0.0352680656691727
0.00434595488053517
0.0444665635868088
0.0322393985874955
0.0247227302842274
0.0174916806692095
0.0252484548555223
0.00770092602093037
0.0399472595311681
0.024222654079581
0.0297153493970207
0.0177848423152336
0.0269088757010496
0.0144614738694938
0.0174003865939991
0.0311726547140287
0.0242874502530262
0.0278084254257842
0.0188597040868163
0.0145824118222263
0.0513454324892344
0.0216813266745433
0.0285232560712628
0.0106709151828041
0.0309605901273936
0.024693735990883
0.0274942418513901
0.00316188090495772
0.0368370471069101
0.0124532502106281
0.0224199508785081
0.0191740747524217
0.0276754895391411
0.0161012457384413
0.0356749620045653
-0.00466997272579855
0.0249089953710623
0.0266485765803646
0.0167121772573571
0.04795109671709
0.0135702322045787
0.0305213846636779
0.0176317341873051
0.0269368536630029
0.0179524787403461
0.0319649433546011
0.0243203196733586
0.0168978730328317
0.0367073209505119
0.0141866052570369
0.0264321045292113
0.00814097272170164
0.0284207185423913
-0.00959961931786204
0.0511168452756554
0.0180124958235783
0.0272852822402061
0.0332572286609007
0.0321277249859338
0.0132320912296396
0.0271856494153512
0.0330488615383875
0.022505391577885
0.0285470026536803
0.0221936994802833
0.0174657692955284
0.0354864940192716
0.0275705358107736
0.0275662798354121
0.0241038865967208
0.0101127207787587
0.0145426322101355
0.0406311936915953
0.0324708793620583
0.0169852435113032
0.0313345609185264
0.00661113707113578
0.030542784662615
0.0363344632706908
0.021947934526662
0.0323760257974187
0.024306211291503
0.0271442246662941
0.0182182849632807
0.0228745481351546
0.0217006345186423
0.0198891724481558
0.0404297588587089
0.031248016182929
0.0223721740413023
0.0223917813816265
0.0203983513390482
0.0181516467451632
0.0403399960158322
0.0376331070150627
0.0216737343978102
0.0277017197108075
0.0165091041926256
0.0382168240613427
0.0252243140982928
0.0326194184200423
0.025008391850659
0.0325490051367636
0.0234559672323168
0.0270987043380476
0.0164076250303903
0.0289354497081738
0.0181967268603369
0.0303606706977473
0.0218878826528098
0.0277551126227226
0.0304075841650683
0.0316984186670154
0.0140434322068558
0.0331630892623003
0.0137683825243342
0.0275249995383478
0.0296073092567275
0.0246235595273802
0.0219135589202992
0.0304005496555582
0.0235696873345641
0.0245158430251829
0.0296098321181168
0.0282347418242285
0.0256956543837107
0.0119276422205219
0.0454275720299581
0.030134060904478
0.0323849227008233
0.0204261703654951
0.0280722108470425
0.0342040511627217
0.02399905802884
0.0342448855464263
0.035426375696835
0.0337835346880564
0.0176246804614003
0.0568711237461702
0.0315815969508261
0.0294926003306121
0.0286023972431781
0.0398434986888788
0.0231986228691579
0.0355278488450481
-0.00502705091918569
0.0761715846356868
0.0299208030146734
0.0266891103894412
0.0489755636539891
0.0378994824800691
0.0231153911460782
0.0387000958621123
-0.00548948758732972
0.0786327917607548
0.0445358582061197
0.052590946484406
0.0199458683481373
0.0530618405082759
0.0201389688960633
0.0458690529682024
0.0329476697878664
0.0397236635537455
0.0467440733441108
0.0307701208615589
0.0573177962644683
0.0260335479359797
0.0462175804047539
0.0443422887471258
0.0357830285979896
0.0382410817513227
0.0333991267391194
0.0323846158046253
0.0344928500367185
0.0479517542658807
0.0324118078117851
0.05045751220127
0.0274550943152689
0.0522215830863198
0.0333036519874482
0.0547556000850481
0.0284467143376371
0.0561105214371906
0.0369249959321563
0.0529385232487807
0.033492257836787
0.0543227540888094
0.034683620233537
0.0363768598310311
0.0464401560308176
0.0504925059426742
0.0356875804981948
0.0648654279146256
0.0360922784258894
0.0532709413543159
0.0399227355724617
0.055000930761352
0.0397178232300517
0.0597773933578979
0.0387146373665361
0.0749064916214852
0.0372437601370401
0.0529607338902882
0.0462389502868019
0.0570998475749631
0.0482206019931882
0.0558434363192152
0.0486510184703973
0.0598066875876361
0.0525980497692995
0.0545697788531871
0.0418132532739748
0.0790705746778443
0.0359687064606767
0.0776747250838473
0.0583052003631948
0.058767285963368
0.0602117994110158
0.0645181390953276
0.0607651404236314
0.0631510166441826
0.065810449156006
0.0724339493649252
0.0583167229764546
0.0803189418627193
0.0678136189953643
0.0708071423494385
0.0613073210057229
0.0864549472850763
0.0844812702174645
0.077419610154553
0.0786795266550435
0.0741169867194052
0.0920435370252297
0.0902921890558867
0.0684167921359137
0.107399680896888
0.065534292190772
0.0978448695954179
0.0717775640054004
0.100294745990337
0.077550535142331
0.103511804198044
0.0805696378420646
0.102358388872955
0.0888340178586313
0.105217733726966
0.0914414614428786
0.105532436317871
0.120116481740394
0.119135220639139
0.0939156337320427
0.121530201520473
0.0967840867673216
0.135830568542054
0.104460107701767
0.136773716330859
0.129038385514688
0.12652167860593
0.139225672927793
0.116740983582862
0.133828891177326
0.128154994835993
0.127441975263706
0.142751630501879
0.141482928715512
0.141108712396045
0.133042634621001
0.148097516333271
0.141393000703253
0.154168961373796
0.156926799513977
0.150941969871325
0.169494897023953
0.153825637550467
0.1657853446893
0.157650091594628
0.165587451699331
0.192864222498984
0.195125953562028
0.173612316874105
0.181507087589952
0.18202222261448
0.172413079187753
0.206037491790039
0.180018865790092
0.205404380881728
0.176008294608084
0.214723511919038
0.190332453815205
0.217214401581317
0.209836345682774
0.203978921994767
0.213081109774748
0.218074179000044
0.223820529482158
0.248053970313224
0.216435860064136
0.232665029114599
0.231577121098576
0.241390846107991
0.221239582634056
0.267801065191612
0.223726902542083
0.259703874397544
0.231248011395666
0.262167512904301
0.23769953282955
0.266279841932543
0.256156288692397
0.270553953956002
0.261467073106562
0.29126810882413
0.260205124439099
0.303296664781132
0.276664634687538
0.285833833311516
0.291972376414591
0.2900074881756
0.299173173354569
0.286391988351394
0.291878906870563
0.324911384715222
0.301796074126975
0.351733274306775
0.287809825242957
0.31910456471541
0.321654364668596
0.346124809643254
0.30932234290738
0.333814194328399
0.330607013468301
0.352624482342627
0.31978985332338
0.367083632095493
0.332530759359566
0.376683659686328
0.348456536730604
0.360527525635774
0.363737175628859
0.363027913760039
0.35823752985665
0.394246954473801
0.384654239399038
0.409439166700181
0.351065287817156
0.423507425541851
0.380985386839988
0.420396706374976
0.378737126444945
0.418605169553978
0.396161232794735
0.426803314706074
0.40970858597925
0.419122549014545
0.419734722294108
0.45965280355097
0.405051267414683
0.437411092298635
0.433897758268142
0.464072817427497
0.439925340906346
0.470753200455489
0.438044025583909
0.479907111529184
0.442460148264076
0.493003828987157
0.452712849096143
0.500757129971843
0.468030461995406
0.500871562630005
0.487901965120686
0.519876986141438
0.4682120336096
0.519654926173059
0.485777184554579
0.518765570201236
0.501272878587234
0.551405228732688
0.516367109957343
0.539224675005008
0.502102656146302
0.532285177895708
0.530947715133574
0.568423542452841
0.544589022367671
0.593925257413272
0.528613840556831
0.581795906971321
0.561993431058955
0.568775018931395
0.544649246456761
0.601576045071181
0.569842571304276
0.624276175939925
0.543171608255787
0.629882936277188
0.587657853280438
0.608380219885071
0.590429219707642
0.621132010644214
0.578853326422639
0.616106319488535
0.583217262845769
0.693473148330626
0.59726602953489
0.678287875979052
0.647147761577833
0.664279654090535
0.631087810560824
0.653678185385452
0.62354245352819
0.665176107053802
0.633570285928718
0.675438168239381
0.639338186116991
0.713745688568939
0.643394383806244
0.655385782889495
0.671238580262038
0.722321711002876
0.665488532721314
0.689493067497561
0.662051673198118
0.762990992447168
0.699892162843299
0.727688564663234
0.674867049372504
0.725920141009021
0.715259792393192
0.758289567948264
0.700849273940971
0.764177467057483
0.697256541043015
0.813077215349775
0.716707740985052
0.774732409334641
0.691374855010065
0.790881642726543
0.736141443607685
0.810646778319026
0.761318811385473
0.80622423382563
0.792604165066407
0.844868456424496
0.755670704720023
0.786899490253854
0.761530763213677
0.818278950441148
0.774221929786479
0.812101676357972
0.784863105059006
0.823896835506225
0.83102106406068
0.858753734214809
0.809285601919617
0.850044335428294
0.810627197703638
0.848827957972451
0.818436613403091
0.918567001943411
0.823432099953063
0.875803089684811
0.823867586721896
0.885286002812839
0.825872110046498
0.863176706612094
0.842024795682032
0.895338795781076
0.845715579817017
0.938875323779844
0.865086916454741
0.927691131331353
0.859779686081534
0.96662911573259
0.915218017051486
1.00207560573812
0.902479915504406
0.965018100061545
0.878951636189911
0.922417793800587
0.85319302153073
0.934584464979142
0.877102606494914
0.935235853716593
0.897017993618365
0.984418877038429
0.896664946327606
0.976249337281261
0.908732153118352
0.978332841571167
0.905118284677962
1.01872202337363
0.954670213471463
1.01669876114915
0.911845282200753
0.98665821984842
0.923552791198352
1.07871300288798
0.975679803507934
0.989289939320933
0.950143479410198
1.04247499995289
1.02355698804077
1.07489917528142
0.969731883890626
1.00437087098308
1.02174262009229
1.07657224846817
0.982830054738704
1.01603302020219
0.986398557571928
1.06540968591883
0.958525020985479
1.03674747300335
1.03241007758034
1.13201299808893
1.01346537212692
1.07477796752104
1.04821328517451
1.09822831537247
0.978633645326657
1.06579567938211
1.01193435143696
1.07656710355565
1.04128952249351
1.04252678488515
1.07304725600571
1.15126093117169
1.05342784380914
1.0885416359786
1.06086042391097
1.1069122850636
1.04293855128422
1.14160771458291
1.09866573843195
1.16304725749022
1.08728111704275
1.21538298499091
1.11825062254141
1.1079589185405
1.08086782150036
1.16364499017534
1.11803219315857
1.21260581827719
1.06176037381523
1.13040556560949
1.09465663276189
1.1558200468327
1.06195099582143
1.13598820444406
1.13952548649779
1.17363757194713
1.17571353004576
1.11500927966722
1.02121984782794
1.12619037789975
1.13405147716484
1.2047062271537
1.10119689183595
1.15832866649278
1.08812398408957
1.23519639369494
1.17249815962345
1.18311168215689
1.10629054839568
1.18379327308289
1.14899299979735
1.22450455205987
1.08658831242257
1.23462493967577
1.15871445065308
1.17751279646423
1.06430121547333
1.20305087602239
1.124257874218
1.17481803899765
1.08751337299714
1.17809428221204
1.13058882265669
1.21578371501309
1.13235219726764
1.21109528754984
1.14482264439885
1.19910328106287
1.17670413802939
1.26550767295587
1.12329028605727
1.18793612503402
1.13690676786627
1.17078956026411
1.18042202851864
1.20651038324171
1.14938734424053
1.22886173274989
1.17071637498251
1.18778347043037
1.10377272182115
1.20818901133472
1.08708064977493
1.19612154507329
1.1398690257625
1.17433654125028
1.13604456198926
1.19121801491441
1.11647847975567
1.27687163545124
1.1711140661849
1.21481268103011
1.16364039583552
1.17743355740343
1.1504696327478
1.18960616548383
1.17500854749431
1.20000203693165
1.12757198099739
1.21705277106112
1.11323578662665
1.20846792492941
1.18210086433951
1.19694224496706
1.15955426827047
1.20454087320871
1.11030511536234
1.17758597432668
1.07696741670221
1.15090581749085
1.11339082332307
1.26261210091082
1.19619745543764
1.25522185125952
1.18437577790469
1.24111369158644
1.17362252493711
1.17169179123794
1.11425969357449
1.1797059855376
1.14434126311586
1.17349467069359
1.16709882809447
1.20166412049521
1.17627578842108
1.20391481524781
1.14023285664222
1.24896220401298
1.18233529137854
1.22348965223229
1.11082399656453
1.22625225901501
1.14901256066377
1.24924452097509
1.20328381287052
1.22147730287798
1.19090146770946
1.197477312716
1.11995368571906
1.19042497130272
1.11490409121511
1.14139936208583
1.16232056599722
1.22674276868639
1.12298971785942
1.16482798213453
1.15738907607654
1.22029436579357
1.12948432695067
1.18280756780169
1.16844670843418
1.22975395351752
1.16745623047729
1.16163948598135
1.14363004601918
1.16318209585902
1.13505093791901
1.21068614626665
1.15321598298225
1.18015910404
1.16420299902795
1.16477634675813
1.10231017695262
1.20855192175201
1.10732825086551
1.19260950717636
1.15574313820824
1.15266720507659
1.13290949896595
1.1783707300379
1.10619587188028
1.11438936536791
1.07691402931989
1.1985870868539
1.10992308875697
1.15350018284469
1.07501424441604
1.17055963431737
1.15989303177452
1.14559667251917
1.15275299593488
1.19675918620215
1.10925149458741
1.13783768275008
1.05913498580277
1.15258662962303
1.10401064821211
1.14189176435088
1.12767642452585
1.15738266476813
1.05217047468902
1.12030579068736
1.11016512302885
1.13965952685711
1.10515644313359
1.15990119136026
1.07591981263272
1.14602266478124
1.07007257771244
1.11170785178379
1.12161478410626
1.15646447678433
1.06808791044022
1.07123275338469
1.05410621577293
1.09515205236415
1.08319546524301
1.09623038756138
1.01764993654096
1.05851301079014
1.03250466808392
1.13219587722857
1.09095682653747
1.08360564866679
1.06661946315213
1.072722221039
1.05753808015445
1.12091481867449
1.04328544552066
1.04766407964877
1.0217521725284
1.09156229469019
1.03580225017181
1.05549602857017
1.02859134879224
1.04647037675161
1.00473025288342
1.0227093534625
0.973778666264241
1.02812041514357
0.960819374314935
1.00527681224882
1.00000483230814
1.00848279734218
0.982428646391624
1.00857366580924
0.950372589796727
0.984319192469195
0.966352548358667
0.980382881205037
0.964520614287621
0.987148233825626
0.964351489454708
0.987073229996996
0.962324150866732
0.984572635663667
0.949154188070508
0.972686917519838
0.947341262374053
0.954352298640956
0.924494547593279
0.944778347776535
0.909788100863105
0.935955254413008
0.901633665414577
0.938967692625354
0.90666357931031
0.931102662700037
0.909792644538494
0.905339537949103
0.884418131960008
0.940841118921887
0.863158027290326
0.891484489761719
0.874725919181251
0.875672150159835
0.872299204925055
0.866020276040893
0.840738251632391
0.879682470529812
0.860326079628944
0.874807301197822
0.819484780632016
0.837807391073726
0.856407257144953
0.846118616509222
0.838909392163198
0.851577114757486
0.80888626578136
0.840354938830281
0.809611244582885
0.818873192912886
0.79449516187075
0.820809989375877
0.786178313339898
0.802022917162678
0.787195799204531
0.806317413940399
0.787697765794699
0.80638735625202
0.769895073481293
0.795603548799941
0.765269406026232
0.773543339391621
0.76509997363559
0.770694365837696
0.754002176033292
0.75526410392975
0.744879333954838
0.767531725238566
0.734059568357719
0.757331305495083
0.729319575511046
0.7453832495545
0.717525734200723
0.738859639210918
0.713110780510509
0.720209039952303
0.707370359776764
0.727076202655951
0.717022136437587
0.707305503275343
0.694624217016043
0.696742814760578
0.678284542982447
0.689446458247128
0.665153745232588
0.691484227871721
0.670201001665871
0.68079915802495
0.663082219169476
0.679729855302721
0.654234593313984
0.684384191912767
0.643778770499079
0.660415062123917
0.653822376918428
0.662644672041165
0.637095994151035
0.658224789852195
0.649829432771225
0.639509340000813
0.626468946070509
0.638208691693037
0.619250426248541
0.638430399757042
0.626254176049081
0.625776059966843
0.609327254504161
0.613212501163028
0.593876155184785
0.606558238135944
0.593634619525625
0.610509215848973
0.602935103937261
0.601046109914365
0.574810556998258
0.590705192046449
0.575988902668017
0.592632180025643
0.568970348974666
0.580280351153105
0.564425110590001
0.577038465193384
0.559762636383142
0.5731041457024
0.564844064260868
0.559732802390044
0.546767870342356
0.562711828279251
0.547810496032828
0.550349843765545
0.538805641998586
0.54282538046903
0.53710872566802
0.543135815621275
0.527740822999225
0.545009802437933
0.52069172044303
0.530588864619798
0.525598620227407
0.533256793402225
0.516043830855961
0.520026596354464
0.502322811443001
0.509246127982471
0.500804508339648
0.511622568385492
0.497601270528425
0.494037230963213
0.487780260980358
0.49134360992032
0.486406548503008
0.49474222095536
0.469302487232026
0.486573775374422
0.475509399095151
0.477831811513654
0.464605745626046
0.471698215909442
0.459828182864665
0.479583724729617
0.464374253922775
0.468049267609588
0.464481316409934
0.461210390550747
0.445397116921992
0.466074506555172
0.452117022204653
0.454956662890031
0.442243973675878
0.448679488803903
0.444197399168216
0.445223410757293
0.431445963106031
0.449911505130144
0.428464172992796
0.427632327437515
0.42198285524923
0.426553075823564
0.416522496848423
0.426430550175975
0.410734021794779
0.42122535741683
0.409461438948546
0.414307337787577
0.402230172709667
0.414182819978328
0.401785015266179
0.410677807043117
0.392831331268031
0.406091222300212
0.392215745247203
0.400326088458215
0.396897476620239
0.40201098413011
0.394098969717471
0.392695244438782
0.37895651764958
0.38891995406126
0.385348387371803
0.388665390602676
0.37781880192362
0.385865023771333
0.374677701043065
0.384548307311417
0.37492585092639
0.380586782144449
0.36514870713102
0.382562932548842
0.374588162951827
0.373591390710988
0.364332964850905
0.372101366322791
0.367768693055044
0.373793326017219
0.367731153542149
0.366737105021466
0.363898613653493
0.371651059776809
0.361648802039533
0.368315906294858
0.357680190179067
0.374871457136666
0.366840149432402
0.372373125069614
0.364122312259866
0.3715397679541
0.363892937921427
0.37275420170826
0.370027893687477
0.367779876995192
0.369511545128366
0.376075630628943
0.368249716901896
0.379741830432057
0.371363335577787
0.377595595955504
0.364859603157186
0.381731922512903
0.369654025021345
0.38188767621229
0.368721018047685
0.37682169888669
0.379691524659693
0.383827967897962
0.372930948944974
0.38749963156354
0.376855222581201
0.388672843872268
0.380162371759031
0.380342597540935
0.383398132166345
0.392820084057117
0.378682670872179
0.394717828118713
0.389365696194415
0.394296999860864
0.38413687081558
0.402248427875074
0.396949995210535
0.40274226166681
0.391095072954056
0.405216123097845
0.39954532878529
0.414617255641506
0.405102019244244
0.40509759651942
0.404018106375834
0.41981870381088
0.415687154418355
0.429879832056435
0.416484967279427
0.434550605754968
0.419999362688144
0.43140041500449
0.420053102310784
0.427471352146243
0.425023069697432
0.43350791233303
0.421462398602162
0.428892072777511
0.423569402360592
0.437590149649436
0.427832145481182
0.436998183762322
0.426764313311213
0.430967559579101
0.41697351983659
0.427634197770402
0.426829560911543
0.42912603553096
0.420052293805699
0.431855246553179
0.422702243124015
0.426784772093474
0.419677511399346
0.429592644898996
0.415799830415055
0.42933796918396
0.414923702736712
0.423192968286036
0.420119077110927
0.427821749153272
0.41780464093318
0.421693769465468
0.415418444726363
0.422753422828206
0.41272265030099
0.419198179531107
0.416989107334916
0.416398289985449
0.412419286116114
0.41917363546764
0.413289619549243
0.426092779120761
0.417854093471061
0.417900810506494
0.417550747044297
0.424491044611394
0.41119196830343
0.420723525141462
0.415889828182727
0.427632964396094
0.419256753031494
0.417917062167146
0.417906434467466
0.423275459611026
0.409135111294235
0.42239455949601
0.411488776296335
0.420713784354571
0.411411208225427
0.416967738527968
0.409852248917118
0.420602973898191
0.412066832367693
0.416704399106304
0.401484893054551
0.410762236302769
0.400223832426291
0.406190322322765
0.399736122996193
0.403145988793304
0.394975993897808
0.401793421470344
0.39673220372594
0.400746336447115
0.386148071477162
0.39233605739118
0.385741163959044
0.388454017227823
0.383246401258284
0.387129184301168
0.377723673284635
0.385103769069449
0.374806799960062
0.382155839802106
0.367206637623676
0.362160922784648
0.357966226514788
0.364456422624443
0.355509705027264
0.363412266879883
0.354039332566308
0.353782532654121
0.348624882253209
0.351358064094767
0.337400013789595
0.345216161472505
0.336757679194968
0.335022099518787
0.333162602454591
0.335161761533147
0.328596017960325
0.32985559551247
0.322265815455313
0.325575075908944
0.322253017460659
0.331663199301164
0.315519371833852
0.323405675493913
0.318818975427552
0.318669056323196
0.311263471215306
0.309641727204304
0.306340954121172
0.31322544796091
0.305520269417551
0.303159611571915
0.296370062189484
0.300787805698681
0.291226827831116
0.302089335014569
0.295645482174932
0.299944787348439
0.285518891699317
0.291777949802516
0.28504098234443
0.286261551104137
0.279308434039419
0.285636674238434
0.281757656896624
0.287495272089067
0.281384151210495
0.281484950885626
0.277191902161557
0.279796325650492
0.268739099551145
0.278845310520796
0.268593412949563
0.269660456754035
0.267820996058426
0.272691749781787
0.26480917083484
0.27244473066829
0.26385616689433
0.269860553187991
0.259882557877897
0.266067280382119
0.259575057775779
0.261973139881004
0.257025360197148
0.260556231518241
0.258002900687905
0.260885251289269
0.253489346643754
0.25552413593724
0.247576853708515
0.254478229110474
0.24664659295827
0.251093873735165
0.246796431615957
0.249823093193294
0.245264407449264
0.249357283662619
0.244929672774493
0.24345565297394
0.237320100614897
0.246946508914147
0.237903606897284
0.244352426084607
0.237661218425955
0.242708033465461
0.237818632497732
0.239098426316797
0.235153229679161
0.238654381825443
0.232930559599577
0.235994208827515
0.229972681036816
0.233902535086019
0.22949962527275
0.236487063388599
0.226783456434066
0.231640922728327
0.230281661315255
0.229331890896976
0.222620001193383
0.228456850125347
0.223974745843221
0.224156412904381
0.220858877169949
0.227840815303458
0.222497917827799
0.221841026891317
0.221190535968149
0.221148134214001
0.212367461934269
0.220955653887099
0.21419215473351
0.221028381858688
0.21520723928831
0.214488851600206
0.21273775304543
0.217720860718026
0.211456046902939
0.215999345127343
0.210622361329319
0.217576490060122
0.21169716464869
0.216096258412086
0.211922786300964
0.212987280216485
0.207377411680586
0.211742877464327
0.208134226468468
0.210575536801071
0.204974153107412
0.209820190112167
0.206718382303126
0.207783114584603
0.204943301082383
0.211615558108549
0.20491696262052
0.209794642797596
0.207289815569184
0.209346663280779
0.201948877963557
0.209081591912461
0.201723913544473
0.204569185337505
0.197510512552539
0.204724865991976
0.20004969492277
0.201837527448789
0.200169495845455
0.204746178987523
0.19936229626815
0.203645624245995
0.196740632455845
0.196848291550584
0.19495786175894
0.198505264696937
0.193734008949578
0.197553780873182
0.192017400937242
0.197262412837811
0.190713236831998
0.193697866186783
0.193875770370039
0.195997160889377
0.187627615569211
0.195611256629452
0.190176350580365
0.195500274249569
0.188187136029747
0.187861649282822
0.189968816342187
0.189802410517401
0.181361192141474
0.187200238057941
0.186065732715475
0.186905960669025
0.180659412507139
0.188475577042823
0.183132892748256
0.184242686597988
0.178580854658845
0.184012128316764
0.181550322161481
0.183563495989777
0.177698616908806
0.18187861832285
0.173406138890031
0.175056826538523
0.175202739259247
0.178590460455374
0.174009448044052
0.17842039855087
0.172656911355744
0.178215093295225
0.172248659241726
0.173588946309244
0.170557323873382
0.172677853884559
0.165751762908296
0.171288630903286
0.165159435619986
0.170300945145021
0.16886095901381
0.169497642249743
0.166448614335055
0.170333611356344
0.163379281290562
0.167738660905453
0.159735341365722
0.163168464215749
0.159215489439873
0.164485968101054
0.159227732263894
0.160728468235375
0.157116125966011
0.155257290774164
0.154437125734814
0.158593830135616
0.152849943020376
0.159007552089408
0.152620727987264
0.155534677796008
0.154257854085833
0.15397912830078
0.151248841556498
0.147988791326286
0.146953388701404
0.152019006063705
0.145185558623172
0.149604246919474
0.141603995908248
0.14460596296637
0.141879852815459
0.143874250423897
0.139725084412448
0.14603979258757
0.139790949679857
0.143295911987308
0.139225229599027
0.142084743804718
0.137708900218798
0.138119283718551
0.134820528508262
0.139909022984665
0.134987807336808
0.14122475044502
0.137175627488592
0.13490339111204
0.131050216156336
0.134987605336843
0.129353739668196
0.135581617601814
0.131137851972716
0.132412894738621
0.128814722028751
0.131360070942121
0.129874200622963
0.129856221988243
0.125344804552399
0.129330451077613
0.126725417405808
0.1319583839612
0.126103842183923
0.126882794713708
0.121513421595814
0.123214090650888
0.122748681843576
0.127289515517354
0.123865803924324
0.125279309600228
0.119672777535218
0.121563438840096
0.120793509488233
0.122652058326035
0.119407057414317
0.12170944709617
0.115304593282893
0.120409753689658
0.118243131677052
0.119141791130881
0.113091520966896
0.119437055753147
0.114330403094947
0.118641755581476
0.114651858236987
0.116827746861519
0.115612592226951
0.116710545041149
0.109661637079703
0.116615939976424
0.114777392971879
0.115049309126799
0.110490290910972
0.113977383221058
0.113013882968753
0.114786697865576
0.110893604215152
0.112845155654628
0.11155698134437
0.114122826833925
0.105941909534328
0.112133440632152
0.108477366472851
0.108898163701918
0.106867070550301
0.110650390057109
0.103849805813504
0.107936359561918
0.106686717003743
0.110448179031388
0.1078042132791
0.109241326927189
0.10490610769839
0.111038457073913
0.104871263238434
0.106609199888509
0.103595132757161
0.107294326844104
0.106673683814757
0.109253631646288
0.104006502214982
0.107226141301641
0.098389262212168
0.106571402463176
0.10393077368151
0.104525813770882
0.102992703652188
0.107053714387499
0.104459541480351
0.103637324552666
0.0994650382112817
0.106439932366428
0.101081921931739
0.104945220031931
0.100611422705976
0.10268737984041
0.101158557141908
0.102517904800732
0.098589022698387
0.100749329872183
0.0996352857513245
0.102192230509271
0.100151800143161
0.100233479366488
0.0991527731603259
0.102270286109611
0.0978248371699062
0.0992517651909766
0.0978986681493974
0.10020466735382
0.0980981729139684
0.0992204853908477
0.0973040589858718
0.0994985838243851
0.0920099105218767
0.101340882445908
0.0966590239849714
0.10046295293361
0.0957361672294486
0.096344627167449
0.0963705125309695
0.0956672028157057
0.0931754672310256
0.0974852449897324
0.0956681859861942
0.0957888948153322
0.0934292977742599
0.0970975846144888
0.0928774299133191
0.0960429201680627
0.0918996463714272
0.0956499594611187
0.0928997074016552
0.0973437816793331
0.0923255197413074
0.0926623968364377
0.0913476302619734
0.0941076904018134
0.0896592449586226
0.0934770744538792
0.0910686657436301
0.0944420282085141
0.093388712988328
0.092009078054782
0.090751123439836
0.0931394447353129
0.0906688152339578
0.0925537212785447
0.0887088963842099
0.0915179729876787
0.0887085916337921
0.091479307538552
0.0887885130425496
0.0917852181417539
0.0855273366777896
0.0908713555036141
0.0864961072609278
0.0884128826224126
0.0871448333025824
0.089044026382513
0.0864151864244931
0.0896947298333455
0.0858217370249357
0.0871233997229843
0.0849461635799634
0.086175480590937
0.0870599599546755
0.0860641167534385
0.0840064777830415
0.0856867633908948
0.0815530825964956
0.0867634716280465
0.08250039231226
0.0872691363281181
0.0816409308262292
0.0829871670344273
0.0835062747990065
0.0853588330808333
0.081543928491516
0.0816898067453235
0.0801078669330497
0.083359641735723
0.0793557313282503
0.0844153347387178
0.0800382589164731
0.0811826642158472
0.0785291020549898
0.0825965896347173
0.0793395849771593
0.0803275439481285
0.0775481318066519
0.080464364852354
0.075515446544696
0.0805858997506084
0.0779942763376541
0.0776010435342858
0.0768441549072935
0.0798018424030124
0.0746102666675738
0.077679229668517
0.0718429708236953
0.0775523153058313
0.0741602046464268
0.0770197733227263
0.0737443769298513
0.0777975110594144
0.0751622576471382
0.0775847951176932
0.0725942543981908
0.0768579110568141
0.0735539228444024
0.0744736736367121
0.0734891902603891
0.0754743988782942
0.0699697205584477
0.072424699741464
0.0723081623257349
0.0758123895380367
0.0702721943429101
0.0736042339473623
0.0696635272333487
0.0728179920067222
0.0715975226648943
0.0744255571753006
0.0681142023584852
0.072992988036955
0.0697015418306116
0.0725106162685988
0.0702351005805151
0.0726518286848694
0.0680439190929121
0.0706747311918566
0.0674463148835883
0.0715851087392711
0.0696091693260775
0.0716145885504126
0.0686529382102452
0.0708592562635348
0.0680383214666013
0.0711261295898176
0.0691007984424003
0.0705458718281891
0.0684569056406452
0.0706279576904619
0.0684666320280759
0.069908698830787
0.0666054745981322
0.0699037263088765
0.0661707416886698
0.0685746886821207
0.0639529392213015
0.0678049285853985
0.0649483651227236
0.0693855718839465
0.0675466111759047
0.068949455233815
0.0647167783422322
0.0679499316421871
0.0644508321138394
0.0674507686811356
0.0657091436386593
0.0689561336166755
0.0666250032864927
0.0661361439214878
0.0646206647762653
0.0708982409558634
0.0656642152073268
0.0669034846668048
0.0654167429584217
0.0676115229095998
0.0643465396841662
0.068604423926955
0.06572008051751
0.0685607077272031
0.0643131979923531
0.0677565704240838
0.0628887737477888
0.0671298499467134
0.0657615362125105
0.0672544206853943
0.067200155659105
0.0686229044317676
0.0664890494709647
0.0697334018405564
0.0621649668475795
0.0635860155394727
0.0566320046908293
0.062973859356161
0.062011775777399
0.0679594599596004
0.061048573071363
0.0619567871281388
0.0599336588518829
0.0671299202110658
0.059137754663586
0.065916104150876
0.0624770133956063
0.0665359609784863
0.063299621652646
0.0610488855538435
0.060009372867155
0.06515928692066
0.0566905511131631
0.0678372895373151
0.058501862359462
0.0679013619765476
0.0604220644594435
0.0671549192332924
0.0630226005737819
0.0670669599620998
0.0607819526028685
0.0613824800435881
0.062493802063933
0.0629527370140439
0.0616254470119374
0.0619970531836604
0.0599023878855252
0.0621698506895849
0.0638759712630276
0.0648452265442879
0.0636223858357229
0.0606424771311044
0.0626709261954357
0.0549693074950252
0.0660372796561519
0.051908548536258
0.0716968254021982
0.05866302513416
0.0753662068396843
0.0472706422930096
0.07491488249112
0.047303291830669
0.0872175478001451
0.044298549971095
0.0796814701848905
0.0368585660108938
0.0935753428822426
0.0403839345847743
0.0826065618153972
0.0327811167955615
0.0926297151420251
0.044146875967295
0.0806753039432695
0.0528900307270122
0.0788399936721041
0.0558862914823505
0.0657281182296756
0.0682024433029508
0.0614143761751306
0.0702775100543962
0.0575603408254011
0.0697132497603593
0.0590254761979658
0.0699044785044368
0.0602518671117575
0.065473967131191
0.0645008596145252
0.0650806508269274
0.0684945805673
0.0647333862260452
0.0692768029431326
0.0653246957079457
0.0653092698830465
0.0668687458214397
0.0638327497308356
0.0670768901409281
0.0657839006043781
0.0659920512041736
0.0634632754071389
0.0640497504355096
0.0663500585104312
0.065882056579356
0.0652248978392819
0.0669669990253248
0.0641280208009451
0.0665281187754733
0.0666553465354751
0.0674324631826721
0.0669323944768179
0.0674557747745415
0.0662826184228251
0.0649519705528537
0.0659402231825541
0.0699472576619061
0.0682882493903647
0.0674080350649389
0.0685290479069077
0.0685495879123891
0.0684942937030832
0.0711716924054548
0.0673663529810971
0.0705146134196805
0.0692922731771059
0.070495186979893
0.068143454441783
0.0695940176122314
0.0682905964796587
0.0708436395573573
0.0689005473315916
0.0694708127991043
0.0691731458593103
0.0702595065766374
0.0692222378689586
0.0709261023534522
0.0688700015318778
0.0711730170491044
0.0698759349829913
0.0704420554398828
0.0704289578343989
0.0726204840795185
0.0700495685379442
0.0708327019839791
0.0704166705586485
0.0716760625068172
0.0695752064367359
0.0720834077716195
0.0721510042867574
0.0753267584292002
0.0708806472520149
0.0735040742181276
0.0713808948213307
0.0722646237671474
0.0723552087434024
0.0746004171478094
0.071527710684594
0.0730962473884356
0.0709410888093503
0.0725626664710966
0.0719446538647228
0.0721775539558229
0.0731382151937951
0.0756048180352754
0.0718001437968409
0.0751689335611597
0.0736408329271767
0.0736980602696048
0.0749900517217978
0.0741042964193625
0.0736004866981168
0.0762821379262609
0.0735890210028967
0.077020988596357
0.0730010617684204
0.0755452305824607
0.0728113252367164
0.076313741368962
0.0752649956091388
0.0765853176228819
0.0745135814538605
0.0747036042548649
0.0763206448158977
0.0776761702223831
0.0772491263599601
0.0756343935934558
0.074898103796955
0.0805779719077547
0.0749050209628888
0.0766712021983001
0.0766178703956618
0.0802829230590476
0.0778349448570481
0.0780555909176552
0.0774071084728122
0.0792085556475208
0.0774797874056469
0.0797927755816076
0.0788584914925144
0.079994917931317
0.0792974707142687
0.0816136269062
0.0801216445724271
0.0804924686469173
0.0795620937054558
0.0790012889495669
0.0784124829244726
0.0780271267400481
0.0797289361015526
0.0826537050555255
0.0808110400938372
0.0819406410642922
0.080074769833639
0.0835759052048226
0.0800792650492021
0.0841232475576805
0.0825974137485613
0.0833269415768332
0.080433284864373
0.081823220927832
0.0820316884825056
0.0839451090440777
0.0808899057643951
0.0851102787652356
0.0830539813031992
0.0846855080456124
0.0829392041132787
0.0827583698225722
0.0816655461162791
0.0827950793065498
0.0815211283651584
0.0823331447330407
0.0833476056784784
0.0853264358087124
0.0832356095652098
0.0855396550225089
0.0834236343636716
0.0836524933901717
0.0837121972133231
0.0855228107310047
0.0859612403139375
0.0854097134294752
0.0832934636982025
0.0863866797473558
0.0852284388017756
0.0864124514688422
0.0875927631905686
0.08575378008383
0.0839183375121914
0.0875996890225581
0.085674625498487
0.0876557431169933
0.0849465612858793
0.0898221544065667
0.0854571967483022
0.0865292306368973
0.085696078429791
0.0859157747379919
0.0853021254647965
0.0858765249489509
0.0846065322591176
0.0867700297503456
0.0863868278407606
0.0873875239928375
0.0849755222941187
0.0870892864098737
0.0874723610634954
0.0867683927603842
0.0839454300278625
0.0856984462702714
0.0862537098079924
0.085370071156736
0.0843876287411342
0.0845921716450897
0.0845443467233438
0.0839512724375367
0.0838877823430065
0.085767786263307
0.0819891514759364
0.0857243570879221
0.0856980360763267
0.08676552741648
0.0844443067311916
0.0868197165746095
0.0845374798652171
0.0846782136702495
0.0840894389192872
0.0865509113110314
0.082880992531974
0.0851085004363194
0.0836975833009512
0.0847604753001499
0.0830500856902958
0.0851725405623668
0.0849593186448271
0.082512381709828
0.0815296180451735
0.0846964952707757
0.0833484912030028
0.0841548704971429
0.0834927364162101
0.0830327025477553
0.0818619703996209
0.0844087220360139
0.0816641739326662
0.0819609142113798
0.0832923401617861
0.0838450983362013
0.0808222506605729
0.0819969961821033
0.0818416819316211
0.0828409350995156
0.0806720001526385
0.0827990503529238
0.0805991038791343
0.0816882716387059
0.0834818490331474
0.084597790243923
0.0810300404322256
0.0814974296580888
0.0814155066949482
0.0828603810709338
0.0804235518953535
0.0815538540140704
0.0805348143653975
0.0822649034842447
0.0799900564686761
0.0809893390388089
0.0811379437828283
0.0825497149242995
0.07964409752947
0.0825808399033193
0.0812889492381301
0.082445082872515
0.0792065947484409
0.0804698474173122
0.0803436034391958
0.0810212346116499
0.0785281506885561
0.0797847802508295
0.0797752739092664
0.0810076205112598
0.079330144552328
0.0798323892940684
0.0789059948656731
0.0812549044614132
0.0777137062496331
0.0807907795898939
0.0781366096479551
0.0804545550904183
0.0791061362869302
0.0787099310330016
0.0782627441355293
0.0783126176136306
0.0765750894345363
0.0794841873127394
0.0795776860613662
0.0790835799753605
0.0765638024971404
0.076742376070246
0.0765124588830375
0.0768923502846482
0.0748193138807039
0.0789271316978343
0.0757415152657478
0.0749783574667524
0.0755369217813138
0.0751480832963609
0.0775991340881993
0.0764509818854637
0.0730758376844427
0.0771688936621203
0.0758991436353376
0.0754899591038737
0.0741109900189447
0.0753378922538976
0.0731712303501955
0.0755528113761658
0.0752300535048864
0.0754163154342187
0.0725511685983515
0.0742446929691688
0.0726270365445749
0.0739655314673725
0.070923415203501
0.0727517842958157
0.0721178155864682
0.0716365456500731
0.0701913178178435
0.0710841605379557
0.0701526943244677
0.0696632725086347
0.0708318389887642
0.0720357329986655
0.0677936709142873
0.0711564267678908
0.0686348389396957
0.0726011210220996
0.0672104715299837
0.0700540143432991
0.0668376030224407
0.0703840054904312
0.069781669099974
0.0697353401692139
0.0664647693719523
0.0701419606356134
0.0674596535033392
0.0703742232705304
0.0656651923634982
0.0670770022378427
0.066146659954756
0.0688665532556739
0.0643916937404741
0.0670589472700431
0.06269116195196
0.0657542802771351
0.0655434189853992
0.0663109324723273
0.0609495414104225
0.065941053657195
0.0636843781914199
0.0668397897513627
0.0613212212589192
0.068976624396818
0.0658687044389258
0.0639456175994499
0.0655589730656661
0.0663060749603944
0.0639352816229498
0.0615131403373125
0.061826596985561
0.0652315110391753
0.0642085055683924
0.0645844283158893
0.0631602430352447
0.062690863631742
0.0623447428064645
0.0609860511193212
0.0624820232384152
0.0620688724623931
0.0613124454225162
0.0641414616326036
0.0619179588364811
0.0635900516349377
0.0608019230901287
0.0613835220992197
0.0591441273289047
0.0631552574518708
0.0632949658265548
0.0625484389927867
0.0629348730086636
0.0615579685873972
0.0611513757614101
0.0617357615825802
0.0617483621027603
0.0596711317271955
0.0600151916422803
0.0605431475592949
0.0597105497032536
0.0597671514093443
0.060033162045106
0.0599327251132389
0.0590593840900742
0.0601918676147457
0.0590057015976554
0.0616123022703394
0.0600972423648111
0.0580303364439156
0.0569517626867342
0.0583258546932733
0.0595937228876021
0.0572068025459536
0.0567624711625803
0.055144566489576
0.0585750834433334
0.0584267012514876
0.0600832408016743
0.0616314357551185
0.0576396237140527
0.0601886036777491
0.0555912383924374
0.0595116926850687
0.0567799299910259
0.0591470698936869
0.0547278004105517
0.057213963842489
0.0574962032916948
0.0578105234679828
0.0549115580157351
0.0574199375602985
0.0543433680392608
0.0583218362036791
0.0553387664090533
0.0574980307451145
0.0537468020820251
0.0586814588644756
0.0554226465269527
0.0580290641422069
0.0591082143786116
0.0573114298880378
0.0555065963171072
0.0583823301509186
0.0532870052261154
0.0653205904679622
0.0489631223634379
0.0608206965965939
0.0524271050107544
0.0591801014990207
0.0527079165331802
0.0602865030807786
0.0544160252794019
0.0592973601443164
0.0546546521760797
0.0548470787855105
0.0549519886583641
0.0554914526907732
0.0553850486279031
0.0570874089627284
0.0554064507507483
0.0567863982052902
0.0566253857368961
0.0571327561941014
0.0533548289164997
0.0569099428284632
0.0529937504447805
0.0589172157596344
0.0517275007204595
0.0600989940753129
0.0542714007778852
0.0560914872205809
0.0538570406677072
0.0560934464744213
0.0560325000987341
0.0617886345986193
0.0566213660434563
0.0542912469024845
0.0580344566568284
0.0534963240276578
0.0565697981894464
0.0542409436637954
0.055291230124577
0.0555824344293824
0.0557241514530743
0.0542929404648984
0.0558465415285511
0.0573324916696768
0.0562921958334449
0.0551823492328477
0.056672437827255
0.0549872591302952
0.054868108846936
0.0569310315642727
0.0522265717032398
0.0603359474131606
0.0553025942136783
0.0666322957397247
0.0560057423663465
0.0595760178705932
0.0568440202764761
0.0570260645096332
0.0537740820661335
0.0576986583334319
0.0542580164862522
0.0576597560168683
0.0577836669312974
0.0569382818287475
0.0564457997729209
0.0556085647747042
0.0560226654601297
0.0584956193718275
0.0554220967995331
0.0558186082671206
0.0585912029826989
0.0561916230447873
0.058531319110632
0.0534255760247079
0.0587904631413476
0.0530245877115235
0.0613278832889032
0.052733872992282
0.0648045599633389
0.0527344289813387
0.0729763641000485
0.0575898102998215
0.0589634281914876
0.0614592086785571
0.0559325220071059
0.0596961077222067
0.0573856726669243
0.0601192415372315
0.0595228113097312
0.0585629813625173
0.0617339092486087
0.0599196717634388
0.0565934346869293
0.0594150586290398
0.0574473947462025
0.0659869465658117
0.0675631925840314
0.0577292129718159
0.0613907483016236
0.0607351657760549
0.0652593989987515
0.066240713078912
0.0547883557028632
0.0647039071506932
0.0571766984498486
0.0627454004309408
0.0596954467324224
0.0642203615893035
0.0617489465076784
0.0657027010394481
0.0590581966616853
0.0634251835730742
0.0623406776341874
0.0645353899647329
0.0648725872398544
0.0622242751256372
0.0642705445536761
0.0662231179149085
0.0613570579834081
0.0676135682819683
0.0619621755500924
0.0670189986859823
0.0592319898330281
0.0645674564397475
0.0632695261223885
0.0671020582556112
0.0639655688062095
0.0663368864080682
0.0678905693722487
0.0684061272331909
0.0617132657134717
0.0718071863187708
0.0613478342615005
0.0719509440019702
0.060734083926336
0.0798689344602621
0.0707676332297221
0.0678134204118239
0.0742051140256695
0.0632526074440359
0.0719044921038512
0.0662519834994865
0.0751767010554604
0.0615169258445422
0.0788959130812589
0.0607551472628574
0.0759748393210193
0.0645615163233177
0.0783634680306354
0.0698723078383224
0.0734258895635587
0.0706570727985315
0.0757702030169333
0.0664545377953024
0.0755382513558954
0.068148212973783
0.0763481404684563
0.0868429787708773
0.0690760085465092
0.0816149233575603
0.0741870921968994
0.0764077571840897
0.0829634610919923
0.0691650717735753
0.0799414904046469
0.073019521377052
0.0800512341418522
0.077771529115568
0.0804340646389516
0.0868882681877975
0.0768661798831816
0.0764957270132263
0.0817995589543029
0.0805450317376292
0.0900607846610113
0.077351410587621
0.0860873546237245
0.0768417375078177
0.090738490438661
0.0672300125881928
0.103035019560366
0.0786085075757081
0.0957697029779024
0.0903168932199146
0.0902120042954882
0.0898595968945534
0.0907330532863625
0.0924343809526328
0.0967687221606867
0.0914813482856844
0.0949974932791439
0.087975986190547
0.102182297075985
0.101375851509426
0.09162400484758
0.0990066381834158
0.0916474283343833
0.101606364197223
0.118222501923083
0.109642395853553
0.104566260221738
0.110411517524623
0.1046496915749
0.115951641418424
0.105512840195896
0.112493523213539
0.110699689970231
0.113872485100821
0.116119476520615
0.115124458906492
0.121969014189505
0.114941309735966
0.122706296041112
0.117276074315734
0.131701312822884
0.138273024604597
0.130894425079003
0.139519259202067
0.120520570076543
0.147540730093755
0.129179413280446
0.138857873964058
0.137135327062092
0.142629138721212
0.140812504773537
0.144359761416422
0.14936701962778
0.143033554325722
0.158052259133692
0.151687290842401
0.16214895048721
0.160722155440134
0.152133232371268
0.179497713328685
0.150829090084666
0.207437177322695
0.160617284558163
0.196961691470708
0.16361563375366
0.223664809177032
0.201804845489894
0.19958504485679
0.202557687730914
0.214409055508591
0.21474541439226
0.228569580855304
0.225346429198071
0.239210883845155
0.234810125098785
0.246172225815576
0.235477955899787
0.299764706063107
0.270506366842169
0.276110929197529
0.273459953824389
0.288931318766684
0.294018978148326
0.301316545060429
0.297268762615131
0.315741262876414
0.302868666400357
0.344982473858599
0.339130784329306
0.329822553756063
0.348812516810969
0.350711221895555
0.364389345566635
0.345651726804585
0.399242216199322
0.369470469406103
0.390185230432512
0.38767537149152
0.397003042093172
0.405367664933129
0.412539118533203
0.430309864606618
0.416519296239481
0.43048538087396
0.434548336409679
0.441703420895073
0.446956881202093
0.450337121542069
0.44566822631748
0.45078168656324
0.489813415525658
0.502384172522216
0.501034695704145
0.465957571825512
0.48013995680676
0.465812243747815
0.483160505219387
0.499133774960496
0.482478647374123
0.514572007667882
0.476687924793675
0.484716933132812
0.495791086499479
0.489503315665502
0.499071003057835
0.494439004066874
0.496425348408515
0.483519478210302
0.502478743122084
0.471846628937166
0.542994580896324
0.495265172147091
0.49251647481274
0.49562245723869
0.482055914616065
0.480131496810658
0.489354080510668
0.476605931959702
0.488591845172042
0.483753465671066
0.453929794558405
0.473885606047615
0.46577139181947
0.481682390454755
0.449421058835576
0.446284264231825
0.45131901282769
0.435073767106867
0.439157488197347
0.416097900642185
0.449554366858682
0.430088336001523
0.404985752142952
0.410641011096238
0.406919760210569
0.404748988957892
0.390484720690615
0.396518117582054
0.392155772568717
0.390541347687876
0.376241222401245
0.384383098094041
0.373565929453115
0.377232623301007
0.372513783496152
0.372692410101634
0.365451614931158
0.36919713394969
0.35441089623405
0.360459612376923
0.358430680039478
0.357957980968318
0.353444616922973
0.359805791165647
0.357600297759323
0.355994300785182
0.344740405023791
0.351240049477365
0.344968247144849
0.34922726088097
0.343840870030244
0.345399559495926
0.342002045643825
0.339830498605183
0.337724518189038
0.338761319836175
0.335858867312726
0.340610680983856
0.332648778511309
0.329136817295761
0.325582007043534
0.327347982961611
0.335987956100764
0.316907751693653
0.355240817071609
0.326405603957834
0.325233010154769
0.326883004230194
0.323914990617213
0.325541854496456
0.317829789700204
0.343643450836184
0.313582397845804
0.313186394968157
0.315392593440562
0.318010397192378
0.317121800111461
0.315576945982768
0.300164898806798
0.314016425963336
0.292148902972698
0.348088546148672
0.279206917939237
0.336343045711429
0.305341380508934
0.300283565633934
0.294194797134359
0.307969324316242
0.300394579216937
0.283735689068357
0.295415697412556
0.281775426570573
0.296531821609274
0.283162758975969
0.283113487747049
0.279481632254784
0.274033124035401
0.288066521823359
0.278722025966868
0.27309460650043
0.288395042744092
0.276659996166763
0.267619695898474
0.292259309073819
0.280685449982509
0.270685534311691
0.255758432037195
0.259240984284855
0.262848611826204
0.265568363356422
0.26627283938078
0.24733907009954
0.250146032405839
0.241584776958713
0.246289178371433
0.245468586083012
0.248092270801963
0.243475207022937
0.236165984999817
0.246982461547217
0.218212204843613
0.254725156530596
0.229714875197055
0.254621605084125
0.23157479397904
0.231271260532947
0.226296581827404
0.242974506036763
0.228446046417984
0.225196919418263
0.225763550603202
0.220805354906499
0.220322052091312
0.226905035078989
0.210076715175256
0.224919628922867
0.21943108110241
0.221274828619256
0.233282873303933
0.223822753838022
0.214732074610948
0.211734436624297
0.207187389670401
0.217020465172149
0.204950319553626
0.213189634860179
0.192336410731001
0.224492752977354
0.203864047244328
0.217702126963727
0.219596852839107
0.209413107691186
0.212707139298426
0.215501132436537
0.209851315464687
0.229507472877433
0.227314074657175
0.229049768199901
0.213602496602334
0.231439714212607
0.228979893402872
0.232605251363857
0.234692600612043
0.231489752609848
0.239744154230896
0.241772847714945
0.247696173439536
0.249247280587814
0.244927353705464
0.258128123905322
0.257163211676658
0.27273822496272
0.273658830298306
0.265294654411066
0.306240963828791
0.286290638772895
0.306276750825448
0.290808448809955
0.300435077866777
0.30285057030572
0.307058610280027
0.313498603885944
0.307146168519632
0.3235684882009
0.327920262531203
0.322370614978735
0.33586867787159
0.326411919929337
0.338435172557842
0.331961048690563
0.355615812682398
0.336108262500115
0.372473963040158
0.34317032403869
0.351731341081927
0.34800386187917
0.345506886680152
0.353381593235261
0.345803016084378
0.35359799703859
0.350676955122102
0.358886888615056
0.365025705844201
0.357819909987618
0.362435566010144
0.359527923676343
0.364409240997654
0.366955163745658
0.370793070187901
0.37357124543182
0.371805248995161
0.374660616654626
0.374919710695432
0.379002713223706
0.400170815547155
0.378756011477462
0.391169749470902
0.383421321710599
0.392608640368105
0.39436531539826
0.393032156440818
0.398715527538268
0.398292090781293
0.402528924081613
0.402369437205188
0.402871761515289
0.414238579052053
0.414462872796468
0.423933708101293
0.406135871123436
0.421556838780797
0.400672259155293
0.451692619148824
0.42435909112118
0.423040003697079
0.432928330466296
0.422931900430796
0.426147091784818
0.42534961332296
0.429951147414232
0.430517901833134
0.437511449983614
0.430246913846421
0.427643806245246
0.42503698455217
0.428923079002297
0.429127474943115
0.433959124393961
0.43747333431487
0.421509271261039
0.431047783978924
0.427414291606666
0.428060184672194
0.427750476826403
0.437416221500511
0.419122900377166
0.429429515241153
0.423009211969088
0.430454199193148
0.435046193732696
0.426395551083503
0.421684203869979
0.429927836425825
0.423241199675476
0.432976079922221
0.425017763923405
0.439817050745556
0.443595530531732
0.434707514042314
0.440628122925999
0.441312327197826
0.442942112277911
0.443660404500634
0.449326639103355
0.446091219454128
0.451772295701609
0.452360104622923
0.4566533218131
0.452276948507521
0.460167608206919
0.454808053476538
0.459813518331147
0.455977696208848
0.450215162019192
0.448532286176439
0.447735485949561
0.447025111580528
0.446313463936925
0.441300431880559
0.436619281916013
0.434283196971819
0.436132177608786
0.438538317490862
0.439292366249599
0.418008288341204
0.430782288923276
0.414850574168825
0.419226713482385
0.41116123204596
0.411432661172063
0.411275271889947
0.409175261011468
0.405399042017139
0.405870182255615
0.399676785788967
0.399828262847917
0.397355347071095
0.396784320643704
0.398612307567907
0.398507046241425
0.390951058308873
0.389984341942886
0.390779818087252
0.393659766878441
0.39106395037483
0.394574608132363
0.388635537319367
0.398943267354424
0.391282895312168
0.397736662856822
0.394900200989377
0.396788847138245
0.391432098593116
0.389160998545919
0.39111664219123
0.390272334974498
0.393281023168621
0.387419458675554
0.386480324608901
0.389040985433794
0.389039913207441
0.388065043382983
0.385147713451763
0.388039172301662
0.387715046352565
0.386872750519556
0.38941064063684
0.383772387093707
0.388366739679925
0.384726396622219
0.388458735717249
0.384308103811963
0.38588879128096
0.383720664736818
0.385288842600481
0.387682522893522
0.388194946891153
0.383566234962023
0.383090460734379
0.384249443347539
0.383004752211531
0.384834108460415
0.384009528697871
0.380018626134426
0.378433844851108
0.376159689105165
0.378248876255858
0.375334171402823
0.374084134055282
0.368666558802885
0.369587033147312
0.363666611401688
0.359610415694572
0.363504506851709
0.35723697489374
0.352749839677885
0.35211647403101
0.349409398092922
0.349138742324052
0.343668821386595
0.342328660029764
0.342589587340735
0.342177843986522
0.343921801537796
0.340042120583952
0.337583471432603
0.335941355476983
0.337694111566289
0.337060702034439
0.335774062130621
0.334236076916254
0.33929087993268
0.339428278582707
0.336153234070765
0.337215666576592
0.339867086170969
0.340504236163918
0.343100625060387
0.342631473734055
0.342046142265068
0.343543837645523
0.344069847081395
0.345311655970884
0.349141265734885
0.349183311471751
0.353152295632424
0.352806006024981
0.353371717542968
0.352583653821799
0.354072003239855
0.353543547437927
0.355686202590368
0.354929254979104
0.357773752809976
0.354359073983429
0.358293589386571
0.354875092304217
0.354683419749128
0.354422505784318
0.355533174897457
0.355411460620317
0.354250625334994
0.350524263605617
0.349564386787396
0.348288399146208
0.347465034806814
0.347711721962388
0.34566315622559
0.345469901241948
0.342012155794382
0.343006520417001
0.343434288400755
0.34088527930525
0.340634651240576
0.336700716547279
0.335968138958957
0.33461783850236
0.335561206812546
0.334637223271874
0.329893227916022
0.332196003962114
0.33146358260265
0.328812675736591
0.328010152964298
0.325121844421533
0.325158689978163
0.325323566366557
0.326389093086872
0.32477791841222
0.324658009001355
0.322423918804755
0.324065551124431
0.322417275409156
0.319597390064913
0.317146763520069
0.315277742710457
0.312778527400612
0.313040392956002
0.310894095083274
0.310268706437594
0.307287271409379
0.303844991272907
0.301838569415045
0.300457339375424
0.29702325779222
0.292856320928713
0.29356757376511
0.291169352374829
0.289019811318375
0.289398359841446
0.289325243960633
0.288242286537836
0.285651985286009
0.286209847716536
0.284291549627848
0.28303374141424
0.284643731362869
0.2849270270626
0.281832987502214
0.28043512624786
0.27875649449422
0.27762545969042
0.276050700856189
0.271273970348771
0.266791820217827
0.263647903016405
0.262150024255641
0.257424920347894
0.254586917371418
0.251470069924917
0.251453569636556
0.252634096086491
0.250914245312093
0.251148523193088
0.253324483736808
0.256498388446725
0.260844360106422
0.264198585778623
0.269061579097755
0.278175532076008
0.284712204238112
0.293592233143433
0.30327549246212
0.313175914667214
0.320534566160144
0.336888667325607
0.347371656109916
0.358768293915019
0.372253044931381
0.381032403119059
0.395868148798095
0.408422055487579
0.421851798907215
0.435937862359677
0.444238477535342
0.457652611103894
0.468764591103212
0.480472862745763
0.489593968935966
0.499635812808026
0.507448106219377
0.518247504394198
0.523759350711465
0.532038704302301
0.538669229952371
0.545379684780059
0.55297606440708
0.551951160421348
0.556127320979728
0.560709038767205
0.558944560834941
0.558431250783966
0.558688532148183
0.560547785415314
0.561113367646985
0.556854657805464
0.556724752411381
0.557392068548615
0.561750265522406
0.564025548041342
0.561079272916085
0.556975867273002
0.564600691669228
0.56552510724049
0.563003516355868
0.566820282197615
0.574443803492481
0.580295400370683
0.582367954430261
0.587206494819236
0.595583522021045
0.598761808742355
0.60664243904313
0.614013889549656
0.61926653061459
0.626469991879739
0.636077597756166
0.647117129689562
0.655700100934553
0.668872780979794
0.675641989946937
0.691064503532916
0.698771363322346
0.704956562704679
0.710421279481429
0.713713596093836
0.721137351905785
0.715782439407544
0.716640731023611
0.719387199159132
0.712092503061988
0.71296371140745
0.708372941282592
0.70345320990414
0.696259189572418
0.692767828086482
0.692603109080572
0.69428838319562
0.69668120474708
0.697288393907439
0.705862968958608
0.715602929263514
0.719094487949252
0.729011302293567
0.743271208499422
0.751163633563937
0.763242376619595
0.775976015386291
0.786279502964829
0.797590723568588
0.805153357675994
0.829946296247962
0.836827224958046
0.836135994083532
0.845908069462213
0.864943127719001
0.873518255510811
0.887453626191475
0.895852596369187
0.908366588109102
0.928439258932
0.944765767462243
0.96289366990924
0.976303757358758
0.980889197990245
1.01264986832869
1.01662528888894
1.05627047028355
1.05302426691327
1.07908200121935
1.09259759958318
1.10350982480102
1.11269889537849
1.11963370873911
1.12886942715598
1.1674191436018
1.16921791469614
1.15616504873033
1.15938274912098
1.17180254639362
1.17010739406407
1.15996080175157
1.15406838756839
1.14820912521968
1.13815850458143
1.1339394464455
1.12383759408625
1.13197545980475
1.12966398590218
1.11462340887316
1.12305505712138
1.12302134974034
1.12127087402304
1.13078481000575
1.1247398456469
1.15411052741765
1.15902881218829
1.17786331783302
1.1665118849958
1.19097543715541
1.18616425945722
1.19695056627782
1.19138428805447
1.2319170435357
1.22576007744039
1.25026852611885
1.24273702182335
1.26196256380732
1.28684720408972
1.28543528629933
1.27922531454111
1.29483219902456
1.29977616789634
1.30243612641523
1.30690643853303
1.33101950330481
1.32419024770396
1.34112218951145
1.33022333717212
1.33460068716797
1.32103783391436
1.30861558105304
1.29094570897448
1.33759032328255
1.31819992041893
1.31700426199721
1.3097393727308
1.30083357167835
1.29398148170933
1.33558598255891
1.30435843970379
1.30144147398025
1.32549254188814
1.31779827245282
1.30437211983004
1.27658990351754
1.24413603021039
1.22865770864102
1.21068971453849
1.18984537262479
1.14758771104173
1.12595664260432
1.07293400192044
1.03709037772679
0.997403848532755
0.989526139630254
0.937028357421383
0.921570552141573
0.893197271179327
0.892494118452873
0.863886780898278
0.880517784441844
0.85500561922952
0.855652639231702
0.843918829240037
0.847128988980303
0.825757616227879
0.831245407245563
0.818843184599955
0.825637754452827
0.803238539991323
0.796642012074239
0.783953336922627
0.778370783571345
0.761333959889899
0.756607405720998
0.737729076224318
0.731287216570639
0.698591025718793
0.684370210559439
0.667351535323387
0.645536369842001
0.625402742516327
0.608078253286134
0.586178060965689
0.564458754154244
0.548336137944848
0.527615986473582
0.500321868080146
0.486191039910777
0.466492161053643
0.450893000874689
0.437237842580187
0.425478655507423
0.406505441034099
0.399128872189816
0.387245810187782
0.378861785263696
0.368002440360636
0.360911960039334
0.353383868188088
0.34855835586855
0.34501914310351
0.342338683189207
0.338446488799476
0.339727251380001
0.333304789008059
0.332081987583226
0.3307712798863
0.334569080366109
0.33469070394613
0.33631973946069
0.335303795904786
0.334859163724679
0.336989764098667
0.33993796874306
0.340095513148461
0.342648098583379
0.338183643803535
0.344307566371399
0.342613623786111
0.342586554194994
0.339437906732858
0.341596029390092
0.337221075538006
0.335269598862716
0.334119167164055
0.333585479166978
0.329441471352865
0.330426748410013
0.322751121047214
0.330799202018892
0.324783123935583
0.325834259998395
0.325387698727509
0.32827655513676
0.326821644249705
0.326813320922713
0.3295564013123
0.336964801151734
0.336950019754725
0.33707649098947
0.340772719661416
0.339398878989963
0.341292321832856
0.349618469456155
0.351616011111625
0.352111799679226
0.347780422055792
0.355760327864399
0.35328614377991
0.357225379780082
0.356902862851773
0.355970129457799
0.358115536169741
0.360327087901013
0.36085406208785
0.360842066212482
0.362317114295312
0.360691667754476
0.367911889174696
0.36081794212253
0.371970622052863
0.379348525749543
0.384164339038209
0.383272046642676
0.391513215148726
0.405735793361323
0.407782366980304
0.417820448526401
0.429472419807006
0.433714055141239
0.444065700163296
0.457629525666865
0.455141864984561
0.470694776050925
0.472408174238578
0.474736342651147
0.477507600111629
0.476443113401854
0.466814588687935
0.464649217737968
0.451121543302511
0.448357120675408
0.444023418486102
0.439371126211665
0.436403493747141
0.446940169693623
0.436927200148372
0.44581176600551
0.444222805803306
0.447874176583479
0.447382013668943
0.450635707019136
0.447090177204787
0.4593719409499
0.44485834600088
0.445150732317603
0.440687216961373
0.440398200378554
0.431018763540195
0.425377569950244
0.427359479675001
0.433436716817954
0.432819165555676
0.429568969198179
0.430010307463346
0.437506458816649
0.429471494293025
0.425155003509896
0.41736728458026
0.423130048807577
0.418731008748532
0.433045732249649
0.422536892236062
0.4272986494984
0.424501856169444
0.426232250285627
0.416248773264166
0.428880192401293
0.417700865539928
0.427260524362775
0.419471863212859
0.422231787797766
0.422138080120176
0.421946192847912
0.432497836736757
0.420597830340058
0.420922552941483
0.42476978207667
0.423170011443833
0.431995060753803
0.423070144022238
0.422487398849054
0.423548942719329
0.438349699691999
0.431098833033726
0.429536578025385
0.429740923767527
0.434416680365208
0.428579750533531
0.439307849279693
0.424769846133897
0.422458460442684
0.434684564776141
0.433664677173577
0.440600616012674
0.446319151771291
0.424473270091183
0.447096988360718
0.438244986405632
0.452767508077154
0.444087669798311
0.461539831205374
0.442664354624495
0.450409097457101
0.443302794618544
0.451403937759163
0.442885604322275
0.460792203189735
0.463953244507444
0.464872485831808
0.46410437775056
0.463468577040365
0.469571857384472
0.479320369334158
0.458640502340124
0.482755156980752
0.491326338531725
0.491893293105825
0.479569057538295
0.506753652441628
0.478170722196777
0.534492996168258
0.503748602370689
0.505659373269372
0.519346498783587
0.52848394129338
0.521380230039639
0.553043349319397
0.542406289274942
0.574481760324686
0.565823681455296
0.573397180892479
0.579487585018796
0.614812585074441
0.605249977723612
0.630949963764831
0.618803686070442
0.648418528564925
0.621056097004835
0.644976954862281
0.62701356828951
0.686271374875965
0.645819438863307
0.698875983496541
0.67677858587351
0.677739086104195
0.64112869142786
0.704345095950937
0.643043880764264
0.689133678301259
0.665031728045867
0.651909749334064
0.665903339125329
0.685963405204821
0.677697202312856
0.660430291591155
0.690847794253138
0.674508688779396
0.655193673230892
0.669222124952788
0.647442912583201
0.655894169203311
0.633569201275338
0.68071238014765
0.653876457771434
0.643286092958027
0.629357806880854
0.687660126841956
0.631144844312845
0.630097800735422
0.64963637160707
0.665019847081686
0.673963415851619
0.689414507631927
0.666358689856279
0.678890165329331
0.678029954232692
0.707207187872859
0.631912452980219
0.657203065012328
0.657205070031438
0.690647111342442
0.671607848106038
0.734799564434493
0.66498256595656
0.678736104882382
0.667715039676482
0.703088238143379
0.669545741053636
0.678285128716559
0.620860349419275
0.672371404686958
0.654443704886792
0.708435632936444
0.640048643141098
0.709209730167304
0.694344240743776
0.673949159419655
0.690366261805959
0.739660689323239
0.643015775430483
0.742684617869284
0.703762393632628
0.688831993390907
0.706672540013699
0.753213620274573
0.741263092674916
0.738976504335485
0.666249416118827
0.694271062085382
0.759990803233979
0.778087280323233
0.758126308228305
0.859282233027889
0.750890921907531
0.843975483504752
0.706518550964241
0.775553326289081
0.718160460911628
0.922427692249687
0.738336126707906
0.799062724486329
0.735973418157498
0.920350805626907
0.875290243919899
0.872381227574838
0.746234636768757
0.87701357260924
0.669115095305322
0.997760433485803
0.82826848473122
0.885020687126022
0.810362984965676
0.89561259246133
0.834831338843775
0.962375563733575
0.838930009755018
0.786935758220861
0.781171819075034
0.866144293152988
0.839843935932022
0.910826135255372
0.761107476044697
0.871969862398066
0.789933209262282
0.73386955237827
0.756681281725846
0.901483392187973
0.725896180659182
1.09843564626512
0.71750554319855
0.810643906709337
0.833165624712326
0.896462937885311
0.751540090861734
1.2099820257597
0.882884028390641
0.864846786008073
0.731171510832758
1.04576333142284
0.602663863779514
1.78857172192671
0.893682355754328
0.996021798546476
0.740930196801968
0.905560390466223
0.936067119955181
1.03855964419545
0.715764912993798
0.874736724837536
0.509106675477709
1.09195026828619
0.560083251948062
5
0.827705678142404
0.88800468432711
0.592877602913043
0.709838656396683
0.682330537518607
5
0.835298685785717
0.886968228825325
0.870508243981641
1.55005952869894
0.842805620128092
5
