3596
4000.36533379555
650.420452594757
1
2
2
0.0168486106740468
0.0287337227892981
0.0166982854727923
0.0322452415356114
0.0123362534727027
0.028752851536929
0.0138595707725939
0.0274637628395111
0.0115147315670794
0.0325515853292808
0.0136787072980012
0.0308318131689486
0.0179996760529715
0.034072673197218
0.0134954925774347
0.0276774326414781
0.0175145218974998
0.0297443796719503
0.0168930476664538
0.0282844961477031
0.0115059357208646
0.0332128356508908
0.0152368793607246
0.0323804625099018
0.0139178256816844
0.0324137560115526
0.0130226826063809
0.0384203088927361
0.010376411479958
0.0227189014150651
0.00795377819478583
0.0303103966974526
0.0143321635274611
0.031013405592426
0.0159146974288524
0.0249614291423921
0.0148840792998776
0.0328338390411817
0.0117340795890655
0.0324921965676752
0.0130594659200194
0.030473664719213
0.0177087318217865
0.033703394209918
0.016918596300308
0.0334274417553444
0.0143357632628172
0.0287225175237901
0.0230932345092205
0.0242285149169163
0.0115581168233597
0.029542498505853
0.0157902885924149
0.0287316908110527
0.0134189910599065
0.0337615506397068
0.0133993063268796
0.0290712112637806
0.018584436367073
0.0229862422592799
0.0163420795567504
0.0363116306399487
0.01374567861409
0.0386620440963849
0.00913487352898434
0.0277803316182418
0.00073558864685433
0.0326131585867309
0.0152186622875475
0.0322894888518308
0.00918719105374574
0.0341581400649483
0.0178447308362286
0.0273169936138892
0.010837503909841
0.0383915821296096
0.0187420948265414
0.0302716769500601
0.00431025726036766
0.0361459649233585
0.0173970538400152
0.0370883157982501
0.0182220294525579
0.0233713631087119
0.010336058084539
0.0439825589163238
-3.43299086648663E-05
0.0374584827301532
0.023410964527669
0.0331951112106743
0.0114720210615309
0.020898019063976
0.00143187120118217
0.0248421265713749
0.00765579862454821
0.034854143794743
0.00279692826158117
0.0341693827922119
0.0103864991138795
0.0188975859501775
0.012392705712513
0.038677636349725
0.0255963860819688
0.000575266919876068
0.0307146819406819
0.0250034504276224
0.0220178101560562
0.0581331887657858
0.0128456901016331
0.0331261192838313
0.0113586260314265
0.0316354513115458
0.00576230144371093
0.0405002888867316
0.00440998924946483
0.039325609600472
0.0139840693120692
0.0371853728161688
0.0145848505530195
0.0337517125580326
0.00133561006297021
0.0529932942604674
0.0166779944683641
0.0282761855388537
0.0135622211550335
0.0263512990358514
-0.00148640304072426
0.0376742098529831
0.0121932567541571
0.0274875815780728
0.0166316020797301
0.0273673776537062
0.00261896670758393
0.0181660420449113
0.0304843343836649
0.0266240039702532
0.0253876096764556
0.0204204847159939
0.0263867605547987
0.0452055908599523
0.00688708560607173
0.0291156436109381
0.00757584830770653
0.0305615872745775
0.0228686825402622
0.0246945155629424
0.00223733660171644
0.0399872549605537
0.00976883101957596
0.0270945444920516
0.0125200356572238
0.0248162422724239
0.0126895462026246
0.031918020734894
-0.00471606736057541
0.0482805352748725
0.0132730128257068
0.0263467772090871
0.0429658522706381
0.0108705453607902
0.0234657435060557
0.0227931280487722
0.0225097123746678
0.0182310140412946
0.0249205622817145
0.0206478054248705
0.0113545527190563
0.0333087316966074
0.0104159361092766
0.0321873490396304
0.0115135473044023
0.025123174968462
-0.0102211514901432
0.0575830792468774
0.0136279447376955
0.0317253588808934
0.0229493907597119
0.028331009998009
0.00969951581840895
0.0274982837499898
0.0220345841218553
0.0185230240749305
0.0201937403229897
0.0161982087433942
0.0167422820403616
0.0360485294482622
0.0152033639744608
0.0284965641850937
0.0150667058062868
0.0138288525383931
0.0099897256006452
0.0462271096648466
0.0251249975610542
0.021234017591989
0.025819870290856
0.00504460840462553
0.0272178610782149
0.0277085392387184
0.0142421438385923
0.0283357601351002
0.0156604641287478
0.0280740696043943
0.0126199969252849
0.0243378725475819
0.0160019963260619
0.0171470140544822
0.0324388913033091
0.0264440303300369
0.0131918424642447
0.0156869995988012
0.0130323048143408
0.0123050959937249
0.0360056192080194
0.0293336033920958
0.0182005103587042
0.0236547704965718
0.00969337614193145
0.0341737822618051
0.0183981923202996
0.0254133186679878
0.0180560249526389
0.0222893329942737
0.0135420725341303
0.0180350584388497
0.010856936018738
0.028430683407348
0.0122904789344048
0.0271356960947127
0.0153667360423965
0.0230676355685035
0.022294268919218
0.0266661150457974
0.0085119260155502
0.0266022234769975
0.0102736805925372
0.0318266258257416
0.016480123530437
0.0196405017148711
0.0152797512184088
0.0209509644133532
0.018589424182909
0.0196899393286999
0.0179209090781888
0.0238602651387318
0.0125949765123313
0.0117006745003841
0.0405727711085915
0.0178699631795402
0.0255839454193764
0.0109492415996546
0.0249457573326077
0.0282230954030901
0.0165646853865213
0.0213422406441348
0.0259798755608414
0.0137022886170557
0.0116895269836717
0.0411525264077794
0.0260755553562716
0.0212312070367199
0.0228119224912246
0.029689704866217
0.0203218198285441
0.0249463360321529
-0.00823080350579326
0.057493655477504
0.0164802621296592
0.0291452286139632
0.0342300619024283
0.023731222267629
0.0224995216763251
0.0213436930119404
-0.0162269379126307
0.0582369418514931
0.0369766252245114
0.0383451635142852
0.0131593586957132
0.0422086172169401
0.00910919502074161
0.0383714059772372
0.00723442856189162
0.0341543470802139
0.0387953171495154
0.0241627759228155
0.0397018790437828
0.018796316774104
0.0431950383630212
0.0311575160369683
0.0237413283014901
0.0193656481010867
0.0237100984591031
0.0195098451101883
0.0248099806061809
0.0285427461732346
0.0211836547646064
0.0291438277541597
0.0175975676577805
0.0418035170133267
0.0211639588968705
0.0352187107360494
0.0158755895685428
0.0384675045747835
0.0243802939829652
0.0390698197371856
0.017261627295276
0.0426660752836949
0.0176079077502566
0.0166998509059957
0.0318323784714355
0.0344149319034916
0.0156976174443577
0.0436510212889288
0.0170358462882967
0.0332379427079592
0.0209242913311285
0.0369647878021988
0.0219346727540243
0.0349094110591412
0.0101462726038012
0.0509712802579108
0.0158692688602467
0.0380282785665449
0.0254390815634051
0.0339342924993558
0.0227238557264009
0.0378913077075314
0.0264693002484036
0.0333716413436562
0.0262865727247262
0.0304031806789546
0.022193449304089
0.0492108911246971
0.00859030443145501
0.0609224441433994
0.0322252072028432
0.042160204012579
0.0334252226164175
0.0352054269024419
0.0372070396355955
0.0340114584736474
0.0381700155783149
0.0410667381237162
0.030012813950521
0.0486772942628205
0.0356425327646753
0.042451314151215
0.0213301187858007
0.0512665754046582
0.0501192574739226
0.0493041889381041
0.0542646526545704
0.0350712510737421
0.0646285835194005
0.0556382577863034
0.0426105128817208
0.068028812476908
0.0416876537606509
0.0663274460931928
0.0402730167100623
0.0688985712079864
0.0466199470165789
0.069546748494747
0.0459696528346719
0.0644573305164143
0.0487424263885327
0.0702606916784602
0.0508729619132018
0.0662696596438018
0.0731785226420896
0.0751268328450916
0.0581776902587822
0.082068070526128
0.0530408644827975
0.100435733502013
0.0532387556344527
0.100296157913571
0.0801846088575007
0.0949747199530362
0.0891858390103646
0.0859945060482797
0.0857655599803596
0.0854920364048552
0.0883878734637906
0.0921566180936993
0.0916794280119204
0.100021916513386
0.0916532838558874
0.101978526484947
0.0923137669094097
0.109193482793456
0.107037059135084
0.105270787481623
0.120699171402154
0.109405083862771
0.11815272167698
0.108759701426082
0.124363834518448
0.140799074738174
0.136424247242581
0.126520770963369
0.132140155919915
0.130556379584383
0.12366931100634
0.141177728260034
0.135827932592995
0.157712278459578
0.124343257868609
0.16828827393177
0.135088226947794
0.153205947039641
0.169932010622674
0.147563260672074
0.163680279667217
0.162022557134047
0.168514275897494
0.195998703048572
0.172238825857025
0.173452553294582
0.174052002378627
0.182725191571494
0.160286140065563
0.205246368999329
0.174044482982238
0.196735957388577
0.180736328643462
0.209331359346305
0.190882271853863
0.20784388920443
0.189216749791545
0.222846244923865
0.201336507149768
0.232529315341501
0.202268652053586
0.233677416937368
0.206393335441399
0.230093501973195
0.231741942153855
0.237110978507136
0.224376766487269
0.231918320123316
0.244639482928192
0.258060973499285
0.252278111948778
0.276237986597087
0.234467708167787
0.273211315664292
0.249473714526286
0.284772630297331
0.25085966482338
0.285543417572335
0.263642987899141
0.293776841473616
0.26469721866146
0.298123372671552
0.266048194573926
0.305054897851158
0.295247979760443
0.307653911724671
0.288866451245968
0.319895481734716
0.313023635681997
0.324237613286417
0.302646771478012
0.344729431358399
0.318469221336665
0.35832884545362
0.320642881561906
0.340413212580901
0.332752992762657
0.373172718122732
0.325344423922286
0.380140791036481
0.3358347164817
0.380597899253721
0.344726093052251
0.395017668801218
0.344020863225657
0.399865770239001
0.371317386047047
0.399318511385909
0.36823422759213
0.406165875055517
0.388810341775886
0.43082734699178
0.381354040200661
0.432821122427794
0.404598496828021
0.427654027214718
0.419503955907194
0.454173105066115
0.414284336870412
0.445463045633441
0.418337191435533
0.465233506061918
0.431995213742321
0.452041127770642
0.432863932475131
0.490267393005047
0.452984713656782
0.470766313012437
0.453020733071791
0.48930643760711
0.469184906212435
0.516558669028537
0.470028539694047
0.521043382454501
0.487749721081999
0.530814035728321
0.498070910405607
0.507867771359989
0.475891350195945
0.54640866135184
0.496341682313157
0.537674321336586
0.517944324114193
0.560534328276388
0.516757599424322
0.561193839880755
0.530252324405163
0.560067926134465
0.530363674071092
0.576835304309241
0.531864548391905
0.606642581697286
0.544288434136057
0.604535091342971
0.565143312601094
0.623206065276847
0.564045365221265
0.628265811965599
0.580061902685495
0.636277093869655
0.565939082584834
0.623754396016307
0.590027549038343
0.652828264212691
0.603310767702262
0.651686696980152
0.617661593193039
0.672112958450828
0.635808995803523
0.677479486857447
0.610258861900792
0.678098326110593
0.648736970880143
0.697963045786733
0.669914606474794
0.690599253984218
0.675375463862372
0.708500287748771
0.661550692205895
0.784744614641529
0.693301782639559
0.738384033773306
0.657879168568896
0.760150606350477
0.662021276771563
0.718172919240289
0.696671085937356
0.77602247806495
0.730226866126508
0.726263177993343
0.721191362756447
0.755666619615374
0.7386266359988
0.750927668917943
0.709808158898587
0.789461178879451
0.730771264416323
0.789032337372751
0.743398437125232
0.823345954976463
0.79255009183717
0.860070662722755
0.776032267139664
0.883738680079795
0.75929249440917
0.827485801788397
0.745652140719326
0.840915313589866
0.781203545350167
0.849657042754065
0.805748949487393
0.859027179250894
0.746291044607054
0.861451953273043
0.799853153134831
0.90200203393519
0.82830354357887
0.863528760502529
0.798401757053041
0.902329961969827
0.883685259702845
0.922259691940233
0.839424626801275
0.891704067139063
0.862266275098132
0.93040651642706
0.864849908617588
0.939867028031293
0.845862590133165
0.916617661165226
0.833932692577316
0.93710352279766
0.864333382659531
0.943578944494656
0.914302335032086
1.00674671523587
0.899340305605755
0.986712396031905
0.885814919731431
0.97245943351926
0.893826723501918
0.986448832050175
0.921006765195247
1.0170142593293
0.957775755025033
1.01410186657412
0.889096584412149
0.977808927061158
0.938003435746447
1.02256864310061
0.936438671082645
1.00540515065913
0.909089172085692
1.00590276926188
0.971935768992564
1.02782074860207
0.95565695573898
1.02956075778347
0.990829618878121
1.03922478207668
0.993729376408517
1.08536392575298
0.999299589978298
1.06035389069578
0.972687768477008
1.09708527052964
0.961370858054614
1.04205269047709
0.973379998038034
0.989934815559284
0.977254326694191
1.04215394896074
0.981973423548988
1.11946661927271
0.988850779316802
1.04625292872517
0.996917938556532
1.12375146427466
1.03021569002396
1.04779891995542
1.07142916802894
1.15104562326481
1.02169209068363
1.1248152315854
1.05888516086154
1.25216307601194
1.04592499135763
1.14210685515066
1.1062437149348
1.14298319461618
0.964370133237847
1.18643845560105
1.11975023016471
1.19332485709655
1.06560161692942
1.14055163030451
1.0007259702725
1.18593484502945
1.05112836259318
1.10160506729164
1.06241343925455
1.16436201805951
1.01641919097185
1.0774843903279
1.05842921802444
1.07743801053221
1.05702347155511
1.16332599808321
1.12765086665139
1.16895774089215
1.13408122510355
1.13000526638712
1.05172929547816
1.17700562337331
1.10799049419608
1.19802640350758
1.08372359573627
1.28833185105148
1.11428997687102
1.15400620371881
1.10847294140274
1.21638582791926
1.08661953211917
1.15315019334949
1.06309796454329
1.25044449629511
1.12326034347785
1.18233248406728
1.07672066346954
1.18604541434848
1.14729717678995
1.13946207248626
1.0378910750245
1.22386699165564
1.07940415221239
1.20030565313107
1.06326275580902
1.13276067487709
1.04959025155695
1.20758362563734
1.15065814289089
1.15454241301897
1.11833340248185
1.16140933651106
1.09719314481776
1.19118655201358
1.11774258420217
1.15512758280566
1.10058871196347
1.13478178207849
1.08420888765113
1.11168178496228
1.12569277308198
1.19570298669878
1.10762666020828
1.20923008240296
1.11286292374671
1.25179905138026
1.07242712478457
1.19293465165177
1.11958317334105
1.23528452207266
1.13667871994366
1.20774295903172
1.11307613619204
1.2298799569864
1.150315792922
1.10661811544645
1.05004515377462
1.13921283706276
1.10279099214258
1.15952370529248
1.07515189808383
1.22099459344413
1.13732440933323
1.14302030575259
1.07811176623806
1.19550758882768
1.11696232225483
1.13342994768342
1.0696220937508
1.12016063550795
1.05781688019235
1.17082936801229
1.08755872799671
1.13986704574244
1.08486884553102
1.17997665414244
1.07037951925489
1.17443509819149
1.12215555599995
1.16334443427284
1.11497665020472
1.14415362180021
1.0647225193408
1.1110723766206
1.07533623195238
1.12515002164823
1.07181595620079
1.13370509575634
1.07499660775173
1.13299657808982
1.08047068113092
1.15366651359339
1.08221686249669
1.11273619662247
1.09506523915279
1.10675449471563
1.06311268603076
1.08375559241843
1.07228486230506
1.13814386256216
1.06370904096559
1.12108392405947
1.07977557098919
1.14733297844439
1.08599073912121
1.11365441152016
1.0231638085613
1.17111915451879
1.05258461599528
1.06102968320472
1.07063237676436
1.15480796361764
1.06747258823217
1.12263113105222
1.00767795160545
1.12388890971277
1.02006108623632
1.05046368538844
1.08323638681473
1.1211392501877
1.02846705460908
1.0838305611812
1.03394499982533
1.11088623216591
1.03297829362311
1.08168140703918
1.01697053764832
1.06578954039608
1.00108700405396
1.02864125585314
0.986577284132201
1.0727908427542
0.957227250223785
1.04036162604955
1.01981684194871
1.06439958877327
0.99356863390684
1.01943840736629
0.995979586047835
1.0226688591782
1.00612384773367
1.01823255341252
0.978410189055829
1.03671149763281
0.986023074888917
1.04034187692697
0.957761062793598
0.99097665911814
1.00504398395277
1.01732241530144
0.964610736569236
0.986803326473726
0.965082231774932
1.0102719167595
0.963148145455715
1.01383046815491
0.965355079818795
0.989071684428174
0.92195776044946
0.973380501322733
0.955326466864022
0.992997069997406
0.921604643479199
0.955570855051554
0.903938553799647
0.936864694693405
0.896367508523682
0.948422435975068
0.904636189079429
0.952184508894839
0.912505971184919
0.940589308599322
0.898058194879355
0.958996241503533
0.896243652252285
0.924696518652853
0.874133925399469
0.918563537721786
0.856526389619805
0.881924114923894
0.866116394134963
0.885070649577403
0.868907023378555
0.919911091001678
0.837790293241226
0.874310344130571
0.855555517543961
0.898466562200778
0.820772623888367
0.862816174287672
0.842637790926201
0.859400367757144
0.832942076107588
0.843946844679976
0.819109480068332
0.834073523923759
0.81114706954878
0.819671552599938
0.783998946063486
0.828258506333991
0.805015329904795
0.816379207683209
0.792903062995354
0.807244882206328
0.778958155792162
0.801726518926173
0.765467274734335
0.801954435338396
0.771445712355497
0.798897165901005
0.758570079108929
0.763560148191794
0.760043167360681
0.769494176106465
0.74122232636561
0.755590850982683
0.759626457768236
0.751181652434819
0.733168615957382
0.761925544985653
0.717979104908609
0.759629357171252
0.734693068944845
0.717912392148917
0.702517960023581
0.729583086459241
0.684042464660559
0.72480351182554
0.700074407166849
0.705840741943895
0.68462996874507
0.707539616590976
0.676246606711565
0.68827806015218
0.674260477282124
0.679586741913281
0.674732289706992
0.694582693154735
0.656335312559402
0.660029204408198
0.649085138994091
0.673589803838395
0.641735761338058
0.652009040416069
0.62599600885913
0.638967024247428
0.616463982217583
0.630762297307575
0.630898806190759
0.633346126317107
0.616469569044445
0.628163793382717
0.602774634531819
0.627117235058885
0.594874006028201
0.620137346166987
0.592094400007404
0.605480737831897
0.585159897895122
0.591344751755914
0.571156295302926
0.593560648925617
0.582153367396954
0.588615199795008
0.563177418517183
0.58755675261291
0.564822004776404
0.576724466842579
0.545286382882115
0.57180869298365
0.550404453658959
0.559828275765681
0.536570081141706
0.55927025311838
0.541426244463579
0.548462228402535
0.537833386741787
0.544632135528938
0.523281965989334
0.532326848693939
0.515428678130867
0.527595918771074
0.50840064395711
0.528340083388004
0.5110002973727
0.518949498307217
0.507915197372531
0.508445544228844
0.501429114150135
0.508421611876787
0.486835535571336
0.50125313538619
0.488901809806304
0.496735697362059
0.482745756217678
0.49127239496284
0.472990276052323
0.476983176053115
0.465881506672777
0.480600615018381
0.4663908993702
0.469253884095056
0.461412768026602
0.470635906036213
0.454901643837003
0.455050549293617
0.449612028568034
0.464836415213084
0.440210798756111
0.44909724782584
0.430301451200737
0.445623704970592
0.434204330284646
0.441393417524638
0.423767508805786
0.441658830015097
0.426728115440449
0.43592104544637
0.413750661285431
0.425169488417761
0.413288582189184
0.417983180904485
0.405932992725806
0.429672169384334
0.405752539234094
0.416623041438739
0.39528428083859
0.406858679561399
0.395171258065968
0.410028928122366
0.387331616364393
0.388120190927911
0.381045557399625
0.394361415707969
0.382593477840353
0.389489817467405
0.377387443434103
0.37838179165132
0.361251322889936
0.37641289960324
0.371511658995708
0.369549815010969
0.364671882305896
0.373691273090422
0.355223353474129
0.363485230875896
0.354668833823773
0.365066220596636
0.356999252055848
0.362416649142179
0.350721022037907
0.354799586399623
0.344662836719219
0.353950393448367
0.335249019592643
0.344226027570514
0.328983224981364
0.350154206064477
0.334232080962091
0.335854661822156
0.329022677394087
0.341441979252549
0.321357138010947
0.331300137373549
0.313619321864338
0.321928946836255
0.320200678114384
0.322021028516301
0.311616968080003
0.315907018932368
0.311627350983825
0.309990347410912
0.306117525169087
0.312522651259915
0.304281242672641
0.313050327511478
0.301289458441107
0.304911155512504
0.298554483002289
0.30570115727415
0.291757907695615
0.30087345206778
0.29443200991373
0.301681118434868
0.294087376010981
0.302965943611026
0.292584197985306
0.298581792835634
0.288337673319101
0.295289793783571
0.286926725149542
0.293271202862665
0.286467381000483
0.296691134261123
0.284147135345293
0.291570646147817
0.277908139852995
0.291069278269928
0.284518748651948
0.293755798522092
0.282148581897227
0.299331799546954
0.288322837811313
0.290178493437412
0.285614166107751
0.296542919524532
0.284703315285066
0.296694792799092
0.284456683589582
0.301008334217136
0.292931626763753
0.303776667657819
0.293869599381762
0.298747401881857
0.297546665481836
0.313198801724742
0.298832468174476
0.30750310885439
0.305476024864478
0.309287200955052
0.297909517068508
0.310313836665052
0.306776396799013
0.31838447740018
0.307182194336597
0.319680732587439
0.312716390079497
0.319799673736552
0.31883681840352
0.331582398579758
0.31537415054386
0.32950823757762
0.322078626924782
0.337941408215108
0.333488479421998
0.334109279411886
0.327819210407484
0.342392087794651
0.335603135781661
0.347581629781861
0.340759904251171
0.351894982511366
0.344067282101744
0.3566397159467
0.348908605645087
0.355414827259435
0.352540938301464
0.362900659969742
0.357729195943874
0.370305429096063
0.36215210403805
0.374257141809711
0.37120572237819
0.377231611174087
0.381322829469561
0.383269223039327
0.374345936015295
0.387981494789151
0.375206238312966
0.393216405192159
0.38329114377225
0.397574174581482
0.387627766531982
0.396355482600028
0.382885354194043
0.39451678695085
0.384931414508549
0.398735525547369
0.387982386005676
0.401494684375831
0.391965663171652
0.39515898796325
0.387195241003121
0.399063151318876
0.388787847722313
0.395851606552019
0.385089115337669
0.401344987474205
0.382182873832205
0.394913023364028
0.376556015025259
0.391247945291922
0.383080445381417
0.392356637148927
0.381342465698812
0.389548681689023
0.374370519761091
0.384443525363807
0.385189019267775
0.390454334641799
0.379164010160813
0.396211256232748
0.377248595732479
0.384729919337142
0.377581489980861
0.389664832971518
0.382282077021187
0.384819357640552
0.377386946401442
0.378824042327494
0.379712149512867
0.393789887244066
0.378804986788788
0.38636533554563
0.384843134711977
0.387067223895227
0.379311088712927
0.382697431150097
0.3817472045888
0.392043388476147
0.377427998222256
0.3880144226752
0.375979804660675
0.387260824553669
0.374004883729594
0.386761308806611
0.373927828815747
0.383020926421763
0.373305142380785
0.380634564566224
0.372505470825356
0.37571159947409
0.362679622216519
0.372228881382281
0.35910663769499
0.367500612792588
0.361647289336186
0.365163465974533
0.356925427459509
0.360061069942179
0.347829870941077
0.357879972139887
0.343679860869002
0.355728801535805
0.34018638320515
0.345367332255784
0.335397115535999
0.342047937652904
0.329094713915378
0.330878659283427
0.32515094004476
0.322075275947153
0.315887514222044
0.320380805533012
0.310832444011268
0.314361065596037
0.303222782454507
0.317135371207889
0.304396708349393
0.306168562133442
0.296492978027641
0.305057232951691
0.289196470797552
0.295251929235292
0.284127152475739
0.291768628204607
0.283109288084064
0.283114972124828
0.278373210750303
0.279937933776014
0.267999341694151
0.27906211907808
0.265627848530575
0.270513788681095
0.262514058814426
0.271276566984542
0.261654396173177
0.261165207930153
0.255983656440056
0.266020258555645
0.249100005754079
0.251551917995954
0.251814566236382
0.255635972457702
0.2416723193836
0.253497135081937
0.24408080229679
0.252421800191013
0.239603742646318
0.246524715085026
0.236441161996605
0.242203669491152
0.236910977877187
0.239766487369509
0.231496176833451
0.240897503679462
0.229343389632295
0.236640242275084
0.226029224200288
0.228471658507696
0.222346386536436
0.229259249241563
0.220311277561735
0.228848231182884
0.220521141297282
0.227317637431154
0.220519019808684
0.224058620296608
0.216524764131319
0.220778975933841
0.212448694494435
0.220915929805188
0.213436094115516
0.213427695176397
0.210262409647434
0.215953076745305
0.208630806972466
0.212964783321039
0.204501658649088
0.204696996677041
0.201608946560025
0.210560919352387
0.202551790706886
0.204079513501888
0.203003686221209
0.20416422977228
0.197808493210109
0.200833806222617
0.19909964931504
0.202173090241027
0.193034375414161
0.203072356907067
0.191082020817519
0.198703742879299
0.192856770512117
0.198751837390826
0.193152677283898
0.192075359083612
0.189174564873801
0.197590422246372
0.186563149827654
0.19409564610821
0.185365697030056
0.189609962436835
0.187889080573669
0.190979903554089
0.182667097949253
0.186850578648851
0.180684042941675
0.185807739552544
0.179392626249485
0.18709098998251
0.181836704395533
0.1880808684476
0.179288548728883
0.185957745501232
0.178586793875081
0.181673123054583
0.17652364701131
0.181932637111523
0.173118380857611
0.180184310343689
0.172327291657915
0.180402495667928
0.174352113102723
0.177153991883114
0.173341431220788
0.174959517813796
0.173865295083055
0.179499019758251
0.169059823913997
0.176068931071559
0.17268275570537
0.175396009190415
0.173255371155102
0.171701225270826
0.168201982924245
0.17452362973908
0.166719442466151
0.173027845762731
0.171226167201994
0.172621921826438
0.166083589266416
0.17067848952519
0.167750501347233
0.172233761228266
0.165788297408214
0.173497106736105
0.164942052046233
0.170347520587056
0.160396512827953
0.166615300336161
0.162326378826341
0.169889053777138
0.159565528118288
0.168852750447243
0.163026366988297
0.166448470792189
0.16180303830379
0.167655983029566
0.161098162189619
0.168285410535801
0.159904233868947
0.162067625441233
0.157433382029231
0.164460000965662
0.159245621916203
0.164388068393348
0.157810452404679
0.161633098894993
0.153399665124841
0.160156655483554
0.157313008344556
0.163593924030642
0.154270159021391
0.158054869565444
0.152808948283523
0.157903720584236
0.152368339044697
0.158468118081748
0.15411630317053
0.156602588249445
0.147720429206717
0.152657489890898
0.150765860396228
0.152267952132422
0.145960994955493
0.15275055746544
0.145931570841737
0.151481138871348
0.141942718723438
0.149351407883069
0.148753489926779
0.150320593045176
0.142980781217099
0.147866664062313
0.143195055722896
0.146399369056095
0.139819970643907
0.146543887779962
0.141480445484582
0.147356359371686
0.140507669784576
0.145093622252294
0.136833149068551
0.14489077862567
0.139452315330249
0.14232700327457
0.134274540747156
0.142142811335575
0.133436216886592
0.140089696579426
0.13922811151484
0.140178698206799
0.133265402914328
0.136681809601163
0.133366810065566
0.138635359724844
0.128241326985734
0.135733629285922
0.131868668027841
0.135506590083528
0.131684013201468
0.132411959633298
0.126689946712239
0.127803425787146
0.126055541388476
0.130178894903595
0.125597984653661
0.132072707881084
0.124579703647026
0.12915159566106
0.124009538996624
0.126205200665091
0.120112460853704
0.121841103540827
0.120058237228405
0.125895478052722
0.119743615360877
0.125416088615485
0.116019741492769
0.117919316673406
0.116059848139397
0.119163599450615
0.114766651271526
0.118380563827816
0.114366263143657
0.11823327101467
0.111811219449359
0.117815177474621
0.111300988989736
0.113507703216152
0.110998588441621
0.116294234954066
0.107131449101641
0.112631418581906
0.110760277692915
0.110589670062
0.105506157549622
0.112483106350663
0.106135195651695
0.109007094393502
0.103691337664768
0.108147071943895
0.105187600687104
0.10692831802712
0.103570054944553
0.106966964178789
0.101707355690006
0.107142152151337
0.102648613681835
0.107602289932932
0.100328136091632
0.100687353142443
0.0968299791201245
0.102362610311516
0.098404363410476
0.101786499196398
0.0996102665661071
0.103758395301828
0.0984540839008015
0.100525498491114
0.0972156606339825
0.100450154350633
0.0965343526910086
0.102737757591937
0.0972284220351744
0.0974204854514982
0.0928933889533916
0.0981947595712715
0.0919383609407096
0.0963820650692991
0.0911978158735624
0.0946575565446044
0.0902471144274718
0.0951318116970206
0.0923563522346964
0.0935026681075053
0.0877032987356327
0.0947424021841272
0.0915247503045253
0.094578584109774
0.0880768523607667
0.0913398106973552
0.0895094127935987
0.0941118519030333
0.0897462077169375
0.091489495671186
0.0901886622647158
0.093301939377344
0.0846048836721176
0.0922512371948962
0.0865430302568746
0.088799987917726
0.0843284561976592
0.0917870522655558
0.0858748734784832
0.0876934711560796
0.0821649592976188
0.0890688765121095
0.0867676192873817
0.0888927322227243
0.0853092640212567
0.0903650845594007
0.0842116707955177
0.0878397683467243
0.0840930312759561
0.0881609806048339
0.0827063063844163
0.0875991533673058
0.0847668029344216
0.0880427003366838
0.0786684045899394
0.0875734150893201
0.0819319522556074
0.085876057220363
0.0806878767030814
0.0867700506877637
0.0809613591458356
0.0841544195317624
0.077766061816814
0.082684611021152
0.0786570305098877
0.0846400205387044
0.0816425901957561
0.0842404688508493
0.082677345171451
0.0838434116595006
0.0795206984290176
0.083962264073288
0.0779260781968326
0.0807838553419527
0.0804951192618138
0.082238622455547
0.0763308752287719
0.0821062042135427
0.0782131618591021
0.080175489920836
0.0784899724104446
0.0817892247925692
0.0769838430127325
0.0805142601337635
0.0772049790687649
0.0796788804989635
0.0755703827871489
0.0836176060762058
0.0748113593706502
0.0797595083670922
0.0749021334164422
0.0787776976359014
0.0754819812453092
0.0782900806591686
0.0742269585076474
0.0785738036062141
0.0747499589619032
0.0758877463897274
0.074572365055179
0.0778243921501819
0.0728341515915239
0.0756540295170929
0.0728488610314831
0.0767590864009207
0.0708050314924107
0.0775093940566532
0.0713414434744148
0.0751685890536159
0.0728888496668575
0.0770062763808301
0.0712074431902539
0.073998981515411
0.0705229057733045
0.0762888217909622
0.0717420589716912
0.0723070828957451
0.0699650458133406
0.0757070221674309
0.0704569785000334
0.0748163838126993
0.0703944714321354
0.073021567663724
0.0690415877679217
0.0724887110866217
0.0685167985119242
0.0733169517248506
0.0670306519634618
0.072886521738793
0.0698175079926248
0.0700336282795507
0.0677095623427881
0.0727181344178467
0.0684454884254375
0.068579592222279
0.0654751631413911
0.0695057281894108
0.0670809206368829
0.0715736325039498
0.067316600954457
0.0681408721190989
0.0639102151360511
0.0686241848755954
0.0639067833005029
0.0683085506694956
0.064731061409574
0.0676543631466919
0.0619946990186021
0.0659423209740435
0.0618361920856126
0.0673307541119927
0.0624612130458569
0.0640923631664758
0.0612360178772424
0.0655392829782502
0.0604971365020727
0.0658456532515731
0.0608261172328681
0.0644247830144414
0.0610244776429293
0.0644162083408819
0.0618367736292055
0.0632015988910998
0.0575911201284144
0.064597943089646
0.0605293866839996
0.0643479238602818
0.0588045687937144
0.0609921418765463
0.0583435894815535
0.0620388726587955
0.0569679180646839
0.0596461762611345
0.0531463879189858
0.061088792709008
0.0573181589629393
0.0595306734938092
0.0554468530230802
0.0614726328969134
0.053711431423317
0.0586303511289561
0.0555720350505223
0.0590779207752329
0.05479866364806
0.0568164582962712
0.0520880506162125
0.0578154844414512
0.0513223794005687
0.0553653714735593
0.0531174220006153
0.0575183178496009
0.0506367686876883
0.0568877842437571
0.053965820789596
0.0576353250024777
0.0514813038169135
0.0537384788502636
0.0511309316653238
0.0545415259809408
0.0520577340328065
0.0566583043850432
0.0514932477299986
0.0549603466850103
0.0488882178996787
0.0543354852783943
0.0487210575226858
0.0532902144047659
0.0486299247205966
0.053317614192147
0.0508296927678913
0.0520716862139734
0.0472327735062831
0.0527036533437243
0.0491018484954014
0.0507794524491494
0.0489706634320565
0.0521471847892027
0.0467383222562509
0.0528941368912934
0.0488329183808642
0.0510219120475077
0.0477368417340882
0.051334648842238
0.0460509033819983
0.0495504033762513
0.0440556192193953
0.0524363297929877
0.0485409637106531
0.0516858177878084
0.0483618928567273
0.0506131222403287
0.0457118455763244
0.04984718093223
0.0450497877264673
0.0497712515169227
0.0462723804767703
0.0483975801558286
0.0460934281793928
0.0515406989153042
0.0434889489007182
0.0484715610499716
0.0447164447989477
0.0492006308410184
0.0445666333665961
0.0483399988481488
0.0425957549509823
0.0486385649369557
0.0440840860928137
0.0476008238766122
0.0440000691881595
0.0508943698132451
0.0435199695928352
0.0514353012179716
0.0468639994134258
0.050856358892085
0.0464731777880456
0.0524482205565079
0.0425875503118521
0.0447925021100745
0.0348522659050294
0.0430689235861846
0.0397243095519087
0.0482980359819704
0.0388033598656506
0.0427428136690091
0.0359154995331575
0.0450451110694239
0.0377633653927929
0.0466984279619112
0.0361598762351271
0.0473302120490519
0.0415787077202437
0.0439643613836832
0.0358963141072598
0.0448710831255929
0.033584455724499
0.0505002414968932
0.0344773083421768
0.0481000336723878
0.0405329529557633
0.0481907205940512
0.0373535834695213
0.0501821329338754
0.037249328169955
0.0452502114933401
0.0396611229152031
0.0436165507248397
0.0373109573391162
0.0442548484705866
0.0340133227544209
0.0429534061495443
0.0374214006937066
0.0473513013778718
0.0400177696776794
0.0428380150960096
0.0398726969163974
0.0374544658478371
0.0404837147708826
0.0354681393745722
0.0484184924117196
0.0407629697206929
0.0514764075872731
0.026491024393339
0.0483414191336948
0.0264781174037724
0.0660999252740681
0.0251884946682864
0.0581498685521698
0.0108497794599288
0.0716838510989262
0.0157998036395424
0.0659460554104181
0.00485191805432489
0.0741917729269916
0.0179271834359218
0.0628874205407707
0.0233017070638954
0.0630044015099415
0.0269132926619876
0.04784161716654
0.0390547176277458
0.0417315697030095
0.0457215580855582
0.0357802450322592
0.0474487375744612
0.0348104253631741
0.0466540564289712
0.0394883066851748
0.044033605166714
0.0422443888945441
0.0407109092422269
0.0447491726880343
0.0418181520663437
0.0456060521163612
0.0397748195021475
0.0435977724556064
0.0425567122719706
0.0413106253399037
0.0422727796159327
0.0414960010859092
0.0411077573039969
0.0406357141577836
0.040691480179849
0.0422800319417375
0.0418024548334638
0.0408608256123225
0.0406614567784722
0.0414514900906542
0.0429827898858688
0.0422512682554028
0.0415957265904671
0.0408903469824942
0.0430669216084272
0.0412165933197441
0.040985104129891
0.043548445473585
0.0432483749615967
0.0426087217625852
0.0421866879561705
0.0421938141957336
0.0431840162721826
0.0423386059596866
0.0427535026108471
0.0424459132702238
0.0434228245380856
0.0425705962594628
0.0438765953136614
0.0426127044218614
0.042181877547241
0.0421941025894032
0.0430948694774333
0.0413414532832618
0.0424279972087007
0.0424040729651796
0.0424726345966705
0.0423856875732096
0.0441816472122988
0.0424623018253637
0.0434653529351493
0.0442404063857408
0.0458589037289555
0.0428503090741395
0.0420709135471219
0.039934734678374
0.04292109420043
0.0413828996841627
0.0431901311452081
0.0418977412210428
0.0437919460520497
0.0427921311109512
0.043845723796043
0.0421485105315601
0.0452256929653805
0.0428959329007526
0.0446762725444096
0.0442896041286725
0.0454136016600814
0.0420109780403577
0.0442494245025319
0.0416053156094206
0.0438601046225141
0.0433970060661095
0.0431129284619626
0.0448708066325977
0.0448957171295162
0.0405535211607183
0.0457099467252791
0.0432855144068157
0.0432248428557148
0.0426619202568813
0.0443391493657724
0.0445810940383986
0.0449410634481533
0.0426212921632199
0.0462899195125452
0.0419203694556407
0.0442783744911691
0.0434371071727503
0.0457669645612492
0.0445382476971161
0.0455519202991452
0.0432331128561005
0.0440092813271032
0.0438415353244137
0.0463820511570796
0.0454711916446933
0.0440639829611335
0.0432098402581931
0.0478765849016531
0.0450155778660092
0.0477460347251358
0.0454285570882354
0.0459842506656912
0.0439393634483864
0.0463026049133655
0.0459525013500451
0.0468152180745015
0.0457792361595928
0.047823357232778
0.0457568124728586
0.0484551697757408
0.0463136543110199
0.0473923863608748
0.04668105010822
0.049405262775472
0.0474841485175011
0.0464397174854315
0.0454137491765931
0.0453971948150076
0.0461182130141321
0.0476101266246753
0.0444626915058359
0.0475030910696954
0.046688389562592
0.0483325367420929
0.0447943085825924
0.049674927976925
0.047438498064387
0.0474291003422412
0.0468260902249908
0.0467422540192108
0.0455488688619706
0.0494507271612306
0.046943785915232
0.0507247587174916
0.0487847453472922
0.0485740235482097
0.0464704436018472
0.0483268807378736
0.0464239411776919
0.0484144032414569
0.0478783415573017
0.0476968678447411
0.0485477434111743
0.0504942425437664
0.0475621885779513
0.0502410653361713
0.0468547989049219
0.048429721207538
0.0478735782931203
0.0503191275637358
0.0497233065398487
0.0495668030696138
0.0481373443402068
0.0500518402890503
0.0482591788864607
0.0500653312686596
0.0512959222951639
0.0492630219933274
0.0473927175207528
0.0502722608007311
0.0469830219576478
0.0509766530479024
0.0503475387959863
0.052056081851508
0.0482354477346492
0.0500138741715105
0.0483272381011303
0.0490663300502471
0.04953728087804
0.0495380201105968
0.0483338552245153
0.050413101149472
0.0492642712065993
0.0512675460702862
0.0478657674846799
0.0496270387639047
0.0494560654953732
0.0498726410656409
0.047421722518164
0.049050254429918
0.0487548646661572
0.0484877739171254
0.0466149912475764
0.0469767620904289
0.0482106192055643
0.0476870383605491
0.046909425347952
0.0499804140041693
0.0471101936801204
0.0503457225892921
0.0470464074030827
0.0491959723807799
0.0454463530565785
0.048572928594697
0.0471221205702647
0.0487232204061961
0.0461242982951619
0.0492657462356286
0.0479871508747276
0.047888051443794
0.0457267443354252
0.0481865335876146
0.0467625535718758
0.0484432488341084
0.0483521878086011
0.0463763312574386
0.0448450871320642
0.0485413213474147
0.0465322899783815
0.0465346296278637
0.0469784366797035
0.0472439506518994
0.043491614955983
0.0474310334026871
0.0458395525852893
0.0459272801790206
0.046970512941753
0.0488142094904794
0.0450502371066836
0.0454722163358813
0.0436660668029165
0.0475855786988871
0.0439955388860627
0.0443607824393314
0.044514745578859
0.0468079394008901
0.0465282597641016
0.0458365591017402
0.0439642982830753
0.0463100410756823
0.045391173531729
0.0484281315892718
0.0454880470974887
0.0463581591817481
0.0445269234234615
0.0445552153520378
0.0435705961655502
0.0455904899143752
0.044485662204906
0.0480590041675749
0.0447899187045097
0.0463986455184645
0.0448608818064358
0.0471827287288678
0.0445055128641405
0.0475655551335228
0.0471059572189335
0.0450352652338898
0.0438130200885493
0.0459669664105591
0.0432152365379057
0.0458746856592977
0.0446048818879245
0.0461065819503105
0.04287697521475
0.0448525617474901
0.0435695822824904
0.046429000904088
0.0421985064169581
0.0462049181450205
0.0438143021516981
0.0432857818266572
0.0436119903500522
0.0430599008492666
0.0432290159077689
0.0449917767041763
0.0423404232621466
0.0447543212103539
0.0445816209221665
0.0443152343097986
0.0427242866093079
0.0448049142497033
0.0423533983621969
0.0442556288483687
0.0411922241883602
0.04239983853168
0.0419090357430403
0.0434701403019741
0.0453570912143169
0.0446453724088781
0.0418712114778222
0.0443174554085436
0.0422532578004961
0.0426014080961567
0.0409311652268972
0.0421346533336197
0.0410309055123515
0.0434193298795055
0.0429136051165014
0.0434876349283724
0.0398442231745168
0.0426134686813496
0.0404225828184926
0.0421188174485007
0.038703331711053
0.0407652246078386
0.0402534055394584
0.0412970188790287
0.0404521278286938
0.0407182382677869
0.0395463173499368
0.0386554381011614
0.0391935585616391
0.0409227773808784
0.0369053079748655
0.0403609941086544
0.0384716507340686
0.040531524078402
0.0364295546730154
0.0408796934514036
0.0356938992833885
0.0413006497317588
0.0382658480830945
0.038712701083785
0.0364178146879187
0.0396552092649146
0.0371370903358836
0.04080409913719
0.0357617171226599
0.0386010686040196
0.0360793816870758
0.0386749953923995
0.0346269368336194
0.0397703259558104
0.0348716447962234
0.0370072237093833
0.0360894245003068
0.0390200202812458
0.0347898624840007
0.0385850121256464
0.0337618944262528
0.0397263478097548
0.0321556318252843
0.0418739768052493
0.0388515844684909
0.0362144567141824
0.0364607349009168
0.0360899814258262
0.0343024380520515
0.0358922575437824
0.034579611164829
0.0373419000793113
0.0351575157347003
0.035853634186703
0.0350899759974106
0.0347029865480552
0.0351164597397617
0.0339599924868878
0.0338014115953571
0.0355502619115932
0.034396838834784
0.0379119955335318
0.0353196888375287
0.0359748915648551
0.0316189082018262
0.0351388024301673
0.0330425271773599
0.0358004772185814
0.036101464040149
0.0360451596603606
0.0377097737622666
0.0357777153443309
0.035365623594151
0.0345199043814396
0.0340849852318566
0.034774314788864
0.0337917318130891
0.0336052326754407
0.0341293286009633
0.0337829495879058
0.034268709279735
0.0338209640226247
0.0319602551453352
0.0349054379618711
0.0317754092111713
0.033505451737437
0.0334255154066809
0.032244690904803
0.0322705197776735
0.0329218925104398
0.0331910308676809
0.0317662317277168
0.0340229347663975
0.0312638996937564
0.0344249638031981
0.0326263682516142
0.0387147310763361
0.0367332445509507
0.0296484319149089
0.0354920109879274
0.0307141015922546
0.0328277667875694
0.0322769091306611
0.0346835693270699
0.0311817592028033
0.034639030329629
0.0323789737762058
0.0328060114305873
0.0303722106201955
0.0336526319022858
0.030319565931143
0.0334368630333991
0.0304953559536623
0.033865452300781
0.0313084162837014
0.0347994406806981
0.0307298231011113
0.0328327301851417
0.0340097187223213
0.0323429205285447
0.0318271256789031
0.0337265883726985
0.0274007318912398
0.042340494751838
0.0241369154288481
0.0382358161388502
0.0283855518300527
0.0355226434598101
0.0265670121504582
0.0366679159198217
0.0295594937578061
0.0369041112423734
0.0295825197526481
0.0325240349947151
0.0317889363063562
0.0313512074908094
0.0310129506705749
0.0343006235172795
0.0302531022482
0.0324464415733911
0.0309051892621507
0.032422768313218
0.0284557148258447
0.03514321905684
0.0304687598133886
0.0354601007558664
0.0277514041643298
0.0371469995173679
0.0292799983451752
0.0328473140758476
0.0301942077052502
0.0360388276331817
0.0305293950841939
0.0380619126386648
0.0320171924088499
0.030423447408417
0.0347714574503979
0.0305964441239186
0.0336684534568287
0.0306905920601967
0.0304498397984722
0.0311919417310532
0.0318635262138353
0.0303740392828425
0.0305307750306867
0.0324543825975503
0.0314898165600517
0.0299523308510946
0.0327852992545878
0.0322135238829048
0.031983170992632
0.0346830638616794
0.0288257134324308
0.0346033242568034
0.0297938552670038
0.0440613947913388
0.029697148131058
0.0377674207034016
0.032730317817736
0.0343918176164831
0.0283995907542232
0.0335428897083457
0.0289524321795077
0.0333878271242349
0.0328789939785631
0.0317614489361171
0.0304432292135558
0.0333268934607383
0.0298961771025155
0.0320911352333162
0.0295372890353484
0.0318434508522129
0.0322779471442553
0.0330235305900788
0.0329792243699571
0.0292016617697941
0.0355103618622295
0.0307401295607625
0.0363068815430005
0.0273208961800423
0.0421676039935074
0.0251784250555006
0.0490166524027952
0.0306529944566694
0.0362144142321649
0.0350516161027143
0.0311598120852959
0.0337951925621782
0.0322960566622133
0.0337122867291506
0.0346451995184344
0.0311666869716174
0.031945110777811
0.0342002996834325
0.0315650237393895
0.0348550230910164
0.0314168285349927
0.0400395324499776
0.0410197388190333
0.0309403510118642
0.0378165394891888
0.0313957957624293
0.0403777104591613
0.0412646969782466
0.0272568102677481
0.0378689034842794
0.0294948259646883
0.0386414781154097
0.0325501869461475
0.0365418491564144
0.033775884021089
0.0390227613954726
0.0314998748435345
0.038152492698571
0.0343815624091706
0.037043485707515
0.0392439695909945
0.0363199770304512
0.0376398369318058
0.0375643883020498
0.0319029429866143
0.0411718125888741
0.0327786798306012
0.0372228214255402
0.0313835280326305
0.038698158338648
0.0342577424183498
0.0406438649309409
0.037285072465494
0.0385505015636578
0.0400685419101279
0.0429054571344258
0.0341280027878296
0.0443442773660701
0.0326701721897476
0.045736950041926
0.0264666197025231
0.0539575353984655
0.0420927548056947
0.0425587036903236
0.0448496518204926
0.0338337559908687
0.0432796503901695
0.0373654899408909
0.0430062375705429
0.0315529346613313
0.0503763812855773
0.0318576410772205
0.049073391085011
0.0332978044285982
0.048746024249683
0.0365373609418702
0.045040122082344
0.0379088777886237
0.0456983507676633
0.0357927614692376
0.0476594914419991
0.0375251055797716
0.0434653526056784
0.0559028999279782
0.0357651435060462
0.0516594029697674
0.0412845472519127
0.045685286734432
0.0523097399159
0.0366869335145637
0.0482410833437375
0.0387217779760912
0.0502959113388638
0.0414675508049675
0.048736431062497
0.0563694493061152
0.0434311399449708
0.0485672503929043
0.0468553427621532
0.0441428434895182
0.0586988332246987
0.0449983770979151
0.0506855037129256
0.0450701043132047
0.0589003152545065
0.0298355155698537
0.0741098187561023
0.0394121091263878
0.0664597843736987
0.0538806179006773
0.0577666388113876
0.0566964933540473
0.0570219743341306
0.0562751950859575
0.0613006811790007
0.0540147598826316
0.0607295624671219
0.05116837960171
0.0694521941708568
0.0632436340291713
0.0535420551801699
0.063869814249127
0.0563661112524716
0.0662101153774362
0.0838241844471675
0.0700753837995134
0.0654737993700339
0.0703948163521593
0.0677037920159911
0.0773916058447363
0.0636877676431647
0.0700610112084354
0.0677507045917933
0.0720693326479334
0.0735874375370175
0.0728244923605897
0.0797267099531047
0.0704955444521842
0.0813515582033997
0.0705785708200364
0.0855950969576652
0.0896823311763127
0.0903166062407965
0.0952713483731618
0.0777635894644353
0.0991695104493485
0.0773102535032835
0.090305231755758
0.0859424894688321
0.0924704360727237
0.0887781050944812
0.0911058141365908
0.0940587257943372
0.0897177051619545
0.107985895115929
0.0927106407838851
0.108421609115955
0.105299816862759
0.0972909190157375
0.110260616157562
0.076736049118197
0.157012173692204
0.0975119887392781
0.138232288783755
0.0927739725956558
0.162009535407092
0.137497492104244
0.138516250350749
0.140439874969679
0.150342633133858
0.145631167104511
0.162161220771637
0.157426897635035
0.171231500902579
0.167607934420496
0.179549120955244
0.160719959225802
0.226332368986281
0.195247703937975
0.212221209200047
0.201646665802894
0.213252128914334
0.213978427752749
0.226903647136106
0.215633628550767
0.240628384329986
0.21358699842754
0.267222385322065
0.25481067462692
0.248647298591345
0.266777860646432
0.263640183581431
0.284381135632928
0.257723765682781
0.318030398182996
0.283646766724389
0.306022275120973
0.297036887746153
0.308534876936232
0.310782628338138
0.322028076413556
0.335899629308869
0.32386752282177
0.335129594208698
0.336105657586965
0.343435444496015
0.338454082682933
0.350695291654652
0.352104634380323
0.351764244437186
0.378455704756343
0.341866519574332
0.399255962832763
0.355751295410802
0.371615066234322
0.361214280219746
0.370771149157387
0.386201754647745
0.353923152803905
0.396307885136518
0.365595772973452
0.370994060984444
0.370436364939586
0.365091654318135
0.374883092212147
0.367021307911403
0.374740563587839
0.356962773978564
0.390428310654444
0.327014398147362
0.408938948821114
0.368825927483712
0.362647047488688
0.367008761224801
0.365674097583143
0.35661122264802
0.358402776958835
0.348786376909409
0.352461398996703
0.349975571591063
0.333718973595872
0.348076291691586
0.327307049629017
0.355757396339099
0.336275143478077
0.325462087478296
0.323918743873666
0.316586708751948
0.320225827427582
0.296232309339763
0.33097609332415
0.313742734223399
0.294843729291598
0.305952583579617
0.292648215852827
0.298270821604718
0.288943263961962
0.290188272782126
0.28724792161617
0.289640519355819
0.278097681220923
0.284364925616615
0.275306738024005
0.279835234696183
0.274152598832534
0.281533225701121
0.268152115768008
0.27628319676547
0.266630077992491
0.269932293308426
0.266339451876031
0.270576135207476
0.269449968571413
0.271522435156418
0.266141318714324
0.272766305027934
0.263371840278427
0.271324421085429
0.260518798198847
0.26647066119468
0.262868295131176
0.264954516050668
0.259397727007414
0.263599107392262
0.257558467841617
0.259953026074186
0.256636603027297
0.264823309373509
0.256831895220475
0.257758236075403
0.255994359322303
0.252389368851239
0.257955335667874
0.234608401477886
0.283401098385488
0.24613680165675
0.253259549063195
0.250972350172964
0.245177398188895
0.245853207888546
0.238503657385749
0.268665345065078
0.23964561877974
0.242071401864982
0.23829460911968
0.236783113428391
0.243054210065945
0.238646235674073
0.223923350812983
0.242075895826688
0.200021960697568
0.294367835654905
0.206795858986614
0.270193465342255
0.231848364103198
0.233828515390231
0.215854376459784
0.242602320206615
0.23016407336997
0.213485607365087
0.230519586086026
0.212476986516037
0.228225767036849
0.213268623143205
0.217695489113227
0.216745579802056
0.204751111202515
0.220022840062788
0.221072181740728
0.2039660510192
0.220600889933431
0.220178556520933
0.197806920150257
0.22566831843516
0.219064487003914
0.207316371094978
0.193455442574737
0.198898541548857
0.196448106690957
0.199247036433828
0.20597476018904
0.18695624600588
0.194346525397884
0.180419820728951
0.189437232971857
0.187360043857528
0.192307667841096
0.182496624216069
0.17789388414063
0.195288815792506
0.157596939708637
0.196548283987472
0.163785971232632
0.200025862851971
0.173163621442699
0.177292981341048
0.162198227634624
0.190629784166351
0.17489962753894
0.168832629520858
0.168610206179035
0.163667921263378
0.164107155941528
0.171934867879988
0.147895224459734
0.169129411540524
0.163334312673649
0.171162388079357
0.178345751108255
0.176304428196761
0.164944330320583
0.154912299563708
0.153474665945593
0.160324901142123
0.147735643011023
0.161698698068077
0.132058979259334
0.175390239155982
0.148672440929479
0.162076804550428
0.169665043722132
0.15452187788897
0.160174675185329
0.16563088630596
0.158777810324298
0.177912201231744
0.172523756382821
0.181573194696597
0.159979901010046
0.180403343396757
0.176430072929537
0.180002572966069
0.180086934997412
0.182703864580008
0.188909340780502
0.186873700178824
0.197883813531724
0.200973538700109
0.197290957954731
0.212883713039507
0.203164622209947
0.224648584618933
0.223995284324275
0.213192423596731
0.257842436564849
0.226964221249491
0.257048080015753
0.23913007104612
0.251373082103663
0.253643974606477
0.251953448498404
0.264117008380571
0.258713388890587
0.275046004978119
0.276071086856473
0.267199506231315
0.281520111976689
0.270449340750915
0.290905506030436
0.277196005673023
0.308825614076239
0.267298384250246
0.321260475292576
0.295205844697975
0.302391657364403
0.298887038180766
0.293323961877717
0.303341316414795
0.295098357496625
0.306288705738223
0.303892615452514
0.309374521217958
0.315853768285688
0.304940088013439
0.309885958952936
0.308525824185553
0.311121806304707
0.312220587892138
0.311123467449862
0.319944091473985
0.317225527643173
0.325520999237519
0.321507173228282
0.32081481619584
0.355905241899688
0.327730040280229
0.341899764137809
0.332067598724483
0.340832891462614
0.336776334195445
0.342410956480138
0.354661338257302
0.348153824505719
0.348895511504822
0.348416573020305
0.351755859533013
0.36266225499418
0.357156894143656
0.370637552816361
0.345861387782511
0.375786837456807
0.342959530395697
0.394864572044116
0.367734305520309
0.374087197966653
0.375600850564114
0.367868467999907
0.372012412220753
0.372766949072429
0.3743441781044
0.379234131465304
0.381514516298636
0.371842510895493
0.377978269857557
0.370603164874542
0.372590310001513
0.378415726373282
0.376127885049704
0.378034588450215
0.367257461669121
0.374710469148873
0.368327580869
0.37427132822838
0.367509709832483
0.386656197574171
0.367229072123245
0.376134949826269
0.372701457538814
0.374527145146693
0.379244806618005
0.372551090212268
0.364425031432821
0.372501407493385
0.362825585059758
0.373780590558146
0.364808997692952
0.377183220701856
0.385132286676969
0.375638204379392
0.381534250742192
0.381186301404843
0.382115093037271
0.385417305870657
0.387927640622422
0.387575937444635
0.391865927144274
0.388501963234671
0.390691066783641
0.3863825564694
0.393986939187566
0.390845654081259
0.398256252236643
0.388230545655286
0.38335214881646
0.38593454396901
0.381155741912646
0.384530318504062
0.378141121108706
0.374376770831583
0.372717457121365
0.368919676162782
0.364775955549401
0.363249760136371
0.369678337448058
0.349974892672439
0.361035057579618
0.346276796016251
0.354241109897178
0.341939322635337
0.343304313767757
0.336822149080764
0.340014147949657
0.336995211760434
0.33528773067409
0.332164231004122
0.330444495853992
0.329451018674282
0.330531868014761
0.328625698550996
0.330181527954182
0.325329374177596
0.327241401032184
0.326310045336828
0.32842003778145
0.32465444918936
0.32766094208089
0.323117279623115
0.336351416763366
0.328432539731561
0.330243619724856
0.319136253512505
0.327921592666653
0.324555646680251
0.324007635232073
0.32367164817852
0.322888345255545
0.325663786120503
0.322946029699336
0.321701392631283
0.319799321451426
0.321391330479708
0.321968272680786
0.319482637538941
0.323621747119764
0.320792709295761
0.31596206319229
0.320972784625018
0.31693347702038
0.322852507470879
0.318983909232138
0.32163172436772
0.319651958870824
0.321604435677268
0.321119243195128
0.320148255203125
0.319727013591085
0.318743219933045
0.319037669586742
0.319165383920852
0.320696046846982
0.318944584084131
0.31588107745764
0.318685757587272
0.316536554147512
0.311165254454433
0.309398266102781
0.311445645019452
0.309031383909406
0.310270214363492
0.306104227299242
0.298554216951908
0.299607007573669
0.296791851676234
0.29462743324396
0.292779597395587
0.288794869545596
0.28557928475676
0.28315575668535
0.282665117748014
0.280264286494439
0.278907504490106
0.276638939317127
0.27689710689046
0.276483352484806
0.27477313000288
0.274101279688388
0.274848129587161
0.273342373792793
0.270713579670563
0.27158100558953
0.274027908575161
0.274463917291657
0.274609742918977
0.272702304731282
0.273209995984035
0.274281498496489
0.275522223737352
0.276103465638391
0.279203037209857
0.281055925252783
0.278292308640701
0.279221789842097
0.282253926023572
0.282752406862973
0.284054052122167
0.287150192238379
0.288569430779943
0.287275008073213
0.289547074747374
0.291977187831815
0.290344818679205
0.291465002407376
0.289662681322834
0.291003894049694
0.291158664918331
0.293976420451117
0.293389869108392
0.292496810642182
0.292425844648997
0.290855593498969
0.289598487831199
0.28976095921576
0.289528993226388
0.288609338717054
0.286608102222474
0.286580565537238
0.286423492672775
0.284501316880637
0.282828133043237
0.281116866024109
0.281173314297026
0.2804741382667
0.277572656943416
0.277594627764077
0.276066683038514
0.275455839354653
0.273452683210256
0.273971966626048
0.273546182469031
0.270899970941424
0.272077883789742
0.270651045880946
0.269304765274151
0.269253281038379
0.267692742062726
0.26580991841709
0.264754353195965
0.266486933461969
0.266514044695895
0.265099424417614
0.264253056812848
0.262257527186872
0.262470781834512
0.260672656040395
0.259470710213929
0.257724296049634
0.254665449144204
0.254841565905456
0.253015138436171
0.250725859695889
0.250200527806018
0.247724060567374
0.244349697132375
0.244644377827952
0.242220061413341
0.238964582407688
0.23884956222158
0.236319467310575
0.235781055725874
0.236887542631775
0.235205394864901
0.233968947063975
0.232100312303349
0.232251085294052
0.234212119080685
0.232975373251592
0.230750924904437
0.232251768576564
0.229088170080008
0.231052191185389
0.2297354216457
0.226961041414513
0.226292307539092
0.223898954312628
0.220522142785387
0.219595092919069
0.214999277981977
0.212617490598928
0.210071841529157
0.20904121901315
0.208839654803813
0.206449212117899
0.206515946938014
0.208802401469733
0.210544049904426
0.215722141478058
0.22036775363657
0.224591564545148
0.231722482903248
0.238979960233588
0.245830661278119
0.256500322175276
0.265183448346058
0.278150836353582
0.288973658187816
0.300746563573367
0.31155703730985
0.322762704217908
0.337878593322924
0.350137595654349
0.362964697753565
0.374670821162719
0.385280404579556
0.396650968466974
0.406083932256047
0.418730249558414
0.430773176726987
0.439621095434875
0.44995145024119
0.458649446038296
0.465551294558454
0.473255974303821
0.479473499227223
0.487557949708478
0.494484974295836
0.500950892726197
0.502826297955272
0.509112272317459
0.509344766819043
0.508881338099401
0.513769322177127
0.516507793827202
0.517826223498699
0.515711403000448
0.516250892649713
0.513926556476023
0.515582077278665
0.514904828266801
0.519508879853181
0.518299824235303
0.515620993231428
0.522044072061428
0.523058394070611
0.524077984807815
0.529502744310054
0.533709454271173
0.53746165465002
0.541877867361505
0.544748424989287
0.55290943584864
0.555241500435127
0.560257123597184
0.567120192923464
0.575405980288728
0.578974297602006
0.591509800240548
0.599810192053726
0.601584765470418
0.610771710609875
0.625138004549164
0.633684626371784
0.643907756372744
0.653597954081406
0.661541554826739
0.666795451934915
0.666591783239301
0.67114932062397
0.674197633029235
0.67201778569903
0.669398329913498
0.670274613023013
0.668932015972718
0.65659234149089
0.652853992460674
0.652320001879332
0.649925754290498
0.648932102852099
0.650416463485264
0.655547537345238
0.663265826789947
0.670318825323745
0.683221704297405
0.687219867842444
0.701357486421729
0.709035178268084
0.723293494350407
0.732796945828962
0.750795353638341
0.760396137317293
0.774851307574531
0.78237034333466
0.792183903651743
0.810300847340626
0.819647515569222
0.826174600628538
0.845552493333286
0.8573291587148
0.866801820927275
0.888673964786424
0.89404979722155
0.910449093715398
0.930001550338024
0.941383887280275
0.949406668905249
0.975143018224986
0.994041751216859
1.00352882807779
1.01897320363255
1.02662911729717
1.03749685145249
1.05984048413236
1.07014386546428
1.06151735420218
1.07683075413136
1.09294589153171
1.09801602222354
1.10969364636997
1.10219452085778
1.1226814939437
1.11813842187137
1.09578588313952
1.09877611377918
1.08822015235942
1.07850968029268
1.07527526294577
1.06953727730184
1.06035086859737
1.06002144095085
1.05023062368457
1.04126882219064
1.05870501358441
1.05442253211815
1.03927351259876
1.05746877441412
1.0669330701147
1.07624842080544
1.07693951493581
1.08663022171479
1.08876894008396
1.11748150605334
1.11236336972198
1.14862838331455
1.14099914517784
1.1405475904352
1.14026517014035
1.15635059840892
1.14230465219907
1.16804174257248
1.17279880242521
1.17390852793606
1.14760345007882
1.1759223879701
1.17844917472425
1.16932369177106
1.18183323354807
1.18804824978038
1.16379719605111
1.17462233409786
1.16135706521571
1.16274509468907
1.16884767945499
1.16374047522858
1.14226355065241
1.14909420426739
1.13251055207646
1.11920020141876
1.13172490348139
1.12746239664905
1.09289262674087
1.09917146215233
1.08153358445297
1.06195775930684
1.06653316460652
1.04683005930099
1.01658083438875
1.00873198800189
0.962691483952323
0.937288771381703
0.901983724780796
0.871760322969251
0.842104473709804
0.802559921277984
0.768857290256924
0.736022829805048
0.707505182878786
0.683566843382763
0.664069506073598
0.643559319124308
0.628557689356946
0.611811723042004
0.601089599465325
0.601857086405948
0.594307178893457
0.590255973518497
0.583761324897348
0.581125570782011
0.569033084737472
0.571668872342286
0.559221689227652
0.551764996740661
0.551032589297231
0.545694882576316
0.530959336280059
0.525482443262529
0.515055312923856
0.49833690385414
0.493072006701619
0.481601938203576
0.461808442203007
0.450715101307618
0.432773187187611
0.42352684093295
0.402929596147514
0.387180031249495
0.368363612336385
0.356785331450494
0.338551991555379
0.327989483952732
0.309487503800624
0.293823810116819
0.284032184596217
0.268789042839515
0.258717204396684
0.249009492356987
0.237854744171524
0.228198423079021
0.22156561232367
0.2169409670294
0.210652927856711
0.205585071381341
0.199810519809615
0.199262490791785
0.195855555678392
0.193522210279358
0.1891074183205
0.192459632784306
0.188993399918625
0.191184562356731
0.188677981778136
0.188171228643615
0.191413962332861
0.190733432608418
0.191121679025236
0.193505923887899
0.192780831431474
0.197294966715531
0.19667109639067
0.2006240071373
0.193444115870262
0.200210635317795
0.199153103153991
0.201596348681277
0.197880736581961
0.196899049518628
0.197389758241838
0.19602930789284
0.190821548450608
0.189625312833741
0.189537681600608
0.189714297520474
0.188709875754679
0.189059864114858
0.187907469691117
0.18658378723493
0.187056978899912
0.189607595762885
0.190930555093963
0.190033379607779
0.192680849480441
0.195658488991236
0.193173363871913
0.199514808732671
0.20454502349845
0.20412374084488
0.20343849566072
0.20682072242055
0.205999926255439
0.208034100253669
0.204965202763857
0.21534234466844
0.21288551302495
0.211627034422542
0.218125544904371
0.217473624890851
0.216020196813014
0.216546691827274
0.215300544110354
0.215401429940335
0.215598888057798
0.222007384507313
0.22541961552806
0.225003203025738
0.231724200163179
0.233880550867575
0.237128652882577
0.241035037687464
0.245044104010577
0.253021983054183
0.257619490346726
0.274462961130187
0.275710198940795
0.279272693283184
0.285949907807573
0.294969461533531
0.302272549363475
0.304819092482825
0.30264485333704
0.303435453504263
0.294362148025473
0.300130781221095
0.289493582424148
0.283751153385331
0.279710344525363
0.28357727262112
0.27530780356841
0.274074474525821
0.270281215526323
0.271519169983105
0.269586029421146
0.26678069999924
0.271919249266034
0.277448667847828
0.272042356944559
0.279419092526146
0.270041568975949
0.274173343278612
0.267564348087859
0.263466806628523
0.267052694874945
0.26674236945619
0.260731879394791
0.256983498218799
0.259386980785286
0.253139262433654
0.251359428331877
0.245502304112723
0.249119023483991
0.251443102167589
0.252132482850187
0.243363508694885
0.241171161926069
0.241284079482028
0.231743487869982
0.235973056547067
0.234748225306302
0.241847710196147
0.239555378161938
0.241791739541824
0.23312889249018
0.239020376654913
0.225630745869799
0.229830124564844
0.230974323313661
0.231888353213081
0.232862496142466
0.235291215287847
0.232955182558747
0.231096818920355
0.228233992523165
0.231464978661247
0.225056378500853
0.23075689965197
0.226325215001649
0.225998231687713
0.225284965288622
0.217853745129502
0.230624118418541
0.228076195689719
0.220033678232063
0.22089956933138
0.224031591689367
0.221895625837792
0.218921720115331
0.217237745550092
0.227983512812209
0.231733337472174
0.225329772218095
0.229083561616686
0.219290761009019
0.226800833911491
0.234066524788966
0.234642420799892
0.229454629365765
0.235484790132166
0.231890608230454
0.23639771658013
0.236761897316088
0.246029075458341
0.239647810614758
0.233473629718777
0.23905220269201
0.251979034612157
0.242861349531645
0.245222523857786
0.246197915952373
0.251551135229947
0.248338369691907
0.255094769525521
0.257229796525279
0.2683999426057
0.261310376583223
0.269242918727223
0.27553417860465
0.281314356221588
0.282867883086637
0.283591567255399
0.284406360722229
0.299601308861448
0.307447482152645
0.304895894527259
0.305840881541381
0.32522778283798
0.334405854330777
0.345500666431638
0.34407265197071
0.37490255835673
0.364818867963037
0.37212210536635
0.376978263667811
0.387234870326334
0.398606558089095
0.411691058184085
0.397569540158281
0.405366815462797
0.402841833539962
0.428955165962882
0.397380162307644
0.396518815993044
0.374113932190413
0.391048539062535
0.384972972403219
0.384218063008237
0.379654779824399
0.391037448758667
0.387085962550247
0.384660190618678
0.383495825426309
0.383598215526801
0.382719350061711
0.383901859620927
0.385634123941579
0.385073464009099
0.370378759387617
0.387300008614026
0.349109870633441
0.37428182995426
0.371049435225339
0.3633664528741
0.362376048632699
0.361619175572161
0.345598801207354
0.356139234910324
0.352316729779225
0.353292427060133
0.351568956357542
0.363233833974651
0.336166575069896
0.380920863291965
0.363025162798387
0.357696825526944
0.351987017251916
0.366188069910461
0.362844733507328
0.359030975267417
0.34465186972846
0.361123507757532
0.367178090631509
0.363503260461361
0.343955634135079
0.351020467002612
0.360143147958326
0.369804979538823
0.350181080161366
0.382325533188043
0.374726108638249
0.376821115032195
0.368198426480715
0.378103156096786
0.375739702759746
0.381073430961035
0.375702577667112
0.39967862029597
0.377222612150445
0.369911276455563
0.364134599072655
0.398444590144837
0.405313342399752
0.403437825493138
0.38534121283811
0.387361298341702
0.402278124910101
0.413868728244971
0.382279440230354
0.457605453251022
0.422597421458988
0.46269394240684
0.461851160488781
0.454299563392938
0.423365693398026
0.454903780770598
0.453865759036891
0.487790228569898
0.451525237341922
0.526126645511643
0.443599981794121
0.505926450249839
0.490315276620473
0.535768101269254
0.508361587027113
0.548535293978383
0.4712613404705
0.470360575866086
0.530779188280554
0.48819854342035
0.497311455977193
0.464525405676917
0.442958060793897
0.451522136354094
0.498427853483195
0.530202475210819
0.449298046769522
0.461714186389777
0.431993536638787
0.598607316839931
0.435048654528441
0.491316039784971
0.446957995128818
0.392210859252867
0.401709194860155
0.460553038186618
0.439765014162685
0.536344126778025
0.536389686979305
0.583260645902822
0.367875941799534
0.487441735742727
0.436161075027561
0.539395437880092
0.416686413112333
0.529134879762419
0.367153557002145
0.477285445275094
0.340849333078397
0.506041018764046
0.503172951258828
0.536497773806325
0.468563511731278
0.456101166573435
0.433766163494488
0.430875399395
0.439439440090735
0.501068005161842
0.352402159967343
0.472130182716852
0.519180290824641
0.48505709606875
0.554523471552572
0.479883028301731
0.361845025188496
0.559639478742397
0.552654853926184
0.448044443251148
0.543191031676592
0.559743817188139
0.461784191746041
0.440590299512571
0.512571291536509
0.488047875576035
