3596
4000.36533379555
650.420452594757
1
2
2
0.0651286178417052
0.0620295500687088
0.0639287980968201
0.0663821485526958
0.061567584472264
0.0571460028487514
0.0533396624310669
0.0604248315741426
0.0604575143881151
0.0624904698918341
0.0561896111513357
0.0580869885941446
0.0594053259758188
0.0646613039098482
0.060985105105681
0.0672629760993573
0.0589620011749784
0.0582884568275108
0.0611987889796915
0.0651942874779176
0.0525453012188547
0.0612772448219953
0.0609652565928109
0.0577594814093887
0.0624891030250613
0.0684056109619181
0.0625396900215961
0.0619255695959985
0.0577886312989631
0.0517223146748923
0.0577171714323898
0.0592267898458196
0.0603217371087284
0.0667599983828299
0.0594631595722612
0.0590463736276063
0.0601817608187376
0.0623733667880312
0.0572710442758853
0.0652941536451825
0.0618527605470831
0.0603438287127942
0.057995841809844
0.0630670796028224
0.0590653609491196
0.0650953888235139
0.0629919844977746
0.0590711785154887
0.0632182462062671
0.0616604058454124
0.0592406293401304
0.0636451583737887
0.0622508648270627
0.0622220920577119
0.0575144083835346
0.0697632398543461
0.061232944802125
0.0689060515376436
0.0666386416587299
0.058962010005251
0.0652016250600046
0.0681165840853756
0.0630210609655005
0.0702938400534569
0.0618460246918153
0.0628612064364109
0.0525820054500143
0.0639360227767863
0.0508968373078598
0.0589573086610863
0.0707922597586936
0.0673547350134276
0.0636910971479301
0.0616267887873011
0.0610533839940763
0.0651831761355188
0.0619327109328714
0.0559559067657654
0.0579922232587252
0.0677588554435214
0.0693748036509783
0.0716091877349256
0.0575138428428807
0.0627412334898458
0.0606155953304673
0.0635190222414418
0.05062229808233
0.0647904642379182
0.0726636457910071
0.0608801549532268
0.0615901009637706
0.0662106000980082
0.0555599487896497
0.0589189548217097
0.056928068910734
0.0619654198847475
0.0605388195651643
0.0646040017856141
0.0634255976797339
0.0567690488355286
0.0730466853074506
0.0717178661845814
0.0719515456171606
0.0582467020865147
0.0720268954424213
0.0675495069734112
0.0595687802799129
0.0914395370417683
0.0589109386415092
0.064885647727208
0.0592919705790513
0.0626175234878198
0.0610512546531557
0.0701791914970889
0.0622057335364088
0.0660076003685403
0.0633378930262047
0.0560931341932972
0.0642449768182023
0.0588619102903774
0.0604912141140947
0.0809533499437071
0.0804656535182792
0.0594881873428509
0.0639405720021705
0.0600214043864436
0.0624577740877227
0.0718963900608219
0.0796153190779667
0.0580745132220077
0.0609923184008844
0.0567551476939946
0.0573076386365942
0.0607154617104432
0.0769164643149874
0.0695699214411986
0.0726521288225635
0.0658570037777394
0.0713435985044515
0.0802615808930661
0.0547743825931687
0.0583153257643942
0.0590667853579664
0.070604924857656
0.0783728457738971
0.0577189904403215
0.0525916263449462
0.0723179568060004
0.0681214203769269
0.0592742463183781
0.0629244357063135
0.0617539073627511
0.0616757587331956
0.0629983702812369
0.0620124233321509
0.0884435189893905
0.107196889681051
0.0591517976259647
0.0802461700316244
0.0536142188840999
0.0671015613175327
0.0620301090192381
0.0629245520994066
0.0614545133860354
0.0620219999386294
0.0681316978197325
0.0618268370915528
0.0671483597576524
0.05782394614347
0.0676319220218201
0.0677800718170503
0.0740817897798619
0.0582098328491909
0.0780009587730949
0.0665207398220537
0.0646383817786864
0.0804558717019121
0.0644876326164299
0.0606530881212765
0.0736909113123174
0.0797145024418293
0.0581783446969336
0.0594997263297858
0.0589173873456684
0.063357433898586
0.073107494396379
0.0693241107583532
0.0687528328297587
0.0641252221495459
0.0531503562609502
0.0774729508509158
0.0777776698014334
0.0720142063212936
0.0585681427410133
0.0707866246948136
0.0673396594600846
0.075633438214278
0.0800832720467234
0.0597043806356709
0.0624626470344096
0.0595000143517155
0.0600907031128678
0.0618811957915113
0.0576508673589031
0.0667966680309076
0.0734436113001505
0.0749431364911682
0.0633380324170111
0.05733029831325
0.0666446515481851
0.0667206534753952
0.0770504155523663
0.0884699784319405
0.0755100218936985
0.0610344765485261
0.0683716799646141
0.0649733780161041
0.0772314332534486
0.071436376694265
0.064217239153323
0.0608076891674297
0.0641342338619905
0.0608735231067418
0.0610055665881149
0.0572061864254621
0.0655704993051242
0.0632667522789452
0.067955331933494
0.0634956250683034
0.0663782915409495
0.0686521093833994
0.0690720500015111
0.0604892262397024
0.0687561205036532
0.065893177832243
0.0705218400002462
0.0733133613446779
0.0605447188682124
0.0629564502852553
0.0661139753677069
0.0664162807186307
0.0642327926213917
0.0670465047888583
0.0665078476850747
0.0665879709300688
0.0664087026120422
0.0856122966186524
0.0754163820709378
0.0623172043597208
0.0657395485600295
0.0660724143309014
0.0750575227812405
0.062131386343631
0.0743151277365377
0.0696562086277874
0.0703832354638254
0.0639528275928098
0.0896093387875659
0.0676197850283094
0.0730466220871346
0.0758219977399166
0.07434034952348
0.0670369114015721
0.0764015475585184
0.0680270008236899
0.0991517838670119
0.0733630676109563
0.0917591174002065
0.0947375620417149
0.0768766600809281
0.0686630046526641
0.0786180579478377
0.0703832246324802
0.117130996289637
0.0812819139823532
0.0765382437311416
0.0706186713976693
0.0823107110411177
0.0633293714628249
0.07162335756354
0.0788660698553793
0.0760878520607804
0.0973148426800756
0.104393538244634
0.092210010720037
0.0813345796938261
0.0835447983848624
0.0841564192113627
0.0680873630293919
0.0736217459623322
0.0649884448849828
0.0829918729698221
0.0839667031016919
0.092231764107188
0.0720617971186436
0.081773604201131
0.0763132886595384
0.0922323620363336
0.0749725250212614
0.0833073210834811
0.0797296854732617
0.0936200785814289
0.0791765058687788
0.0850957220443838
0.0832558597539272
0.0870867014011492
0.0814374047486761
0.0923222600504553
0.0911565764136898
0.087828661789974
0.0799686483686804
0.0964547833915146
0.0785936371836337
0.0860700812217811
0.0816148201529048
0.0895125153415291
0.0865876013234657
0.0949696562871709
0.0899750798436089
0.103625685552939
0.0911005280787024
0.08785221290891
0.0882962017063815
0.096584148263789
0.0934978449297456
0.0930479771088157
0.103620405085057
0.103176481751236
0.092870401560116
0.10319975343591
0.100614356826558
0.11280633367063
0.103422298817295
0.121311516841669
0.120630124142792
0.105150214992677
0.109591363346043
0.109391368236147
0.111647668808448
0.116772624511376
0.119576184676527
0.12446058308921
0.123952281743214
0.138101050559336
0.126706730025254
0.133034475077528
0.141414802927234
0.161047360029774
0.156778456494412
0.144553754561353
0.144016630321238
0.155089601605032
0.162920824879905
0.178448959289613
0.153688214386052
0.171264677852388
0.158378714202109
0.169567451374124
0.162840652620063
0.179651405610686
0.175762630256106
0.185466298764368
0.181339321672924
0.193377826164371
0.199923907549443
0.198142618679103
0.200511658860935
0.216811517466323
0.226205441263333
0.220730440817925
0.206795029656827
0.217231966775283
0.226451103900967
0.243330354277767
0.246295932173131
0.25565386463199
0.25036395558817
0.255520226789815
0.266752381533859
0.263580415707479
0.260168211443774
0.264300978153678
0.261521601729408
0.267175319740558
0.277770641875133
0.284462998923299
0.281538951797149
0.292130675145976
0.296824814543274
0.304135751236371
0.302583084988793
0.307257050400972
0.325611436850199
0.323896981223083
0.315992739774813
0.33157134817136
0.350413738311312
0.38522413366312
0.351572124820498
0.363017074024298
0.359508073705931
0.370028078119373
0.348229696317512
0.361680153957614
0.360858224979306
0.395213336205537
0.389370238176486
0.409342788440795
0.400472455112619
0.3977362571793
0.396314601224059
0.398969770666506
0.413950873310902
0.437715366135147
0.437107502917328
0.45205493052086
0.422609446502831
0.453018092437608
0.454880873212725
0.459718467870048
0.437685213324209
0.465090290066735
0.453097269792803
0.462927516279274
0.465018403471672
0.485516392968214
0.477308656262031
0.480098131552171
0.484189562349149
0.506443000287196
0.49749252487075
0.497520983873873
0.49726634285386
0.52584109269241
0.518079537792772
0.514774626957249
0.50548753477859
0.528994101633955
0.5398557129442
0.558019300733444
0.559874515428975
0.560612648187226
0.530486264176677
0.583581433147158
0.557018272589627
0.584319176224731
0.584923427457589
0.576659671514187
0.587023698036371
0.612448189683547
0.586859388766629
0.614418397361881
0.592428586996966
0.62694090316898
0.61288141200717
0.62909676258759
0.632920682558575
0.649200673292762
0.618311876378988
0.6373877247333
0.64059905280644
0.68852960819367
0.681664410554743
0.706784009612602
0.714572049124772
0.716268175930867
0.665756792346017
0.670042202846941
0.659360509046495
0.703702242845627
0.728346806197668
0.736715482981601
0.698666850588953
0.757881473005688
0.765625063954366
0.742453887340804
0.696757382667008
0.750709689228992
0.749233204680548
0.752887374555062
0.753261309194282
0.763200498992143
0.744933695870037
0.770336116711405
0.764837567419534
0.780345815708372
0.762189923904336
0.806864092934242
0.746668375517208
0.795966945496646
0.822953757487524
0.816006577767978
0.80428392870621
0.853295970160993
0.853060213671451
0.871267310474556
0.838240256768556
0.910099904466036
0.849695487415274
0.871054638626074
0.869687812314945
0.89840093740807
0.856609328173286
0.925091148520935
0.863297047714076
0.93742808661305
0.910697861187517
0.900163734884638
0.928365923014743
0.911234631230563
0.889116159771608
1.00956951725035
0.935319554095328
0.938293255497354
0.93878041568683
0.979908570415555
0.971108884635765
1.01886919338997
0.961432605835108
0.946929804654723
0.91292601392995
1.03098048610917
0.985254919216436
1.03349457933099
1.0401897421395
1.05461749500057
1.03477483542432
1.08970857475681
1.02018152171026
1.06799575808993
0.970674871657239
1.04955264634489
1.03565177449863
1.03465794483553
1.05474831582253
1.07304332600199
1.03504427062037
1.00200045713553
0.993886134820508
1.16083183418062
1.07667859168528
1.06030283676014
1.13100450892999
1.11000823102448
1.06183874165378
1.20995781711194
1.13976552134779
1.1257005386545
1.08596043727198
1.14254422866044
1.0768261789466
1.25035882702045
1.17882599051589
1.22119384142821
1.26871254035683
1.18600164526095
1.14105985765153
1.1729175094296
1.10520456213832
1.26055910638039
1.25404745701792
1.27179907145323
1.19516257514293
1.23933788123312
1.20493100790212
1.31279175069834
1.18623324558979
1.24469822183399
1.14841387475655
1.31892060049433
1.17791653707664
1.17836981560866
1.17230228124269
1.22523641639071
1.34502396995968
1.4171306275417
1.25606791967894
1.28084442518894
1.16296124180541
1.33151496884022
1.26439058882175
1.26692271066876
1.29907466115054
1.47196337699285
1.24837045784686
1.44454626775257
1.39127396738256
1.41892310847739
1.43561864340796
1.51123886485468
1.36122324097477
1.3912986735945
1.34762014256459
1.46986659225083
1.31867359200482
1.43671601839525
1.29167179847631
1.45364426908182
1.3710323891802
1.29238152292136
1.22849180346325
1.34865953193933
1.38479704083755
1.4772346317679
1.35747772133003
1.50321952875793
1.33490951344374
1.52543221339022
1.50177058827794
1.56246699114914
1.43954997821267
1.59342059747238
1.35477014613206
1.5025291548679
1.47422865078232
1.51408537138094
1.42760979492077
1.6358385316908
1.52755669708288
1.70221719787148
1.45702790989061
1.56654504938199
1.53763775101163
1.46191945007638
1.45279594723674
1.58897715207253
1.49189665891065
1.76256868618536
1.48861319692599
1.54159631799864
1.57654286970175
1.58924067669993
1.39335640365611
1.47908122012342
1.49897792937766
1.6244287323734
1.49999579132705
1.74305042778267
1.63796421288124
1.63492592291283
1.47791771296843
1.80592988925766
1.45463053693693
1.67354688992579
1.82024471182395
1.80039476488962
1.54132641111721
1.66000667363739
1.53042710576271
1.71630507796222
1.55287482839981
1.92394028068725
1.67117685727919
1.86052028707082
1.71813685535445
1.63301363785998
1.66682947559982
2.17251949686356
1.80143673454866
1.8805284748103
1.7525740888587
2.01798286464739
1.75647641227226
1.73200271565841
1.63279721039606
1.67997998472859
1.73718594570925
1.60667576226873
1.50607772071479
1.83118758474085
1.76129240765432
1.73903958609925
1.58382946671444
1.82876372444844
1.59624629299796
1.8003799539103
1.71353632188796
1.74669252198536
1.67074851108103
1.58204596060526
1.57395675104208
1.65736025354386
1.59840862302987
1.83472616562231
1.73256640160848
1.74792293377342
1.58540414432998
1.56934332379381
1.62038502541185
2.06601734463941
1.62334813713095
1.99026122702784
1.76739494842894
1.76592783383366
1.68490733893176
1.80516280567415
1.6437822718944
1.91537582783002
1.80780652382135
1.74579853329727
1.5760693859148
2.04048630395839
2.07593527360589
1.94860890217227
1.63375106687004
1.79660020631518
1.81264422364708
1.84991139736349
1.78455148917551
1.99111223517595
1.52657577478326
1.7321981497736
1.59192619838019
1.70874364220805
1.60635823102079
1.69327387748095
1.70876223451177
1.92923138883495
1.73042951487134
1.74747978352957
1.80532594774557
1.90786999448077
1.71248905752197
1.77674854665265
1.70818477203194
2.18466467969153
1.77335635466398
1.75637093484617
1.82364368949614
1.82673122881006
1.64435363868616
1.84336373602065
1.73972995040982
1.83011701316579
1.64314701252609
1.95496878373906
1.84293523967253
1.68375250726881
1.71106957342528
1.98788396672387
1.69697605203314
1.70476073788757
1.67545051547264
1.68327175070232
1.65687429086398
1.74733445567789
1.76200234985237
1.72545333314221
1.69326430225815
1.69310542783554
1.69148284795615
2.01270030184232
1.7963853982129
1.7769777279243
1.7349416859057
1.98826573600163
1.65482460265582
1.75522463441372
1.70102383863708
1.9100596060852
1.72039189163348
1.84066789940734
1.71903050200534
1.78278651239924
1.78458027875847
1.71077741766274
1.71705050600561
2.64585971239605
1.78884400346056
1.97344625069015
1.87814100097091
1.73998880904898
1.63078256122589
1.82030382008256
1.67168111797628
1.74046841545813
1.81878428142162
1.68634846531132
1.76758001669514
1.8939792895854
1.79286767707395
2.10022592380154
1.65698653754279
1.68267293654016
1.60948287480866
1.70274691754866
1.79139329585886
2.00786390447889
1.58044776952075
1.61614333271188
1.82059755858329
1.94382225269044
1.8015468848487
1.8648501664461
1.68348533488442
1.90586181276011
1.65187653656996
1.86463719629199
1.65219094793327
1.82623376746997
1.66520790263185
2.05645645981937
1.87582989835409
1.83979454979905
1.58069988455468
1.77277897049459
1.67588766181071
1.69068614573958
1.6051309870959
1.78202229613211
1.77989592653369
2.07486608508557
1.63056081874028
1.86070594841471
1.7339299271094
1.9149802879772
1.85364666101804
1.77189950284951
1.75287349286998
1.798220364502
1.74031047096674
1.82499487920851
1.69902175505489
2.0302101057489
1.8351049192614
1.70741829663497
1.75544949785322
1.71895321678923
1.80568531886812
2.12355734963766
1.59211505426492
1.79316544896344
1.59782070722489
1.82834090825962
1.63194490919184
1.83372501649682
1.85791129076399
1.68200755171561
1.55968597139888
1.61432323276857
1.63009231309035
1.88352885446377
1.6638396029181
1.57664916411372
1.62218900808545
1.72299590983796
1.65393458873147
1.74585539181214
1.55381251322858
1.80209346697542
1.59703899318688
1.76256813624612
1.64799069660373
1.7521116211104
1.58662903715021
1.67687208757881
1.54254531542693
1.74049616427655
1.6075100952446
1.76504837373645
1.55701022827435
1.63906191151308
1.5196118880695
1.67685118611785
1.57410199041505
1.64752253230556
1.65285544463547
1.65398126210572
1.5236513033284
1.65526193589482
1.55022993880088
1.57370153023521
1.63080970430415
1.71222457566719
1.6058475228534
1.6915430079308
1.54778627048295
1.54594779307848
1.50743128266478
1.50727325982598
1.52479622102228
1.52279798706597
1.43815120823372
1.51787712033283
1.53459718492223
1.47686059244327
1.45538087731947
1.4959691754954
1.42518044542966
1.59843443752879
1.44265928810671
1.55056300969165
1.36969713687297
1.41963458942519
1.36621667385731
1.58439605899057
1.40296112725466
1.44855443712401
1.37587560715395
1.46594515407667
1.34838763305579
1.40787154074452
1.32182488024181
1.39216722902347
1.37553960672617
1.47439326421309
1.37654156055568
1.36921879364566
1.29137386866843
1.34433342963627
1.31563697620306
1.39162975271392
1.30696272432122
1.35091202977709
1.27685378593255
1.35017565257847
1.27162834376907
1.2633227994094
1.25733771005111
1.26378218162935
1.25239824558766
1.26392243674088
1.21345347462721
1.29377612731872
1.22740074371049
1.31341242524409
1.24346162749424
1.29576044691721
1.22543988816118
1.1990581810322
1.19539716149575
1.20371301464927
1.14934497660116
1.18819722248374
1.18996635514644
1.16243213396996
1.16416731151144
1.20485155574718
1.16413988729923
1.17363582340758
1.10130078494135
1.14154176719491
1.11196452049741
1.13411245823408
1.09995381690469
1.16076637028858
1.08708780029255
1.11750242626409
1.10286295537837
1.1056810489937
1.08031211239662
1.11047707717723
1.06965148884342
1.10911473409352
1.03679508789611
1.05314730945763
1.05053609504311
1.0710754246607
1.0594157638887
1.0803916907504
1.03679312285243
1.03764924856267
1.00618361023682
1.05126356316282
0.995483855096885
1.00477393071002
1.00047500131966
1.01863913736956
0.956132545730702
0.996224015284254
0.957508176955239
0.98250820777529
0.97478989051592
0.979846210203976
0.940278366663422
0.957057942476183
0.931156245863462
0.94636980557788
0.905591638051171
0.942668597258588
0.911210823284556
0.940510790897585
0.924117848190852
0.924510359401481
0.895588679325696
0.918371254082922
0.890370335716564
0.900620611244165
0.875181516465095
0.894172595499952
0.867155200729824
0.888854653180193
0.852279072491742
0.862367502119535
0.849201621678174
0.842402950486752
0.826757790845856
0.858105724621752
0.806264107882659
0.845540136801761
0.832278301982416
0.831323194472421
0.8057871405841
0.826705435071817
0.790875891742991
0.824261515090709
0.789246466525083
0.807194267912457
0.791730881159731
0.814060610605177
0.776253451817328
0.797909118034401
0.765545613341143
0.779547499224295
0.749985455392807
0.760385451949835
0.760452660732053
0.779738872434567
0.738099539348246
0.753231891305925
0.713988526847526
0.736594147508371
0.715490206644009
0.721000906584667
0.709087718679714
0.722360999723904
0.716370959199851
0.70139264486106
0.696385091343249
0.705985529448353
0.687825437566144
0.710818347882365
0.675848423692663
0.701902249611861
0.683043891382325
0.673750613911266
0.65914689991296
0.675393964634294
0.657605193586098
0.662741402413148
0.649618408933089
0.672028382374398
0.651171459512339
0.649797305792599
0.630432263266833
0.639212560422012
0.628162290550509
0.648669496703729
0.608150116110655
0.62978712441078
0.61697898894175
0.628917226029397
0.605388909780528
0.611331653511742
0.601627403966274
0.619334355846537
0.59307069637863
0.61323272238019
0.588977707392915
0.599301504143896
0.580711720680012
0.581310187588135
0.571592607483681
0.584128907030497
0.568328167244863
0.579055775974082
0.553012608357305
0.577566776208709
0.558210981522664
0.567635273513003
0.5571706002067
0.570001135925674
0.552036146887941
0.563235039237606
0.537566636701785
0.556746833399382
0.551009648483384
0.549609549051213
0.537398262148561
0.547166712203498
0.529963444265369
0.542163738582797
0.533874712521087
0.542569989599796
0.526287994127281
0.537786132878316
0.515012911046351
0.532363993899271
0.522020159922659
0.530448940263897
0.521561122017731
0.529857958211633
0.520962037504467
0.533219178241731
0.518351423298044
0.529113048813394
0.525787859501469
0.539213687341249
0.518008962590953
0.517310725206174
0.518664461829885
0.529154292783877
0.512414213760194
0.529002924838769
0.504573265823898
0.530067599981464
0.516532771556862
0.526543912678233
0.505552602962081
0.523988677584084
0.5038209153866
0.517548238841344
0.525402364222732
0.526995712228107
0.516718914598951
0.531547798386386
0.51273408879483
0.535022324759436
0.513010390517746
0.528626022034777
0.512865149519522
0.527971777022757
0.514533290486968
0.529561819969023
0.523560698535466
0.529610765067345
0.52095879346629
0.534180624390684
0.525801292073977
0.527090352940845
0.516025379874954
0.533352000554055
0.527686237223268
0.545690772026906
0.53337330730832
0.548393478029459
0.536071275947543
0.551814809024953
0.538118560245513
0.545681394340713
0.540230687180165
0.556374379120461
0.540743762197247
0.551546402862538
0.54341785116067
0.548982685280922
0.528795625679583
0.543581529073758
0.527877072146816
0.546234059091178
0.522729050626792
0.538576282921709
0.527359457229075
0.549891427559709
0.529179717277887
0.533243065961272
0.525762713480933
0.538483347982642
0.531145127226846
0.533926808750542
0.530732637111019
0.528699330943749
0.512532007295072
0.538646002015111
0.508036225099892
0.528285399903696
0.505438993291143
0.526171159544272
0.509092810334305
0.521849303748824
0.506171670190026
0.519993760691369
0.509418879457192
0.505525142748173
0.505885724063022
0.509394131147344
0.501959091535779
0.520609587318694
0.501358682077307
0.514491201585734
0.506757262258553
0.509372167452542
0.501489614521274
0.510232706262549
0.498770912168866
0.510342935262687
0.498247171364204
0.510678725744108
0.498112252049199
0.514560324786273
0.496034393343514
0.502821257276775
0.50048518173041
0.501695920326965
0.496971669701243
0.50738139586845
0.484079908123022
0.51048358658909
0.489380283209585
0.502514399595395
0.484224379636445
0.49521770540763
0.482222077746052
0.495390553478547
0.480763654481566
0.493345558282579
0.4821955821174
0.491228208812755
0.472926682550604
0.485711587800103
0.470497541994401
0.478077155722748
0.468983716450097
0.47693379122444
0.455027490564042
0.470503805087871
0.458849447228488
0.463002215426148
0.457291286859769
0.460117142624703
0.44279619686852
0.452162342960108
0.437964658063291
0.45186645019122
0.438700714799988
0.438748854652027
0.424252803072955
0.432357224692834
0.41503674618104
0.428551483255431
0.421345912636825
0.429151655898368
0.411577390274614
0.411883460591841
0.403875347256697
0.415048012020104
0.400010623471353
0.413075367142168
0.396103462037085
0.403196808767595
0.388192964040628
0.398212354921606
0.3841892025327
0.388685395953239
0.381043820667003
0.394686391850741
0.37281817527186
0.379195996343496
0.373449605559477
0.381872195403722
0.36572886076198
0.366359086083412
0.368391623151202
0.376079413713296
0.360100358935027
0.368070258163301
0.350758853229744
0.363431082244357
0.346636219916527
0.355632056755615
0.352209587476083
0.359880686960303
0.341956566082621
0.350315483930028
0.342405938093756
0.353723448535236
0.338896779241328
0.347496326812182
0.337380117807261
0.345667121315562
0.33424988414048
0.339464014420464
0.328712482433478
0.332774770479754
0.317879958116864
0.338526504199853
0.324876106191472
0.329162007017381
0.319956842227252
0.329402664807077
0.322998606539552
0.320177383102385
0.314510483809989
0.322252170481699
0.310557879627512
0.317968331017405
0.309549981830414
0.314743871571091
0.300172219351876
0.319026079505009
0.302253460554436
0.315847709990142
0.296463633920038
0.31369527655028
0.297087687252819
0.302690855829608
0.301177357295008
0.302949376542617
0.293984290508927
0.303110649947556
0.29214687233473
0.30116076444857
0.288183236764543
0.295208660493874
0.286818504329351
0.294383704262977
0.282710542635274
0.294095177775046
0.279311620192752
0.293719536276647
0.284086590138275
0.284629925953755
0.276444465582115
0.283264251784603
0.279096821695037
0.284967645461142
0.273311549256034
0.279246575616454
0.273910496957163
0.280055088848681
0.266940243015669
0.277063140046484
0.27096061287623
0.280934227198014
0.269467304497238
0.276273124375413
0.269289686911787
0.273013883291742
0.266352918571001
0.277282149084001
0.264995024161235
0.267716539674085
0.268345047089486
0.268257080218672
0.256322172876428
0.268658744201328
0.258060108938099
0.264011967891725
0.260196093558299
0.262671136388951
0.251949275753484
0.264158784316748
0.253882307630666
0.266924648140275
0.252304868922911
0.264369419469982
0.250855951258278
0.25522666516225
0.252102939330427
0.254172352242801
0.246486232238284
0.256055214507526
0.247678596863916
0.254478890825309
0.244794200958749
0.251479497869134
0.242814104916643
0.248378321034974
0.245281005716749
0.252068755224936
0.24394137457554
0.248833619421428
0.245466512095902
0.251463190038924
0.239631545053076
0.250085539774392
0.241121557035825
0.246199323899668
0.235257958624715
0.248564813047264
0.237871127532805
0.244163759282046
0.240670796378529
0.243269634464976
0.234085511250189
0.239252456824303
0.23725676163138
0.237429262839991
0.233726316738849
0.239523371160987
0.231228084400243
0.236100269773721
0.229962131680398
0.239977349530848
0.230996205327976
0.238988132100206
0.229002871201084
0.239437852327517
0.226619903141401
0.232833926041615
0.225820876570849
0.228377809482783
0.224331993845666
0.229265223397784
0.227165767719652
0.230103546596059
0.214618389534822
0.227392908984295
0.215565089947746
0.223432986314041
0.21538979287996
0.226542165065476
0.217226122797737
0.225048581714012
0.215516034047976
0.221187880471612
0.218654606769215
0.220478787175521
0.210254727388451
0.21962783908571
0.20988473057599
0.21631107946589
0.208836141895654
0.21423795945384
0.206836945296369
0.216253016743946
0.20963692776707
0.213430503728569
0.207128407972476
0.213745530863128
0.205837659466933
0.209794424106135
0.201535130321797
0.207663601578684
0.195466712299002
0.20717211980191
0.205319673501105
0.21033546275748
0.198518069480711
0.20682738692484
0.198884396174218
0.204503219633663
0.195810249564804
0.199833537160534
0.193291143215685
0.19899589140347
0.190006471558865
0.19734651560669
0.19241155280327
0.194642234571427
0.186629535789138
0.196134598626552
0.186967218687708
0.194442366819255
0.185652628411805
0.190665364066878
0.181874505784601
0.190060808928839
0.182915786340727
0.183511140838379
0.181130185141753
0.183190978532788
0.181421580339519
0.188518593942536
0.174909186520378
0.182837474139377
0.17572951243352
0.180596402095616
0.172219834898293
0.180090555729891
0.173779711985241
0.178964561925284
0.170215014178007
0.177893381500376
0.168728998918597
0.172957425085358
0.168731799166245
0.177646498804626
0.172769074674408
0.17458823583243
0.168053742784406
0.169077971169663
0.164455130908761
0.170947522828376
0.161977058395288
0.169238926915657
0.16454291958508
0.169603744137752
0.160309590961864
0.166227682829937
0.16028084117729
0.16805237837245
0.159367944145659
0.16534382821513
0.156792350097807
0.165108390049954
0.159212583622271
0.163755846136854
0.156045092318325
0.160961471331019
0.156053212791122
0.1619416686396
0.153104987541448
0.160136549732142
0.153115046496356
0.160572336929658
0.155052735939047
0.157171071858951
0.153482503854076
0.156950560024601
0.150513461252406
0.156435862759984
0.151307133740719
0.156478204123523
0.146075545375186
0.154385067349652
0.147416119447419
0.155853345332823
0.143711795532301
0.153226706896096
0.146518849573006
0.150004595701753
0.144473882935806
0.153219709660757
0.147083166713896
0.153683616388864
0.144506113421799
0.151177544938526
0.145982331747551
0.153459072734582
0.144298915529452
0.150524226818521
0.145171519983623
0.148007758225062
0.139029782476211
0.150769346946204
0.143655138178551
0.148393215605599
0.140863849556389
0.146828362994105
0.141992600189302
0.145406012743564
0.141082397778184
0.149187160246344
0.139072448341416
0.147826322685083
0.140872739429022
0.14722982406553
0.140803446896332
0.145507457198086
0.139388990637167
0.14721951276143
0.137251363537454
0.148134381509348
0.140338130911913
0.14654387492266
0.134376533496788
0.144687890201526
0.138239411406815
0.144889017832498
0.137810442427623
0.14386179402188
0.137355048280708
0.140613846613333
0.135266261106304
0.142416990074276
0.135602882560961
0.141742020053272
0.136997706424249
0.142038018537145
0.139672666721136
0.139089766771758
0.135067934621972
0.140328092804412
0.135779043462878
0.140002396346829
0.135282190385565
0.141571028360617
0.135117641685265
0.138574242775111
0.135905748747463
0.138798481776258
0.134305008529354
0.139378769113543
0.131769609216432
0.139108442216593
0.134859969505988
0.138801615688455
0.129127153231327
0.141659921253056
0.132183638554042
0.13804561483068
0.131877244116172
0.13532659942898
0.129536528864789
0.133752848957738
0.127855680838232
0.13597080742327
0.129369204051231
0.136721545288378
0.129125320222893
0.138402342799514
0.12722655579884
0.136117793857769
0.127501170813242
0.13503466895924
0.129928755239611
0.136227409065957
0.129770433416376
0.133167179231613
0.126237165676485
0.13377104819483
0.128061625166038
0.134646662352244
0.12744679812566
0.132192941293405
0.127012703756439
0.132288468838835
0.125759384803328
0.133073811317245
0.128256324902008
0.133442793675738
0.126867862363726
0.132801283629324
0.128309595837439
0.132200113598901
0.123168985611823
0.132114467901377
0.12513609380314
0.131161269153024
0.126546982514036
0.128748186813053
0.122529126991991
0.130737254561963
0.124538442070452
0.131724946181079
0.124410931434019
0.126670307654625
0.124289566392329
0.128700227728991
0.125159742568467
0.128641464206294
0.121846031367439
0.127983417001928
0.122366454726287
0.128085231563754
0.120702673163884
0.127826991021896
0.11970731468107
0.124167646125954
0.120914843218196
0.123880367183617
0.120714285625666
0.125025536974419
0.120856704285349
0.125492220625204
0.117322367982701
0.124583480552741
0.119407545073005
0.123735523431581
0.118052668096412
0.122447449606904
0.118203961557973
0.123085749763126
0.115375450786902
0.123251979350202
0.117671277396617
0.123346917193296
0.117547798837297
0.120718477269048
0.116952834532577
0.122085660189932
0.115073659599865
0.122439660205455
0.112326277637581
0.119990489516489
0.113981091731012
0.120151468072373
0.116029340782043
0.124502092934337
0.113659073930624
0.120531690419307
0.112328600848345
0.119011245868746
0.112377099867264
0.122404757396123
0.112126491318216
0.121300131941581
0.112987304462942
0.118197106363085
0.113150489570263
0.118834759835466
0.112949502952176
0.121486256797872
0.113087420513133
0.121075597288275
0.114665658551005
0.11928442343577
0.110760470666924
0.117445268766815
0.112489533620849
0.119239347909569
0.112754654203549
0.117950073752527
0.109493426694625
0.117651199337838
0.108242663159091
0.118793981292644
0.111816001566431
0.115147133079569
0.113147064830344
0.119618274527225
0.108398681888101
0.119090116354626
0.110334002941701
0.118255138084435
0.109666942815586
0.116430215678445
0.110417760941819
0.114347609362614
0.110556790941542
0.118064551061766
0.110329069042513
0.11661396254116
0.107138173328666
0.114704096145972
0.111049012369326
0.116933068495855
0.110508780055277
0.118700084257139
0.110503378631683
0.118427427590083
0.109680259233005
0.115184361336379
0.111595317391534
0.118043022580924
0.110085178611544
0.117870388729176
0.109969021315615
0.11818483665969
0.11023294135672
0.118212483849466
0.109358547159391
0.118468786292129
0.108869003930557
0.120689092182648
0.111242780591981
0.118495076878921
0.110215182316712
0.118574524423983
0.110391706384283
0.122913745520612
0.1133043595515
0.121248331535934
0.111142424947745
0.124793027403112
0.115108129935578
0.124263708383848
0.110453728025331
0.120239409939221
0.103224392641616
0.11241388747809
0.102234806737643
0.121357109457865
0.109102941964179
0.113859438746518
0.102911468333812
0.120279987668445
0.101032249852978
0.115734765152243
0.10391280602554
0.116262836169687
0.103749483932735
0.117400394894019
0.0979374371108743
0.124277272894967
0.100599924761309
0.123851239364264
0.102243650388513
0.118728445787316
0.1053704793006
0.121293137577778
0.106511134090527
0.125081015191847
0.102850249677427
0.116938716209834
0.103449435624033
0.118942069430945
0.0978943695658127
0.120440344512888
0.0938109089140035
0.126347306938685
0.0980195595955283
0.129065730322839
0.101779406870088
0.132274953884249
0.100440945097665
0.128835244663692
0.0956506396138801
0.123481526454172
0.0979924237574215
0.130953480524349
0.10935863988844
0.133384274717326
0.101956900393686
0.123361514049432
0.113368450676463
0.131586613387921
0.110975433573953
0.116347432265332
0.116297871509267
0.119008734786949
0.124308317946511
0.0993451642227509
0.135922985904194
0.108735868101938
0.137343486943309
0.100405812660644
0.143924062685756
0.100152064656938
0.136943096604272
0.106890609078009
0.133839584398531
0.114321288587566
0.127962113719688
0.117590392044561
0.12173047027347
0.124926880791595
0.120174098621487
0.126351809304245
0.122068923137609
0.123612740030316
0.123656110270009
0.122277064003232
0.128767099128104
0.123050621898407
0.127227374649189
0.121644859517763
0.126717535137849
0.122344302334372
0.123994245303236
0.125337463586814
0.122597574313506
0.122985981859746
0.122375715884829
0.124951363461678
0.124458474902719
0.122639001088357
0.124478745132982
0.126020754553332
0.125889011584061
0.127636928328062
0.127316067133326
0.128271684847641
0.125831741750138
0.124687468830325
0.12627377740959
0.129652302108849
0.130427907970778
0.12821465051556
0.130072143503804
0.127834984817447
0.127508834250778
0.13036456218405
0.1287650597277
0.129425724094405
0.128889306646332
0.132650217901329
0.127292327138646
0.130517729885993
0.131827885306932
0.131651230002004
0.131025527867796
0.133212437437731
0.132373495532768
0.132726693574455
0.129416698381976
0.13239821061706
0.133129358047898
0.134137512542576
0.134929560940931
0.136587058113649
0.133873607006528
0.136923903719271
0.133941272908314
0.134655142356755
0.133491268043647
0.134279130475217
0.134810809212511
0.138100019789732
0.135415753299262
0.137676362833939
0.133671032599976
0.137670978718946
0.134269679001715
0.139359983989784
0.138614880226581
0.139353295476281
0.136328477092944
0.140247406599586
0.137241464241413
0.136804950576111
0.137516675684118
0.138725847248786
0.141134239620353
0.142031741309776
0.138206078660972
0.141119901015764
0.139677422009238
0.140384135410521
0.140273848364912
0.141814998610472
0.141799724071276
0.141657585467132
0.140647846865425
0.145445490624805
0.139391584351394
0.143983367906553
0.140080666881221
0.145910557563977
0.144407098335328
0.147646425113625
0.142611510568643
0.146404828866202
0.144799914605805
0.147771533707799
0.145142514541117
0.147822183098039
0.144185699075709
0.149098576939806
0.143844995142696
0.150125189652399
0.145151200300585
0.149151888011047
0.146949669811346
0.148059564276273
0.147486389360422
0.150200279011366
0.149330913058299
0.15369140438787
0.149289268144009
0.154152270791568
0.151443199422948
0.155286636588261
0.150865239349311
0.152989501829492
0.149061126828098
0.151908614191638
0.151944220248766
0.151815363851981
0.151461142043492
0.15716214731049
0.152651285388269
0.15476667311405
0.153394150024286
0.156089999046401
0.152402297777585
0.155897648245811
0.15444010940675
0.155004214654108
0.153892144222265
0.156197713745568
0.154827965206867
0.157984674242999
0.154120635611576
0.158576472013312
0.155128410721219
0.159564108126549
0.156655049631716
0.15967722992361
0.154459564254037
0.156686362026513
0.156536337707571
0.159265674982931
0.156168819894143
0.159428227143666
0.16014313108851
0.162880782930596
0.157714115874899
0.160328305199087
0.157347120126972
0.161155371345474
0.158751536846157
0.161937720237845
0.158846525784374
0.163446230544618
0.159767482216178
0.163276741126179
0.16126421074537
0.165083045915956
0.161531122328568
0.162138883354138
0.158880737361803
0.164252302501195
0.160687134488021
0.167453403167959
0.16080550110788
0.164428596502774
0.162581973592134
0.16459424259541
0.15885779256079
0.162160346999122
0.161135262274912
0.164916729989626
0.162641800024537
0.163068830414455
0.160711111906791
0.163974850487707
0.162224795700057
0.166454202513814
0.161902842846586
0.165268795923188
0.161821892542448
0.163786424782109
0.161769972180064
0.162702417097128
0.161040302590443
0.164071011890131
0.159616448172572
0.163917347410043
0.163870565152885
0.163485892502894
0.161849721453168
0.165308620376759
0.159265991684089
0.163982955364589
0.160149992045008
0.162433962380391
0.160890412457381
0.163572747014694
0.161856352384541
0.164368018011858
0.161283510848073
0.164790330962908
0.163876234032187
0.162038129627817
0.162050841713351
0.162218387416408
0.159381108227529
0.16560332897291
0.159772329495118
0.162482817068022
0.159620359878808
0.163105200381289
0.156438056171361
0.163446431436105
0.15966392066105
0.160629485573858
0.158966769288712
0.163061702776946
0.157603998099171
0.159984265382432
0.158466915268775
0.162665793081343
0.156866315825266
0.159099024063462
0.156433816900158
0.160366703667109
0.159136392110681
0.163209520819219
0.157216876153446
0.15882887045119
0.158539952412867
0.160652827506069
0.157091856955457
0.160540767808113
0.158009242386443
0.160179702904528
0.154214354111918
0.159966745154898
0.153908404197534
0.158368547339701
0.155786181657369
0.15745473519936
0.155490864251675
0.157588580682014
0.156341410556575
0.157798765641094
0.156158600162489
0.158096781109145
0.155773246325707
0.155874811509046
0.15408835087041
0.156993093801768
0.152340655359339
0.15438939397837
0.153337274403064
0.153729131230952
0.151322506466992
0.155917103678669
0.149542323325961
0.155354481120509
0.152892419668335
0.150945502021759
0.147925753404012
0.151785580539902
0.151582794530071
0.155407517192055
0.148902981720294
0.150297465293865
0.149399876935157
0.149460583492204
0.149437975701687
0.150445497305222
0.144965372213634
0.151851933735525
0.146259220150722
0.148121588034897
0.147345728687343
0.149779698872015
0.148291682328505
0.149971823936268
0.145377699160956
0.14613681353257
0.144956990051744
0.14565422462657
0.141685291888728
0.147062442328622
0.145228089754172
0.147409425901333
0.143239002089728
0.145150217173004
0.142013889434479
0.141228935895448
0.139653502648828
0.145035069044704
0.140603070716058
0.144363633886567
0.139511191561891
0.142929111465407
0.138561597595432
0.140794621711979
0.138930029286936
0.138891458375496
0.138140542708235
0.138577041827766
0.135020498395848
0.139431546943107
0.140199257956291
0.139442429586491
0.133861056799223
0.137557215977823
0.132576762709127
0.138401321053299
0.133342047734795
0.134564690360556
0.131713971779675
0.137332853971255
0.131696649209664
0.134035212704964
0.129458477814665
0.134291435027437
0.129550283910041
0.133949891852113
0.127346725122314
0.135348986234
0.127497133093535
0.132172161374519
0.129328271993121
0.131343963956617
0.127164642452002
0.131743691486527
0.126478077850725
0.131960125184543
0.124017319434087
0.134480431689449
0.127559396458027
0.130785886380395
0.127201822219453
0.131246250833069
0.124381701022498
0.125972309304748
0.122398338125527
0.126434687385145
0.123282536625679
0.129116838071022
0.123077169727662
0.124754679430486
0.122885567642078
0.123473455412536
0.12073751195444
0.125215283768985
0.121976242791423
0.125809364179162
0.120948999417497
0.126771625238559
0.120960799116996
0.124354697012539
0.119394881557335
0.124971867597873
0.120901134489159
0.126915746066139
0.121396598443207
0.120944968338509
0.121413367740361
0.120139002421681
0.118565996409187
0.118423676744775
0.117971293137352
0.117856182239115
0.117023405701786
0.121185284347029
0.116948849738431
0.118310334158768
0.116796073298441
0.12076230252225
0.116350775216023
0.117358121769474
0.115528721842783
0.117292568553848
0.11153191596759
0.116766883681717
0.114971071470968
0.118094673681554
0.114494655559441
0.115084361185262
0.116482404021927
0.115931674122811
0.129232736932525
0.1144611834696
0.114148577381222
0.114747806896134
0.111322628128859
0.114177125703575
0.113759062519404
0.115133834775728
0.111110037394582
0.113603038554473
0.113031311604872
0.112173048971059
0.111650905405804
0.112903063179986
0.110682192680806
0.114122463224296
0.111144160566743
0.112535150317561
0.112507952506017
0.113684457327073
0.113120238174019
0.116708683836215
0.112742965403595
0.108854301741738
0.111616242673063
0.108509751040891
0.115242982434257
0.119562501388468
0.101467356862982
0.117135451086514
0.103775656603291
0.115728015934365
0.104936560666527
0.117693174075979
0.107134259073298
0.116790469722702
0.10333163227206
0.114752071707715
0.10555832384569
0.108969943502102
0.10399118689475
0.110840640479048
0.107543953945857
0.109427840434193
0.10651461438902
0.109897236647124
0.105037407864531
0.112604450566446
0.104350848874031
0.112590021721571
0.102608122056984
0.115962108730111
0.103674834189643
0.111796276597006
0.104095064327798
0.113292629835738
0.107559681550854
0.126217086565309
0.10110012889437
0.10995433315349
0.107803999459617
0.108970432192126
0.108389503959864
0.109081962843231
0.106407906189991
0.109528210678814
0.104758083188274
0.109166231669636
0.10487623655628
0.109715369190973
0.107668401551837
0.106107187180258
0.107533789551955
0.108346169415042
0.107739352997318
0.105644058853123
0.106109389156196
0.111889377640275
0.110377724059154
0.127359196674777
0.103980620114731
0.11973329416443
0.10531918301478
0.110764763566186
0.100771495856027
0.112225653375129
0.102067254985658
0.111791354985447
0.105312179702806
0.112537137834616
0.103512077030372
0.110480263829062
0.102334630806992
0.112478653610543
0.101124549639009
0.111514193226719
0.1043465058757
0.112396898070282
0.103303831096832
0.11284145278301
0.104605370318334
0.113197408303717
0.109542876652158
0.110529703115139
0.112345342145218
0.116418682262647
0.131931278393719
0.103226003748488
0.117857558707166
0.109319374032689
0.111653275181697
0.110043008667149
0.110397984432394
0.116672228911818
0.113302171010062
0.107749076436444
0.112314814532275
0.109798204444571
0.110109691111713
0.114305668124488
0.108219259644798
0.126375331930939
0.115667588352888
0.110359309525566
0.119141661239882
0.107324074111078
0.126274224759991
0.11648213515759
0.113098750324029
0.118944521767279
0.107845812106782
0.118301847387583
0.110381185542676
0.118019771379294
0.11497305424235
0.121445160457119
0.10854578296953
0.12053791152896
0.112524458613293
0.123234646446536
0.119296122474093
0.121693588696503
0.121995838449786
0.119112813331799
0.115717927909971
0.125061553320534
0.113243639177552
0.12171461002003
0.113632883677576
0.123508684095749
0.119071905879058
0.131987211494685
0.121168152276323
0.131454801851631
0.126196409367837
0.12321286235598
0.123173019101698
0.131473331486311
0.118342442550964
0.134592980577638
0.110443533719196
0.157805673019787
0.115700346512278
0.141962471150736
0.120279717444671
0.131367526754058
0.12231316754417
0.133556554090963
0.127108498140274
0.130823905747148
0.134822609304133
0.123238036576014
0.136959061990375
0.129789992822693
0.145084821793999
0.129330099927063
0.136818756738544
0.131381921654863
0.140668584482046
0.129205536067772
0.145653103417992
0.128135043359127
0.156473175355053
0.159028985194554
0.130324586693408
0.149428144245286
0.131079083779551
0.166012972065778
0.14396488753535
0.139332294686384
0.14800894022711
0.13904441221193
0.151726434668395
0.142266553487858
0.161560814591108
0.158097298389694
0.141168256120414
0.156933859772506
0.145274177261432
0.161708496223045
0.160833887646925
0.151951066219871
0.155702103009662
0.159020039150597
0.16358039881987
0.156294549785873
0.190258998409488
0.147737890911605
0.192232524880389
0.163105468080861
0.178675821608937
0.168488554454129
0.179127143094968
0.173981553733762
0.189443485858125
0.171893980823314
0.183160602384929
0.171207356561444
0.207286254736052
0.177599313249507
0.186498295047155
0.186474381858024
0.18704197432236
0.205582546740682
0.225551706008175
0.20237028302466
0.202961044270257
0.200674169160428
0.214267784816145
0.210777434154749
0.203891626606248
0.21394682589399
0.20728365858253
0.213272442008694
0.217364464182121
0.226489461255636
0.226388193230013
0.215393543245667
0.236675620978118
0.223920593061092
0.256629856549911
0.258261590584266
0.269298975700484
0.249890805119124
0.267383413876207
0.273376796145161
0.250289656992344
0.266912356125508
0.264225543815861
0.277839239333492
0.270079374818165
0.279506965540587
0.281238627117019
0.291509979505362
0.313170851873169
0.285043491942638
0.328696187964052
0.299716444416372
0.326184413381049
0.315854824998936
0.379738104244561
0.366683633660589
0.321424654294432
0.378016993554569
0.32272377273495
0.438740426630287
0.370537431691822
0.377051160373296
0.385408241247174
0.401683461200532
0.403608159576117
0.426011032382499
0.423035580095708
0.440468728893784
0.443568295931902
0.458238683763861
0.45310321990954
0.560204131266482
0.486773346462286
0.517241087448525
0.496108069045526
0.526830876963889
0.526895891559848
0.542909039605066
0.529166570385804
0.564983581834339
0.534644685657808
0.6379546150388
0.580020627695178
0.595724926386778
0.600551691535506
0.633636245863759
0.618747131720097
0.642372142791948
0.698429590055382
0.637594104417751
0.681845708034012
0.668572647995011
0.70217770442131
0.690760006180422
0.736622594076316
0.739572548019225
0.716835435844572
0.739907367593449
0.737348941572478
0.76248433198099
0.75214321605362
0.776788308956904
0.780162160007797
0.831070686160397
0.858923679998321
0.823523358074226
0.853088743009494
0.785812110913004
0.82997960055903
0.815758400733535
0.843513836188506
0.852728000196222
0.867614236530684
0.893417666642097
0.818956548719254
0.860511214161135
0.865022641220275
0.857157999108274
0.862298605347748
0.870741266659658
0.860957427825335
0.865878745457028
0.908047570601777
0.844322630629883
0.990926277348275
0.87212001324552
0.868130094963043
0.86753247523803
0.864190562239013
0.852329627218581
0.861195246406046
0.840565779899988
0.869046775734782
0.828456452972291
0.824269177926792
0.82515436446701
0.816468194587028
0.841302322194189
0.790702852218595
0.804340995671454
0.78067236165977
0.762419258134398
0.769725756669977
0.731805442565533
0.80755234646555
0.729356023769602
0.722795502082078
0.736925568518919
0.701849469895247
0.695503305515233
0.680040855867379
0.671521719499567
0.681056418993386
0.663313098624206
0.658960675376881
0.64359840391118
0.633976227334974
0.640039746642141
0.625191299819264
0.629248045659906
0.612131458894397
0.611164934298909
0.595361777451851
0.603024207656466
0.589849631834201
0.587437396872923
0.587475242552552
0.58492580550877
0.577536682165997
0.574597522673616
0.563928726430638
0.569778947219676
0.55532905165703
0.561684441949408
0.552425100375356
0.558671225879833
0.539302401219449
0.54392589963251
0.542364039577712
0.547082445671297
0.542625688304368
0.550362012594458
0.52674595497444
0.532516754074139
0.530514036318935
0.532009015485957
0.528802453845607
0.528872689082711
0.563098726968325
0.516152338116625
0.540299724488678
0.515499321832682
0.522823837351441
0.511865924303153
0.530873673356043
0.55416592742606
0.507679396537669
0.512497098545892
0.510542477579099
0.50812738629889
0.518484464905581
0.509955356337331
0.504172114534813
0.509263757956308
0.485732375579201
0.622678485263685
0.479393096193881
0.57995529445468
0.490843391224373
0.498509299677469
0.462355638801479
0.519475757889963
0.480679091849831
0.478659486108999
0.485596180831382
0.495791668067114
0.498132627442572
0.46241565112276
0.468060129524962
0.460857572230728
0.464087671227401
0.478383293531285
0.464994771820282
0.454766394650633
0.497303601375137
0.46229049517327
0.469558603188462
0.492555265753653
0.462420473684687
0.440147902256801
0.429403667075184
0.440504800589086
0.427203040344626
0.461891602777509
0.439449741198333
0.422883714272989
0.427897300232391
0.406962976140929
0.429293082117591
0.413149966327103
0.429402565534005
0.402704270678303
0.428000794673582
0.411274630943561
0.386818786011866
0.437562484303696
0.392051078324425
0.44134519840252
0.389351451111176
0.395668346160589
0.375961968335299
0.42284645703176
0.384551812208409
0.392506738221216
0.384076636654534
0.374172275238728
0.385091784563377
0.381313112698783
0.361635901353527
0.382454031376562
0.373541565096388
0.409087091492699
0.39683525233396
0.391351693892057
0.366968338419835
0.354945253858413
0.352451103999122
0.355336287305843
0.344869472986382
0.360039636754526
0.334905971927136
0.382693099133858
0.334451147048954
0.390805327410652
0.355420632279177
0.348558180653295
0.351465107462265
0.353157684453929
0.35420756898728
0.385809723814893
0.367654899617282
0.379675202462035
0.344641958640542
0.381937834369875
0.352914847969916
0.369481267372467
0.360539666724533
0.368541794628871
0.368410151016054
0.381389393868179
0.378992895568546
0.38827685683993
0.381732109613145
0.4049120005273
0.378498903686427
0.431410085368409
0.398645857916772
0.413475032151589
0.444637602774308
0.423886561442343
0.448976621914084
0.427036335042098
0.445063943093031
0.44235945832452
0.440026857358502
0.455776007614498
0.446099781684068
0.483307844907935
0.463363301483333
0.46788809309231
0.470724894791922
0.468325319282054
0.484883765806154
0.487967423560726
0.520715009676106
0.477228083046915
0.549817781456812
0.477322609810865
0.500795287503972
0.48780892578741
0.490278965842413
0.498615494944159
0.485679584642586
0.502471656123257
0.490665270051922
0.508106453673441
0.50731834747714
0.500948783534597
0.506754694990341
0.502466805642789
0.507287577523078
0.507976432765398
0.510134957988938
0.51682458948597
0.50466361452853
0.523532803882693
0.512479205977349
0.551337259088858
0.555434791620587
0.510401176199112
0.538706449755195
0.52103042890978
0.542882445849312
0.534013380905966
0.541031166624469
0.550725163561768
0.541815449036312
0.544675916817929
0.542445273474452
0.555851066662702
0.56053046102383
0.56687474394013
0.563799498022447
0.542275489962004
0.582167422354408
0.537153019308278
0.627375157430112
0.56628851828737
0.583365488021308
0.570021947269865
0.574431509030165
0.569939455218628
0.570400125816604
0.571691720082574
0.577659093714716
0.582626562382178
0.573617377026504
0.575839009414536
0.571942527302216
0.580769999801722
0.57604395921077
0.585781888744088
0.581581045792199
0.566516531114023
0.576513779872786
0.573829248538001
0.582520915205144
0.578232027474917
0.599356090749529
0.56774467364765
0.578315866526511
0.571057724834135
0.583367858740555
0.581685822314674
0.570144323150093
0.566050460419958
0.574161175300678
0.559417179667288
0.579264158804207
0.564108284093019
0.594853636997732
0.588200916168336
0.583941692510835
0.582119598126641
0.584868379973897
0.583596896202408
0.590511733381935
0.588761359209328
0.600066675981717
0.603920575402722
0.603009260474313
0.604349095100121
0.602320950525021
0.620412886203265
0.603698941583819
0.610514205850338
0.609355177467317
0.595607724962102
0.602360983239436
0.600126358791993
0.609735951103933
0.587811287251364
0.595009292690288
0.585064237518987
0.588630478502154
0.579067347772907
0.594350900669284
0.593290617825629
0.567561338224745
0.58104846334402
0.558429131041551
0.570847141881078
0.558459133837358
0.561374596122467
0.551733700671632
0.556825064111143
0.548726715996937
0.549183122925488
0.544490497344601
0.544926299123599
0.543603753488044
0.543256049802968
0.539496601522403
0.539252348213077
0.540034129751424
0.543613280223916
0.541587705071121
0.538554130455702
0.53980493402321
0.544038777843379
0.539987932602964
0.554246763602183
0.539437156609238
0.543136869384827
0.531465390073836
0.54680304274691
0.539532691883596
0.542474774668093
0.53473352680867
0.535800359486996
0.53634430449561
0.533865073095171
0.529781611722682
0.533645794017732
0.534252906689582
0.534397668548991
0.528595581372888
0.532761905638464
0.531106631365849
0.529789870481536
0.529435301029231
0.525118229536811
0.53593348482882
0.528486358002682
0.531751467946094
0.526694690987714
0.533860534796312
0.530412208540056
0.529754953016406
0.52860572932164
0.529147141205023
0.528291706889297
0.525863937544812
0.525321972399816
0.523073856419773
0.527301493584619
0.525016609997922
0.524844547902809
0.523794991038265
0.517871339968038
0.516972664607281
0.514130107389787
0.512947045786861
0.507923656918796
0.505344907069404
0.500988350616493
0.499119234874273
0.499698028549797
0.497798833728586
0.493083317569165
0.487801297490895
0.486203049878787
0.487614591383583
0.480014716350513
0.478989956692036
0.48276762972203
0.481349229412722
0.478078196218482
0.474991351848778
0.473136102822779
0.47625549237242
0.476525551240279
0.474350935224866
0.472826320877788
0.472973323523942
0.475444301804032
0.479949372166546
0.476672067191685
0.476240360913852
0.481360674039992
0.48152729937124
0.47969875085822
0.482067018255047
0.483740281211621
0.482072455698161
0.483383528382866
0.488413453639302
0.488603584266494
0.489753901556662
0.492280630109684
0.490672851584219
0.495167963776052
0.499110006403272
0.498223225462747
0.494485490335641
0.498737035860112
0.495608763235617
0.500286180947456
0.497775574292444
0.498294173827117
0.495208632020624
0.494410793168221
0.494632473828069
0.495778262636982
0.49670038317861
0.494238975219624
0.490539654176814
0.490214830799672
0.487311761210665
0.487285429466797
0.486380385743204
0.484377296961534
0.485708610240505
0.48232710319396
0.483966868654139
0.481921247602589
0.479356515371607
0.477604238091252
0.474501513747938
0.474558325200497
0.472292334084985
0.471563107873117
0.470356464363149
0.467792101236578
0.468282704624169
0.470534881679493
0.466691752192945
0.467174969146839
0.464154374385705
0.461312644600318
0.463730954610068
0.462957270485899
0.462274527966811
0.46166440628342
0.461354629915707
0.460408449918058
0.456202456080587
0.455563360777625
0.455439967400296
0.454657294132346
0.451417561079014
0.44661439820228
0.444540268680155
0.445055549320517
0.440860642698552
0.435506545092985
0.433800929149527
0.431772444725827
0.426801178177438
0.42454619139378
0.42403969188684
0.421843905820097
0.42217487757321
0.419318872693859
0.417168849719112
0.419262339938285
0.417423828999876
0.416677398414175
0.41379144177051
0.41356753508297
0.41356161075272
0.412874679811993
0.411785252941642
0.410069667219928
0.407731151182775
0.404777334464572
0.399581419316742
0.399226428183299
0.397878514699336
0.38899051894734
0.386462618397839
0.386135553074066
0.38159772183089
0.379533375940992
0.380133586580144
0.378793681013608
0.377514163021373
0.380454834934012
0.380145976422362
0.382787820593922
0.388391446487655
0.390037779767577
0.396581705835474
0.405850071190398
0.41381428964904
0.424451116466537
0.433270365995138
0.443358366066926
0.455452425380087
0.469724062751817
0.483051282838712
0.49509074457678
0.509483998970682
0.527345550451532
0.539441203131251
0.556103633731367
0.572603202119859
0.586079932955898
0.599469342185591
0.613695390653084
0.629766494844015
0.644224776616803
0.652011467980583
0.669024399374793
0.681911497132759
0.685262937625737
0.694917123135498
0.709184282173305
0.711177290116713
0.716122104884314
0.717109269280653
0.721914008195965
0.72878691766642
0.727827602726561
0.727242469415632
0.722636837786656
0.721201173366103
0.721157370343981
0.720571426657301
0.715927786440771
0.716124751090193
0.716517598070469
0.719358145133208
0.717722219392337
0.713431574181339
0.713015865515338
0.721028233300225
0.724762586810997
0.722298168571056
0.726379593191344
0.730280876389192
0.738577887150265
0.747577696837028
0.747482302166717
0.75474969623688
0.766568891500928
0.767413258151791
0.777952251616903
0.788745650390356
0.798200416425081
0.810874866489911
0.819969957840918
0.830842482242692
0.848375573852404
0.857565910398607
0.870730642639136
0.885008332134465
0.898096994492151
0.898137677694148
0.8924023130588
0.907195775478283
0.905928244614581
0.903266070186157
0.904328442107102
0.89876795501057
0.892764455523074
0.888462031732481
0.875390198827232
0.869940399649796
0.859721529610497
0.862281215122779
0.868381303260978
0.869452243946008
0.87755635235567
0.881355710490361
0.895736792286406
0.913756329575338
0.917308380192666
0.921878684374465
0.942322324925988
0.956866527401623
0.969567646317515
0.992718419567409
1.00174459955342
1.00430356191504
1.02060589110242
1.02235590311402
1.04270840049079
1.05225556715303
1.06162576874769
1.08569412002278
1.10273041155278
1.11697909516231
1.13532305974107
1.16072688444918
1.17394622447727
1.18848169555432
1.19620778483545
1.2321680465247
1.25808266425509
1.27042901889097
1.28597888312257
1.30108809125715
1.33656061224232
1.33394464642069
1.3428617684112
1.37740342185895
1.37779456949595
1.35366064413931
1.40412089691308
1.36672772315036
1.40282550500881
1.4176799819059
1.39771080949638
1.40609831751578
1.36917721383274
1.34849744240714
1.34109815965728
1.35535318737414
1.35897785095913
1.34576658454215
1.34480706607944
1.31564262047514
1.34176829930779
1.33925171090599
1.32446842015613
1.32160450382572
1.37347785130182
1.33658140451406
1.33453207053454
1.37279246511601
1.38647952722611
1.38692694771232
1.41952348807904
1.43804528142636
1.44445426881617
1.41781629291588
1.42735666347436
1.44515260366903
1.4837649672388
1.45226924720758
1.51255471648432
1.52948577622186
1.50265351626122
1.51840219425318
1.51067783821628
1.47152423363166
1.49044927582901
1.52426435927976
1.54197951331318
1.53944777044932
1.51551098396806
1.46280815600874
1.53378294192058
1.52800924714593
1.51737091644394
1.51277775024002
1.55195105299462
1.50504929264337
1.51397996180338
1.48361892685853
1.48195493130743
1.47697254860487
1.49976843884592
1.50378548142794
1.45704517579024
1.48063280793045
1.45695377897326
1.42275276639861
1.4119648451427
1.36404026300655
1.35137553582405
1.28340037638621
1.25060534745844
1.22880737681778
1.18362566859049
1.15584448366942
1.11489908862969
1.0722995512944
1.05650910582457
1.02612785897198
1.01513245896054
0.987246133577017
1.00137374395792
0.995852673015311
0.981257207068484
0.987954374617938
0.981143776934137
0.976933560023384
0.987149496860634
0.968537924088375
0.962052258410186
0.960399114436493
0.950832626739223
0.940056380064975
0.936091016216227
0.916451303083309
0.921373199571977
0.89903382686443
0.888348911753433
0.873032056113662
0.860695045411776
0.837003197476051
0.819890585390086
0.804242325917486
0.794198298892562
0.778231932883889
0.755319827964131
0.730666832386115
0.721566682213779
0.702114248628789
0.679371340991978
0.655890588958854
0.644766913329519
0.63622809127593
0.610252297703111
0.598005747193631
0.597761887497358
0.585863384254965
0.57923223383668
0.571119323994143
0.560620236639724
0.561780484621804
0.550635096355598
0.538324263931789
0.540995743931779
0.536901024534314
0.530907867687603
0.53098802723222
0.532356404503478
0.533029696907562
0.533859932506647
0.530393498754095
0.536964525688796
0.526161166639189
0.532153921818438
0.532662825156502
0.532275817975657
0.534317695495767
0.540063155244005
0.536091842952273
0.542908892932971
0.542714311356512
0.549107460629561
0.548262527114691
0.545556048654959
0.548641421427637
0.547668818096957
0.544419033721439
0.539413413564951
0.5374259387138
0.53766958827211
0.541176612649762
0.537422857265181
0.537594403324279
0.540665155511924
0.540110078550138
0.542016603335129
0.542346197686842
0.539441489673264
0.549145139815863
0.551258965182333
0.543870809754039
0.555664499352185
0.558937961014733
0.563569946332753
0.56260081986249
0.570499644716293
0.578070529130562
0.574882541988429
0.570012541345303
0.578963488353753
0.570074029106439
0.588843900776502
0.586504850912023
0.58635286485284
0.588887926166803
0.583995883987074
0.595582148037334
0.591401875649663
0.586929049367629
0.595276028339783
0.599523102311355
0.606679682062458
0.60711840667173
0.606482626667449
0.612282737207738
0.624845647756683
0.627516664291542
0.633189817771124
0.631131526115784
0.651027872274405
0.653939002153299
0.668059351037734
0.673158511188262
0.68119906284107
0.714733633331549
0.722514485824594
0.719913553932758
0.739444028265703
0.726745178974831
0.726621611603614
0.728933809067518
0.742137742159122
0.723755061057948
0.717957947393489
0.718092306632746
0.721392511866579
0.7165885730277
0.729523341198808
0.70493589211788
0.713902327345805
0.732594676125334
0.725106328981644
0.728533403421525
0.744473349257957
0.725871286016533
0.742474098311265
0.744396535693664
0.731574055827125
0.734613063376156
0.737245247042018
0.739087343319729
0.75106394076031
0.741413898105981
0.752650786092969
0.740696575372833
0.743577051112242
0.750882136835792
0.754129697092244
0.740224387669822
0.75830850311484
0.743725842010044
0.764455062961072
0.763175636269011
0.763142319153487
0.775735060724597
0.776129620875466
0.743319886020625
0.752322979317939
0.780964859275585
0.792661942348056
0.773164834102101
0.792398629076379
0.771244952860817
0.792212072452523
0.797417940456749
0.79101742918444
0.778411244571275
0.807209792063285
0.783887591736036
0.804501445053225
0.809379674624911
0.817230111078227
0.793543792852446
0.804241720911689
0.785744384053262
0.821464185431671
0.789368869891948
0.834136496995616
0.842562677332489
0.820345618837305
0.824044235551394
0.85867245423041
0.830136706150527
0.841039917523726
0.838770122269675
0.852537578372081
0.837828795799
0.855220648690975
0.847520911115607
0.86518200925559
0.845077623619663
0.851412483460186
0.834848709854779
0.884488133366658
0.869829038115375
0.901075642644349
0.86536755626462
0.871755498465536
0.904837040389786
0.910658978765212
0.894177696200471
0.926762108899242
0.885615673930351
0.910666836838286
0.918397158603405
0.910956499268421
0.88130513294273
0.949786359551893
0.914269736669972
0.955671945210534
0.905479443947352
0.944204317921848
1.01086036628899
1.02469351726743
0.95704655225172
0.983773162203119
0.982625908896003
0.987729246332707
1.0182959152557
1.05726307906924
1.05930362131553
1.07267995565747
0.999096786106172
1.02515495567477
0.997476972705991
1.06158560701248
1.09099176135676
1.10867779019214
1.10167653243431
1.10486167663911
1.06837437073333
1.16767250567252
1.09334726342713
1.25036560398099
1.13725937967203
1.17676630889367
1.17176285431689
1.2117218267862
1.15406059623743
1.22420638161975
1.15998298314679
1.18448771212232
1.11200547711133
1.24447283497563
1.11258093939604
1.23493707581264
1.2029255327687
1.32674176737649
1.2188563941247
1.31720006647889
1.22805253690063
1.26271446353084
1.20794000598959
1.16851857425899
1.23263904800081
1.3259923889243
1.16859466845836
1.23661864872852
1.13261818014146
1.2451993781872
1.21192329003509
1.41916897047274
1.26175403104533
1.27454276413271
1.21848941847437
1.27705565660604
1.25584586405955
1.228076427982
1.23331438072501
1.2634819921496
1.33570076888967
1.29737751408889
1.18390453368228
1.27076180793423
1.18355556676493
1.27450116047196
1.21494262082658
1.58579694396699
1.27207152829791
1.23837112153115
1.31564948146368
1.36009532867961
1.28493592048856
1.14991881339756
1.05752379149192
1.51910656494707
1.19992410867097
1.47833941345915
1.55445139227555
1.58099808199143
1.20061223514344
1.3980899865384
1.64509813609257
1.24501128188018
1.25650634771276
1.30376405411312
1.42299845416778
1.45956594969087
1.24185303578705
1.37971455803901
1.68589375344843
1.45019285941929
1.17211653606082
1.62088262433278
1.57487182230342
1.37405726720604
1.25776666687472
1.25237124934323
1.48601883866589
1.74674247486799
1.56473668096524
2.08134034524354
1.38619438221662
1.3729362141689
1.18704052866025
1.35547495692795
1.35645339074747
1.94299705774437
1.33942381860509
2.65975946639683
1.16560584348527
1.93260966241252
1.97793200662708
1.5006303804216
2.31581108622962
5
1.28656602703274
1.33073218931592
1.32572076347224
5
1.5369666694499
2.12865594194213
1.11644759186328
5
5
1.59506658503783
1.33982683762722
1.47510546158843
1.4301159753619
1.35876175881681
5
5
1.35460712857414
2.68899181367589
1.20663224212615
5
1.12682755797824
5
2.4867825016141
5
1.30951657140579
5
1.03527527443769
5
1.66203002919121
5
5
5
5
5
1.42676656108689
5
1.43840075678345
5
5
5
5
1.39674953947304
2.55330149303604
1.77904584806675
0.946705260141424
5
3.26372200789107
5
5
5
5
0.758506329482931
5
5
