3596
4000.36533379555
650.420452594757
1
2
2
0.0655207711632421
0.0563607514917652
0.0636253885805399
0.0626790898950991
0.055341325354852
0.0581044177537999
0.0625906340685648
0.0576124606159585
0.0574141628931924
0.06398349677029
0.0621115697674654
0.0597287191691889
0.0669410145631747
0.0670510280935481
0.0608285712580539
0.061602212892428
0.057953378622163
0.0588463341357331
0.0628774969040955
0.0664921400085392
0.0651213056395769
0.0602882120250088
0.0600280515227554
0.0627450472450342
0.063129494343511
0.0634290607021752
0.0632697620307784
0.0601999739202613
0.0637341264228825
0.0569930031321032
0.0605078339744107
0.061416027967203
0.0578297197042755
0.0641130080368562
0.0649555407143554
0.0560916267518752
0.0598198065844818
0.0599109291295051
0.0600568712376637
0.0686898051876563
0.0633102133335341
0.0671806666388672
0.0638676901876757
0.0598795576643854
0.0626448994844425
0.0613184589052737
0.0658381181173368
0.0613353351040852
0.0625946970847918
0.0591962396261546
0.0612840054476053
0.0602639020799952
0.0649832581987722
0.0650592571046813
0.0663174686985568
0.0739928750715373
0.058279224265717
0.0611175092411122
0.0686771345052529
0.0598968386478803
0.06853555481643
0.0673921683011075
0.0603074538469139
0.062861863639476
0.0603082560888513
0.0606318758767859
0.0477080398236327
0.0622538384262767
0.0660779219566801
0.0638134514340962
0.0676104400629288
0.069398352591594
0.0733672972998677
0.060488108697948
0.0644622805383799
0.0698491697110911
0.066551654441984
0.0542950825851087
0.0562263210150338
0.0726710604813963
0.0705858368800919
0.0632354592250794
0.0612767252651473
0.0648740879699357
0.0642326509516286
0.0660904134431227
0.0514240400868252
0.0662711174189741
0.0734356579788435
0.0580147474648414
0.0569084071349753
0.0573628160384641
0.0556915606343117
0.0606106124874432
0.0537827903282805
0.0615039058749858
0.057646500639577
0.064927102066123
0.0608624222431887
0.0526375833454481
0.0786111044003762
0.0621391793082278
0.0832499875340644
0.0507987638082914
0.0830612883644058
0.0677296245748008
0.0642017623777942
0.0892283947885153
0.0552854330100225
0.0658102728708654
0.0527150131014444
0.0645364822704705
0.0568239554380569
0.0665281581901578
0.0627683136847454
0.0705531870671741
0.0673857334193841
0.055667949048673
0.0584039552119031
0.057927604385836
0.0598717207889179
0.0859204840687876
0.0782954863345854
0.0542662354343661
0.0630917782410431
0.0453599095595282
0.0614264997638319
0.0754518835371533
0.0693490511662681
0.0556724120948823
0.06032726391452
0.0496882373413175
0.0580008293786083
0.0483042673120982
0.073714533974438
0.0575468048034845
0.0639819882873884
0.0565182919291504
0.0774178541373109
0.0817396246555719
0.0589806678489515
0.06023399804688
0.0547565608759118
0.0654693964163585
0.0801011192418876
0.0559942811093862
0.0525744209555708
0.0553518057780276
0.056937744582642
0.0526956336910478
0.0565821358317094
0.0591451130389508
0.0670313899729596
0.056944619549487
0.0591310633444136
0.0847289240142364
0.0991614780541745
0.0474275613178616
0.084309216144429
0.0382354621625867
0.0617875588818981
0.0541959642667588
0.061487387201546
0.0519085094923416
0.0611316618638694
0.0581738974120362
0.0611017254431483
0.0694762601185367
0.0554071506978368
0.0645260715742447
0.0584550740546602
0.0626933079170827
0.0558316301815422
0.0765705427941008
0.0638424116633543
0.0546136754289833
0.0729403077122582
0.0567300592178276
0.0515477630673224
0.0621949923806572
0.0776231417941854
0.0504118167431183
0.0613746953949794
0.0502710179148415
0.0644115810605091
0.0661960908158258
0.058807974739195
0.0517820727584185
0.0632045105664353
0.0503451965632128
0.0699999564586646
0.0748806381307449
0.0765456787951743
0.0481127875192988
0.0657568894370742
0.0510157755263493
0.0715990876734479
0.0674755685388358
0.0495579586452872
0.0546196708792816
0.0528388135409449
0.0521284881875016
0.0500969391228073
0.0432755377618666
0.0626230065748726
0.0570925324854605
0.0763998212140841
0.0611992755309498
0.0582103912824916
0.0530781655155344
0.0572578055683457
0.0612686028105868
0.080673577700298
0.0668326121799708
0.0528702433922504
0.0547612568678933
0.051581799146184
0.0619003476919535
0.0622523200803913
0.0555349401626748
0.0556923472051673
0.0516820651249965
0.0500447961439236
0.0504845919886865
0.0543785178850374
0.0576009606869143
0.0554760767796815
0.0605562441423437
0.0567163553513456
0.0551210056962876
0.0600920023911421
0.0565776095505654
0.0466939919173285
0.0530750121131673
0.0532443791239635
0.0589352417125423
0.0669674545394917
0.0486383375369752
0.0512634254827979
0.0549183399552206
0.0596964265908057
0.0494438694572544
0.0626752337968712
0.052752222162561
0.0586119224177677
0.0531072596241164
0.0823522026811443
0.053076105015468
0.0569142944702009
0.0582039939410754
0.0663443981418602
0.0643108026712157
0.0501259285230965
0.0635373683456101
0.0587627820951425
0.0614394608941364
0.053201792135144
0.076900855357667
0.0588580838677367
0.0595009935904302
0.0695205584643722
0.0623701865750793
0.0551972875092033
0.0710954536304253
0.048299254456032
0.0893368114240856
0.068174068126469
0.0658814762614325
0.0899789889521268
0.0668183387291619
0.0551416523493858
0.0690826491669777
0.0511662407025974
0.115190912971523
0.0818203351471935
0.0675959063855702
0.0587936399378433
0.0735640122437563
0.0583841745148998
0.0595651709855682
0.0669327375518737
0.0664543312643115
0.0899665305071203
0.0756392905458748
0.0943742650553755
0.06660810162982
0.0786280325233728
0.0818351682234486
0.0603482542656005
0.0696728654497459
0.0628382562127343
0.0688618494836929
0.0740675631319828
0.0885612484496985
0.0740372628576609
0.0809538683563331
0.0660039343049064
0.0850654076516616
0.0682114438118902
0.0792513615840577
0.0730687092734802
0.0843078879846482
0.070908895750504
0.0801429607363422
0.0737914811637736
0.078533463047697
0.0797382803598026
0.0788418676149503
0.0958383331644346
0.0929682321746725
0.0770187453144571
0.096102810368507
0.0739038280877086
0.0818480392443736
0.0855341051451843
0.0932655783044344
0.0819166306246449
0.0903025972252968
0.0886723703086809
0.104259066895709
0.0914139995100448
0.090844425467571
0.0983300580381126
0.0970221937864137
0.0952927050675842
0.0935748152199721
0.0985562266251611
0.100463534500747
0.100601716509417
0.104773919739501
0.107300957697113
0.122788139353501
0.106333703359169
0.122622728355919
0.134938199950914
0.11515920192826
0.122927480320827
0.11808700742402
0.130340107034257
0.124600463253502
0.128243262440862
0.141843336591224
0.135305413394981
0.143424711652673
0.150831552513941
0.152264093619239
0.160001698900461
0.186246452700755
0.189384302311662
0.151095002434275
0.163857967572387
0.176609387410851
0.184849227034647
0.19190411365618
0.179684069115523
0.199486504345245
0.177354075867988
0.196859413555732
0.186120762552583
0.198394862394951
0.200620950985042
0.209099245905622
0.200300777356843
0.213884585032573
0.224771015891472
0.224870090655835
0.227902079371629
0.242513468148265
0.261913325136908
0.247506758899609
0.241577796354595
0.253790162885959
0.254063699927316
0.28682296029367
0.296717124127257
0.290556334653207
0.301192870773941
0.274098915070384
0.301339775228691
0.285958721035926
0.294217189803247
0.299541981003789
0.307537956698295
0.312787623940351
0.318169567115193
0.312074711013993
0.32075337633645
0.327270127435853
0.344312167835828
0.343444693657162
0.348850952499015
0.359094564581294
0.368529899993385
0.355613881927786
0.359406713883437
0.371858920984982
0.398095435280557
0.422917497267447
0.398653512718987
0.397574808445896
0.388396100955437
0.394938287450394
0.388047398044416
0.407638118854658
0.401610660703936
0.420983306557728
0.421765013838296
0.438727806311014
0.445385298887385
0.437445216548211
0.450988791853028
0.434070777974579
0.43873506390629
0.462201880330659
0.465647570373602
0.490778453133362
0.473439503913129
0.474866811067805
0.507786556994564
0.491482713871815
0.481816791652182
0.531825147260603
0.504539070317252
0.502629463647512
0.501766587839909
0.524118107491499
0.504121729372383
0.512618881672182
0.525727304364041
0.536500983059391
0.539930391370408
0.551409727794322
0.551905940989579
0.560395185543528
0.548607709513741
0.544607359673136
0.569352461371638
0.560344270254719
0.558922743058377
0.57980765221202
0.582046479027238
0.595367538866749
0.59691654866499
0.620310969951532
0.604046277221755
0.608323948333994
0.614051535041185
0.639881781613742
0.615524669704214
0.61729876898056
0.641963182460601
0.660282630228786
0.635351361672245
0.64968416335523
0.673516234343384
0.657922229720409
0.657918691155325
0.672580715485859
0.650404687510924
0.65404130005156
0.681859113276572
0.707771898246415
0.691105812966031
0.731880731367452
0.757247730059301
0.712873060056412
0.699026548139273
0.72142125468961
0.71776952989882
0.723318417187072
0.724608185074707
0.746129860476182
0.752435760150353
0.745194190738713
0.746936409235072
0.794876032709246
0.776884596686185
0.774871574478924
0.789968413123337
0.781196739970888
0.749500582068529
0.76052238625553
0.754430412117696
0.78771966381193
0.779732116304028
0.811630211494889
0.876444527221035
0.862534338944966
0.834143521577225
0.833033849156916
0.842302235317273
0.891579813703329
0.85668738563985
0.813333450141054
0.88970413059518
0.905906693909474
0.881326123408148
0.897808676869912
0.851210559018747
0.893857949489289
0.905354369932653
0.93301308162458
0.944999290958375
0.947365983330964
0.940672014825728
0.927289308019577
0.934218041564472
0.96368901167246
0.961665461888579
0.902692298806286
0.92287597126642
0.994168224063159
1.03167638278561
1.0004637587883
0.946182650579721
0.998330657984802
1.04116373003738
1.01094181308455
0.967139293215379
1.01892564985089
1.00522541579641
1.01835183578305
1.01237983422641
1.0279645014408
1.05992659405651
1.10512807965492
1.11936075310706
1.02457292610245
1.02112295126726
1.13141711527602
1.02880652894563
1.0094780555281
1.03185506286893
1.08243960483911
1.17526679813438
1.06388422520149
1.05235409375955
1.15273468917361
1.07188746814036
1.1105679829583
1.11393320863486
1.11588138714111
1.11527610079462
1.19587965973936
1.21501959633615
1.16934389101483
1.14387581163842
1.18350107678259
1.21102461194768
1.17808215913342
1.1305000531531
1.25372686889976
1.17491005912629
1.11267088115604
1.21380507237955
1.19044098228282
1.14605316036194
1.20772684804602
1.29145007275833
1.28680107956926
1.21040918455279
1.30453436432219
1.31614397711374
1.23211988033252
1.19216220571105
1.26413331201171
1.19453484237334
1.1862660145784
1.21883380656125
1.19621248239511
1.19340188046774
1.33584014948402
1.30191962153748
1.26445499680603
1.278105497339
1.45519920607852
1.34867681739258
1.28399393699968
1.27476803799165
1.35997739929476
1.38601045029273
1.53771372117056
1.62066478316593
1.41359535610853
1.32267940924895
1.46581092831493
1.46471587874215
1.53761318781211
1.48308989468129
1.37912096250336
1.35960181346323
1.32301986040284
1.38646024363745
1.46094068929299
1.47241836458991
1.57048314629685
1.45657370869884
1.33006269397871
1.29013470159254
1.49104687739657
1.43989223904125
1.36014530751467
1.38325344797981
1.52064711512518
1.48634120676517
1.41239532380945
1.39038703533855
1.706407686015
1.54881295866787
1.53154376387186
1.57916478006878
1.53104606905333
1.5344132519474
1.63401654598804
1.55404733299233
1.67108663031003
1.62893436603837
1.59622391885058
1.57354957124951
1.88692597008666
1.58323375897668
1.56598268291488
1.5693395091289
1.54735844238031
1.46013204263408
1.6011044345855
1.70788357950156
1.49311844922019
1.60717703511091
1.76695462253007
1.69672920601092
2.11516891514561
1.65825267821735
1.7098500068669
1.86775628574673
1.89425564034773
1.65753127267549
1.73570915368912
1.57405662981228
1.80545905213604
1.81604719509831
1.74611441860102
1.57213183522114
1.7602485880547
1.69628666888476
1.74338608890585
1.76094724081243
1.85162580201107
1.57023690754129
1.50325529281414
1.69104269237421
1.77283561531787
1.69672397817798
1.97457345185739
1.75843231282919
1.73443562187833
1.75120187591956
1.66662516389347
1.76479734909704
2.01188115328822
1.76154154981344
1.92542307876878
1.59304914712453
1.77366791184635
1.82670071042678
1.75823648377405
1.84863238784726
1.93184066795947
1.7942882074641
1.71790748264102
1.68218881974276
1.74123217448556
1.718272564495
1.70128665995698
1.66722880619001
1.69548603171053
1.59497290708564
2.09456523143454
2.0765626782894
1.84531662810026
1.75296877858836
1.77233784287656
1.64865201586394
1.66508806960697
1.55799329203872
1.9484976974252
1.60884958436453
1.68122892479482
1.79939641476072
1.95530826988083
1.7338450296777
1.77372330970773
2.07716411711397
1.7936578429751
1.65383845502905
1.84637573301928
1.76023300379145
1.91374737456968
1.73000567577311
1.69305397018927
1.9146919140806
2.43021100352453
2.04213625737044
1.94374209546888
1.78656432212313
2.01626397602044
1.79570534266613
1.85683141590051
1.59939153461788
1.67082886543091
1.92339485857536
1.85469202833843
1.84559153961741
1.94919116395187
2.02339532652858
1.74100857469219
1.67337817229766
1.77883166375088
1.54916312257071
1.74625678962707
1.89337206112609
1.61780806039677
1.76755563858642
1.95941049008409
2.05534373554676
1.74312344638729
1.60996488196779
2.32696086263666
1.78547052430678
1.66130474691105
1.82381815936283
1.7701765671001
1.86083304905931
2.00775206629566
1.58533082799738
1.77946660683191
1.84592851700134
2.1006924792039
2.22504119401479
1.71548447884644
1.97153193727702
2.07951462618046
1.73270183083537
1.70690383801935
1.59936183626652
1.76686672950316
1.6826959301191
1.66891329206333
1.83188713359355
2.02174359397758
1.9348283950816
1.98142315157549
1.81640291716984
2.04855098792349
2.0040875628643
1.85964234048606
1.77489917731523
1.85321641317171
1.81557789635315
1.97065979145864
1.64127676161126
1.77931814923606
1.82420403165808
1.79967927921738
1.75564468599561
1.77482625619453
1.72014566853801
1.87473994600875
1.75911777539731
1.74514600494764
1.72909979051381
1.68178514749269
1.66320428630043
2.14992897677351
1.69604414327484
1.70699055014149
1.92999313163307
2.05602231131098
1.8995853328511
1.77854843127303
1.74331750086245
1.81401208282936
1.71433367783906
1.83537730285658
1.69697240220184
1.80441705785555
1.74796997153156
1.81262546646719
1.90242026512741
1.9669542481867
1.60218490970559
1.71849375385481
1.65716008925106
1.80100896353159
1.793976627558
1.71279842957437
1.78605849835989
1.90721055157883
2.01336650019153
1.74860296177061
1.71278114899441
2.00509376687123
1.96697480628697
2.56132549248339
1.89253079958637
1.85833106967676
1.77860704333283
1.75868364852648
1.7597840207038
1.94795387508006
1.78030897642046
1.78254687971578
1.70111751065758
1.90196728999896
1.68340084031441
1.89040877056611
1.95788333385047
1.86801866048865
1.67065502221054
1.81788813407084
1.8141749512172
1.95344223722261
1.86512223339726
1.68798245366346
1.69496026563201
1.64716413059409
1.76011800010395
1.85979992479126
1.73960595324307
1.733844808483
1.71598677146044
1.84811109531062
1.81601814486924
1.92382177118133
1.75977322534215
1.63033939416844
1.61636818411174
1.70210550140185
1.78234063163232
1.8233252500536
1.62965660577784
1.62552500182714
1.68303552956778
1.76574698922051
1.63123267811833
1.87734779166666
1.69001436221623
1.75665482247361
1.70600491994893
1.70411444120821
1.60930784168257
1.72480903659027
1.64066005429407
1.64386732168958
1.59410271952927
1.69701776012566
1.79346502688173
1.67033890528763
1.78518415533712
1.77891221602697
1.65249242289575
1.74993576430184
1.66854492024637
1.63944417779011
1.65670417611034
1.69766086392736
1.56807217861969
1.57222545426683
1.70974526153326
1.74942364216442
1.50438466657348
1.58658839344717
1.5182692782731
1.55466769911377
1.5422411770421
1.73804967518389
1.65216416685402
1.67686991615319
1.53742208030003
1.62207958870811
1.45980734244007
1.46381094488902
1.56233124942295
1.55324893575156
1.43091192741742
1.51154106876711
1.50376588316654
1.50212017684656
1.44398788059347
1.47102123870788
1.43553550854592
1.45933422316587
1.45763904034006
1.48182343161496
1.41262261505529
1.44935216503315
1.4188489607272
1.43690596600303
1.35798413442471
1.44728363682368
1.50557819536829
1.49892516268275
1.37843717499904
1.39433725783763
1.370882548714
1.38970525405494
1.30300583326351
1.40900206964329
1.36108435336757
1.36862609901834
1.42695528530647
1.39000934707726
1.29454051517689
1.3499452618552
1.27750927158721
1.27639503235316
1.27182441791065
1.31535473222138
1.26772557391823
1.30672306607999
1.25676586258642
1.27232028755955
1.24713374268009
1.25272942567183
1.24905690215975
1.24160253428979
1.25243569237961
1.29469562316417
1.23366035518396
1.2570073927263
1.19877894881159
1.23835943039703
1.19006153391699
1.20700494036327
1.20543724545701
1.18945813445496
1.21256357355162
1.19205179852871
1.13403034332864
1.16875370730422
1.14079855636437
1.14481571575358
1.09079714065204
1.1440346486212
1.11966743579131
1.12166057996296
1.10666387183184
1.10517285973522
1.08941175042431
1.12201587211284
1.08761086525986
1.10089390995284
1.07621571134867
1.07259503705019
1.03627094019944
1.06938344123477
1.04222816153435
1.05138828817764
1.01912888649919
1.07287005608008
1.0205175948392
1.04604906345996
1.01394567343085
1.01013044647988
1.00626373969087
1.02386385478033
0.997117555953558
1.01015969553444
0.977048904143058
0.993898372061927
0.951194453394037
0.991003179149985
0.968355264705631
0.932415011224016
0.90256897964753
0.950467950356444
0.933207365370045
0.932715465828765
0.901747161571269
0.908814884892356
0.906559933525721
0.913197168484485
0.886357820142259
0.91180322501481
0.897975482627296
0.88889810806396
0.865435767985299
0.889060867220909
0.853448511576022
0.870608785055013
0.86399146976601
0.874965269277871
0.843810271262612
0.843031340058879
0.8412102061076
0.853211231007127
0.832306837477861
0.832952196111144
0.802193391803949
0.806694719832656
0.804189320398889
0.805079123809455
0.798406472471019
0.79226087243749
0.778528916244317
0.795554049733576
0.772858858287688
0.793164656904015
0.778557906290397
0.768937759308631
0.744826988723086
0.766322256289858
0.74477171731613
0.757949934331018
0.731161767490387
0.735939068702028
0.729348676309619
0.729143482960384
0.717486254789418
0.72498967722931
0.700534697680994
0.720520203122608
0.692785258297755
0.708433792570316
0.705265744006393
0.701991383404803
0.678563449169568
0.689247701301479
0.669022769528896
0.670213355915339
0.671139932261805
0.670106955556765
0.651953060829795
0.663518551656977
0.646721625176798
0.663515789339989
0.646049153468264
0.645559845156835
0.636726162128537
0.639201879740652
0.625124870033277
0.645827545096289
0.61890079508685
0.628060040612181
0.611756272514397
0.618826451850595
0.601473132928415
0.610920573753233
0.595670999482985
0.59971117849009
0.586590561526431
0.593203563766607
0.581239188097387
0.587024617997249
0.577096881363677
0.573106455072291
0.560089219146433
0.575707505595423
0.560749037981131
0.569779004096812
0.559236510514139
0.564291214657137
0.548248366507919
0.560933730161663
0.534192861784244
0.544275155336361
0.530053492131187
0.539186307552994
0.534225302149169
0.538206093785808
0.521349145413101
0.531438089799918
0.514959441731648
0.527508504803246
0.510791911505296
0.523797666726747
0.508515132837681
0.517509801670331
0.509963056024525
0.514987783476651
0.499968341516071
0.506861112801891
0.504617909751972
0.503630180251454
0.486052534613266
0.49690445462277
0.49161548683556
0.491435489082032
0.480273376590748
0.5028302733391
0.484089218903862
0.498218894781983
0.481691010765528
0.493645787860659
0.478719627376039
0.480400581806016
0.480722357258076
0.491919388012033
0.467021014016139
0.47518308795946
0.470801906842955
0.476329676130514
0.467127030972327
0.475838541254316
0.457328580270653
0.479156836717151
0.46880201474014
0.468565246942342
0.459531718989681
0.471555755668864
0.460313690344948
0.466480538233127
0.4635569292953
0.465453194503541
0.458492965382928
0.470998905110978
0.453556739594894
0.467281083372693
0.449385067997959
0.456054098459054
0.455018881932492
0.462244310135738
0.455283290977309
0.462484793521121
0.447085447554776
0.46769048646405
0.452851077415491
0.476353107990247
0.45440674518959
0.460646581095152
0.45804643359113
0.45382486278552
0.454440331673737
0.462802606245894
0.457432441111333
0.465850122843652
0.456302033448784
0.461945820075548
0.454235471607766
0.458872732461456
0.446317299215203
0.460505576930431
0.45105200779493
0.45770030032242
0.445370548887177
0.457804889040052
0.447185280002887
0.462145255582646
0.439561551510513
0.458843935930094
0.446910513645344
0.446706148849012
0.434991632033207
0.448445093310517
0.432118881579684
0.444083340419037
0.436392005860297
0.440397624116435
0.42666710774653
0.439573398887296
0.419089310675767
0.434891966511357
0.422338637814553
0.42990469750642
0.416568922900122
0.425446386872192
0.423567001470535
0.420437821449366
0.404539461057703
0.416326534915106
0.413016094853013
0.422096147933563
0.406787110244248
0.422598260857787
0.401501262409
0.410585871328273
0.405461373386608
0.411228219731239
0.410837467501145
0.416895248396158
0.403677352240426
0.41212679689033
0.403389142529963
0.411008860951898
0.399386700811134
0.410548103027573
0.402231180320273
0.411508882689937
0.397105226279448
0.409663224529912
0.395948867357942
0.401614054808465
0.394393655682831
0.401128942720122
0.392374348496683
0.398945485962494
0.38980619185275
0.394486691112583
0.382635998686658
0.389456774793035
0.380902120983029
0.395448896145114
0.379221215559978
0.39650381345922
0.380639622182705
0.38841000727141
0.382704682342386
0.378318107157427
0.371425372601284
0.379130607959808
0.373645826064
0.375945460199513
0.372215788206043
0.369025076987607
0.352955360183404
0.368503843697026
0.354150811184138
0.359872655311421
0.348045709973984
0.358662223641041
0.34802480748976
0.350534982710684
0.343512662123304
0.349506813794692
0.342162874704409
0.341657619727216
0.335871698184173
0.341220707942455
0.331444760202947
0.337930603024836
0.323328629538687
0.327658222514073
0.319233868709399
0.324625478388343
0.311839878606734
0.320390176666688
0.314821373715032
0.318036722438054
0.310294385644676
0.313412589289564
0.301150284357952
0.307728841362063
0.304410758543793
0.304859663480964
0.297917631508544
0.302486632989474
0.292947169014067
0.303258405430899
0.290368189012093
0.299421538079264
0.283805730978227
0.288274986440811
0.280032096902922
0.292103953393895
0.279502530810957
0.287593166839554
0.276919812555327
0.281581069178144
0.27086205156857
0.275097852969895
0.270202083309327
0.278179891447434
0.266980831918734
0.274103213869977
0.265281014916441
0.26935062449818
0.258641320222136
0.267245650401107
0.260300506770294
0.26666728887424
0.260119927031928
0.261076301421657
0.256698824515907
0.260148695906506
0.246977787910234
0.25817828253666
0.247886420475525
0.252398058142395
0.24530341502998
0.250446047516218
0.247258441966689
0.250389215332073
0.238172137794308
0.248492993949778
0.242154090093227
0.248957309540157
0.237451842221608
0.246890096751308
0.233265182165312
0.239556820680075
0.234456295539448
0.242055536835371
0.228180088435664
0.23828122473914
0.225876862818432
0.235209880243722
0.227706319002855
0.233066932788239
0.226763160311451
0.227400971119901
0.223728157663014
0.227320365404354
0.222878020258445
0.228597440141164
0.219286769796861
0.226281777857939
0.218081456374583
0.221939263524849
0.213915461830686
0.228102638706878
0.217907340508192
0.216097671573083
0.214165589875337
0.219387284604743
0.211041341267476
0.214393681058828
0.211309367521567
0.219225098046615
0.20695694573617
0.216181170392024
0.20666830951847
0.212194500565596
0.204565162830963
0.21118091346294
0.203906750894823
0.207615806932857
0.201139273028361
0.207907726417951
0.198841836318672
0.207589358437275
0.201486455982894
0.205495095650256
0.196452247282305
0.205037147775467
0.190584037631502
0.20361264909863
0.19480711834497
0.199348270585918
0.19540167950369
0.1972463556662
0.191043098974964
0.198511362100523
0.192206104453755
0.201014806633418
0.189785649103502
0.193435266372761
0.191310563826316
0.199177838017919
0.188017910499019
0.191701370770629
0.186452075744214
0.194516539710336
0.183477355416789
0.19177100629851
0.185170806464894
0.192258595819022
0.184520139213772
0.18849783575477
0.182534168263259
0.187393260386472
0.181869076002826
0.190580386739649
0.186322359576713
0.188420806059338
0.179162695311437
0.18582187036017
0.182481429210017
0.185063194260574
0.17524460040364
0.186723064599923
0.177535640285395
0.184856455440119
0.17779634585193
0.1844044083495
0.182505294090078
0.18644478750753
0.175085527236328
0.177710815255441
0.173364376154553
0.181990549411267
0.171216417400183
0.175806643534249
0.172232281184363
0.179224599590925
0.171268800547405
0.178136870707459
0.17197476528673
0.177393659043358
0.167846130536165
0.171017591787765
0.165192618702332
0.172709545302825
0.164759775511788
0.172914884585086
0.170353091128028
0.169986602187483
0.1596350716943
0.170673243798869
0.161671340785973
0.165586083397695
0.159977430869972
0.17151821864698
0.161297580947839
0.167194503025212
0.16041095848752
0.163680976430799
0.16274245031836
0.163150973516836
0.156157915881756
0.160497937156759
0.156611143888329
0.162857349369292
0.154443869859719
0.161111304302296
0.15677790672728
0.158622540321262
0.157281908697602
0.160320985712384
0.151457478675635
0.161615245751869
0.153373458149714
0.158668693224794
0.150926890441403
0.157565727407779
0.146650551620041
0.154030472814019
0.151876515230009
0.156916082930592
0.149441569279273
0.152543551760211
0.148002519131451
0.154006386307506
0.141495539693978
0.146151399764461
0.143532453519485
0.150560452900943
0.14249827672984
0.145785325881131
0.143721493566771
0.146461727261033
0.140240704203266
0.14850044534761
0.139233308749135
0.147238776519577
0.139917072158595
0.146352317920358
0.137575289521671
0.143613835067113
0.136896578057479
0.139604709157135
0.135422766083909
0.142109730261065
0.134351750448745
0.144386857521644
0.130673348826772
0.136529199588616
0.131951525763344
0.134947640477073
0.129094258841289
0.137818339011258
0.132465634728725
0.133894860648288
0.128098413424928
0.137251460581546
0.129764424093262
0.130848881958326
0.129665072929348
0.131049829095847
0.124805581056275
0.130985401684091
0.127555047193
0.130706109953055
0.124249391292999
0.127577205280299
0.120423629948776
0.131674765585866
0.123440670247573
0.128498364438217
0.124787083417893
0.126041700637439
0.122405833174928
0.125633136489954
0.123055396093339
0.125950020173339
0.118323923022006
0.127915620275812
0.119987303092347
0.125829453400472
0.120337998645481
0.126870105980748
0.120931922879739
0.125556050049797
0.122434566196303
0.125190949546421
0.11995860532955
0.125119653381954
0.117865326741816
0.123247233237147
0.114654915421872
0.124163225977067
0.116250790747074
0.123271590607362
0.11853257276072
0.124319199911608
0.114360737686415
0.121845765640888
0.115628048605726
0.122494930140906
0.115935596024713
0.120642568654136
0.11408992347535
0.120135290940649
0.110425195416642
0.120026227013055
0.11457504794487
0.119120359698331
0.11260128243621
0.119850193163487
0.116133564207738
0.121408100728655
0.113264896425151
0.118015009376977
0.113909938775331
0.118698062553176
0.111396809465283
0.121404974919843
0.111050856646334
0.117083208934415
0.111467272741153
0.114645314504204
0.11083042882209
0.116343726006834
0.107773415135116
0.117554073843637
0.109537954649596
0.117873010498818
0.113148151018432
0.118838762598712
0.112650324101233
0.116700575277836
0.109647926241735
0.116737257570144
0.110056925221293
0.114327377490375
0.112053240067929
0.11568646707633
0.108315809549046
0.118095401851394
0.110132958721487
0.114395644862635
0.111340042918657
0.114834830514915
0.112350715121281
0.11697295336508
0.110147400699471
0.11810805793383
0.111703237916055
0.115441545871855
0.110154878589929
0.116140984025014
0.10975644462375
0.116118458154382
0.105449300447437
0.113722788373003
0.10909102317212
0.114099963142333
0.109384685680291
0.114077189095404
0.107154706385419
0.113474264156038
0.106877971984308
0.114846330105049
0.107868565865287
0.11266664976812
0.108332585218925
0.114268920077886
0.107740744785861
0.112599390144766
0.108282257070019
0.116664898532804
0.105561592746847
0.113468126326386
0.107158428024417
0.112115348648694
0.10881278782782
0.111665027433336
0.106263744453256
0.110662187310237
0.107764067330863
0.113717627944174
0.107021407460198
0.113049940261731
0.105581980194562
0.111863993900884
0.107336539401932
0.111345476833012
0.108137462556799
0.111375812310339
0.107297846939341
0.112847503140076
0.108592198720625
0.113529763834485
0.105338100983434
0.109916851572864
0.107391790581436
0.11177601744024
0.107391244669692
0.108863590502125
0.107231583721554
0.11395173716842
0.107323023059884
0.113483247881916
0.108355929687363
0.114191253709274
0.104601928277173
0.110349179627984
0.106049338991233
0.112413700231652
0.104300770326807
0.111515088612947
0.105807115073826
0.11112008092924
0.106733118241797
0.111551009089513
0.106564706094544
0.112547544549273
0.10521645420096
0.109330947051432
0.103491889927497
0.11072184759122
0.106418919328303
0.111917096251453
0.104537862998525
0.110861944156091
0.103990702821895
0.109250691810756
0.106324164202304
0.111507485827062
0.102946609094241
0.108103991366468
0.10283758791067
0.108721110245636
0.102494037796314
0.109803634704666
0.103607236504819
0.109459676746602
0.101526008185995
0.111559448744978
0.102966730989105
0.110545562148786
0.104739609075615
0.108496393839786
0.105479404720055
0.108591657781264
0.103179807484704
0.110061651796373
0.101792126463073
0.110152858138231
0.102671698402367
0.107810780183744
0.100969617168497
0.110213365573978
0.0994959823947553
0.109386149041495
0.100998757362084
0.109500237878966
0.105317983371152
0.107090443224321
0.102285123103432
0.111308882132006
0.103548432982742
0.109412569939625
0.101465932200629
0.109085895203898
0.101272746540024
0.108161292101951
0.102505887829659
0.108142298063297
0.100751875570874
0.107159595841789
0.103120251605178
0.110481497007341
0.102144302914774
0.10750079824706
0.10136063696878
0.109020497222125
0.103347400786305
0.108904966803162
0.102719782795892
0.108004046876642
0.103014598735751
0.108136049052147
0.101331688476418
0.109069571718899
0.103017185704065
0.108440921110121
0.101929822462165
0.108329282131928
0.102802734632449
0.107779891860132
0.10262618240094
0.108410078389037
0.103464259116071
0.107538954848342
0.1028506696588
0.108150497966521
0.10285163533625
0.110570463913391
0.103971323292201
0.10920339165905
0.103817447043427
0.109941836559527
0.103094458672484
0.109584435429883
0.101951326672881
0.110793179729928
0.101090553218037
0.112316063800599
0.104364685454348
0.110772662348527
0.103450620105988
0.110608414494289
0.103761240880699
0.110841741748812
0.103039267899061
0.111724868037127
0.104306601846438
0.110270684912329
0.106874081575363
0.111952827452606
0.102299516256752
0.113546017364662
0.104448023695039
0.111655770717248
0.105040315209108
0.111771451640005
0.107097591940522
0.112782615080439
0.102731916716701
0.113983980948515
0.106174538532839
0.113680610272993
0.105794446219048
0.114377207058988
0.107210662743597
0.113742419914229
0.109116752148452
0.12163811478979
0.106657860487283
0.115674776135734
0.100725199150971
0.107292234788021
0.100493109249713
0.116486358982105
0.105687800509071
0.112360433357465
0.0993695015956538
0.113539785292343
0.0992072833698274
0.111191913137291
0.10067656852411
0.113415151180742
0.101898128732446
0.114530025670021
0.0942313858672169
0.119086872829293
0.0978317442796593
0.119125934836367
0.0997998994294589
0.112366641048204
0.102635518967084
0.119129934981402
0.0987165991406631
0.121324242357154
0.102896732339213
0.111086483035041
0.0971290840219834
0.116703756456712
0.0961803103004362
0.11871256555124
0.0933117600558556
0.116018343566661
0.0949435833581473
0.127637199698611
0.0994616190151808
0.125338156678905
0.0996725116156275
0.130003952624239
0.0946395629003225
0.121400412464647
0.0953321008798012
0.132263774065513
0.106650737892679
0.135806843423564
0.099735668446471
0.122486777342559
0.108949733404922
0.134537363168526
0.103945592154702
0.117220471482248
0.110504767194115
0.124971353361813
0.119524901830469
0.108033290303948
0.126013817649846
0.11591686230416
0.129635500187332
0.103810671207359
0.137110179119203
0.103648648385315
0.133094738105783
0.106690682033962
0.131503547896153
0.114484490197937
0.129161062999344
0.119686052293063
0.121129337062961
0.12562591818294
0.12111559399167
0.127263110699345
0.119688156687199
0.124251930673515
0.121314806922756
0.122843098343432
0.124556412568454
0.119493597653751
0.12453282594919
0.122954782026813
0.126253384470322
0.12196875798992
0.125114684454456
0.123147666494665
0.122635738935888
0.125283896922386
0.122714619080028
0.127141952434898
0.123955112474541
0.124132224977118
0.125535756900309
0.125313152418746
0.128123009069715
0.124805416880899
0.126768472340713
0.130884355122553
0.126245554417258
0.125629497270415
0.126219059507652
0.128381107546111
0.13036248784714
0.129560583452241
0.13181283067994
0.13084942127791
0.127100577038231
0.130698651416452
0.129407591576988
0.132214281584341
0.129240991576153
0.132261525129949
0.130132537139058
0.131984674001464
0.130456019640835
0.134397031685532
0.129647311560496
0.134008219083416
0.130922985538243
0.131778745568509
0.131730045838083
0.132876459015114
0.132489312631875
0.134848543577434
0.134544488155675
0.135829715281911
0.134383854326423
0.137495125848237
0.134859312624245
0.136556250922013
0.135656501683463
0.136659893118208
0.136010931804098
0.138678110327521
0.138372151777955
0.140937159225695
0.135329046743228
0.140859657591207
0.136867850033673
0.141607758460319
0.13990268676746
0.141938122707947
0.14001005349922
0.140370809998795
0.138424934054454
0.140000552851349
0.141773060332605
0.141081498786819
0.141988317249592
0.145942139691232
0.140980110752788
0.143807988381247
0.141390333183914
0.143489210803171
0.143781180255656
0.141978203809655
0.144864377091542
0.144994768699149
0.141868501485018
0.147609452026783
0.144329261225694
0.147002309516277
0.141821052409208
0.147124320551241
0.144095156066679
0.150114267789158
0.146559370217901
0.147251084415143
0.144922769621711
0.150738936747334
0.14548313225863
0.150262532985259
0.146835386734095
0.151656717010953
0.150188597797043
0.152916897141071
0.149422617709991
0.152662912153752
0.149957095063231
0.153626443703751
0.150343162000822
0.155587848619532
0.151435451680075
0.154651919907454
0.150812181539948
0.155003545633539
0.153566284238557
0.15655189491532
0.153248316659497
0.156921126006392
0.153620919155848
0.154031798922586
0.154637815052187
0.155537880398114
0.153793687427865
0.159185966580285
0.153726094634808
0.15770417341078
0.155030004166776
0.15875542875729
0.156215479052626
0.161640307702616
0.158973567130965
0.158909498892041
0.157033889614849
0.160937736754429
0.158873888789428
0.161346657749648
0.155250441192411
0.161114205910775
0.158406608470278
0.162692384363266
0.159766923355545
0.160180545340295
0.158373219734421
0.162825485804273
0.15846458747019
0.162911000002942
0.16025999096001
0.164232787183038
0.160944481398549
0.162029915105261
0.162620522883443
0.164170473762838
0.162996748642546
0.164758165262665
0.163113419223621
0.164040493123311
0.162573140971039
0.167397095954634
0.1630001005374
0.168362706097388
0.164681448362216
0.169134752146662
0.164300487203633
0.166427265533752
0.163583925574383
0.166878590456151
0.164629420863054
0.171623479060894
0.163363935932754
0.169130419530177
0.165070040669758
0.167808149808888
0.164021475131977
0.166057003951803
0.166038882490215
0.169883477912195
0.166169088312185
0.169972450222389
0.166175355160929
0.171992436156825
0.166849254691441
0.16808391205789
0.166754031062861
0.168980243970566
0.165933061184822
0.167323644361287
0.167914275260723
0.166838802936962
0.165182017755354
0.17009264700431
0.166187266168597
0.170005418256637
0.165439653746974
0.171074193807864
0.166183667026466
0.170125925277061
0.166821873093231
0.168829784212818
0.165288971068247
0.168424418949774
0.164474544969226
0.170462811681777
0.16650931851469
0.169010516540271
0.167479758328676
0.167978684984196
0.164628562668241
0.170615378104476
0.166941231124496
0.16721108900882
0.16530533225459
0.168684509217174
0.165790996207421
0.16888944689564
0.166519580831525
0.168088546822228
0.16497018095207
0.170749744452828
0.166062164214586
0.166535837945076
0.164978952625286
0.168990038927821
0.162200078240607
0.164442322807715
0.163983331642422
0.169373809359793
0.164554802682859
0.164396841628725
0.16355392225208
0.168834441859695
0.165579071102801
0.167991480683978
0.163514134837062
0.164201205682116
0.163322237049273
0.165740674248475
0.163795930700059
0.16514606925286
0.162551716835568
0.163050428318018
0.161007770629309
0.165135944056007
0.162033491835834
0.164049835193358
0.160899658369179
0.165318307167786
0.159832075047305
0.163087843885152
0.159980621679825
0.161695076040904
0.160094867711759
0.162597558777002
0.161522743933092
0.159769429029254
0.158641614609151
0.161491555676856
0.15752509363682
0.159955015829421
0.155962078788797
0.162817407254232
0.15799842403442
0.161151183950152
0.154580050986972
0.161395046734044
0.155727184773355
0.157008915279213
0.157231416778579
0.160298290585516
0.156466032705504
0.158035511214534
0.15624347475592
0.158620777861852
0.153649639465141
0.15758938513354
0.15251986448454
0.156094533196662
0.151692049071541
0.156110744011915
0.151038762820372
0.155590884055326
0.151259696910804
0.153293455051532
0.151493672404927
0.15511416231115
0.151093236163722
0.15358803108894
0.151726821466911
0.152472462337279
0.146661657920845
0.152208917508448
0.148992912063245
0.150323421108562
0.148872402300926
0.150413431838954
0.145600009092744
0.14955734840647
0.145542305508567
0.148427278242902
0.143972173926869
0.145822590290544
0.147477557544873
0.148370840328527
0.144169882737233
0.144429351691811
0.144177360602585
0.143336629872436
0.14388736641434
0.144292335386731
0.141705257412525
0.14324456212272
0.146524415723988
0.143113959641648
0.139037805335631
0.143408315613727
0.140549891653165
0.14297798886371
0.137201210326081
0.141535996447107
0.134677912161112
0.140638998264305
0.13809497455334
0.138913652095243
0.133731276489058
0.138946780925834
0.135262876707087
0.138574625416784
0.132248504202501
0.139117997409549
0.134231024741908
0.136625848649132
0.133213545340262
0.137133093026698
0.133311668531754
0.135023164054762
0.13171828284807
0.136957868759981
0.130406111984242
0.139842582295568
0.131549092305414
0.134382708189419
0.130977644737467
0.136927856842839
0.127184605943899
0.133451258206331
0.128688326194306
0.131846483345362
0.1271893332531
0.132738246098935
0.127283552589364
0.13139221632028
0.125622535278819
0.127919750677113
0.126161514405487
0.130284039670338
0.125262300911225
0.130314092956488
0.126026787241814
0.130181432009203
0.125729485638796
0.130262135986478
0.12400912878911
0.128111053630888
0.124105195689456
0.133988126215029
0.125789239696919
0.128994196044773
0.124590883595495
0.123808204251819
0.122513511387305
0.125086588740292
0.121344872201972
0.122990980721899
0.121360884226125
0.122352817443922
0.123116647657838
0.12350927487199
0.119905823466894
0.123325157483427
0.12077562564164
0.123770504211164
0.119007958370718
0.122046487336343
0.11724406229198
0.122880751926791
0.117906875269715
0.1215794148522
0.121728182853948
0.119752819951873
0.119270363912837
0.118233114178429
0.133444219964493
0.117436852366439
0.118506359201095
0.118031041498277
0.117154853236053
0.118439111418344
0.116772159168564
0.118559848365204
0.116024430414257
0.117446686682463
0.116563144518806
0.116931827962098
0.114148673032345
0.116940664539573
0.113818235906936
0.116484606072188
0.115258967144709
0.116916894444762
0.113791458083061
0.117165688645243
0.116956536110705
0.119501459301282
0.119075966253996
0.113962257107618
0.117552921748522
0.114144277317946
0.123086564796067
0.121868962797981
0.10791921297874
0.121541141552473
0.108793922298471
0.119688614467518
0.108523910368268
0.119521461145432
0.111979763267384
0.124931251713382
0.109311395325659
0.116964315788796
0.110299624901314
0.113973009374789
0.107532898158054
0.116499803370383
0.108262879653368
0.116704788778134
0.113878619393065
0.113985082427731
0.108978900387891
0.117316963749602
0.10924814748786
0.115637424680553
0.108251309296679
0.118633471603137
0.10623374282437
0.1155252242664
0.111247673640096
0.116583877458705
0.111640718890586
0.130253603025099
0.106833837616617
0.118676467501551
0.110933165426382
0.112059922365902
0.110889580847797
0.114229054531979
0.107038112531369
0.114505951152847
0.109412469422014
0.113542109960489
0.108988117161897
0.115328187966677
0.111370105106822
0.110601885712547
0.110863458469726
0.112460087166497
0.111924123678893
0.110776681287224
0.11127488142377
0.116300842622958
0.114071475435899
0.132774506893974
0.110072514145526
0.124717865851586
0.112834465696544
0.11450767098055
0.107222952226637
0.11821371773606
0.106574036083667
0.118851976641044
0.110791313243162
0.117420331521834
0.10788760993619
0.11670342062129
0.106173621558632
0.118669532715857
0.106658337057129
0.117886226334307
0.111437985179344
0.118489307805239
0.108631283428599
0.116678066493309
0.110365175907267
0.118584359909772
0.112793254646475
0.11707889413427
0.119691722761738
0.125704646265605
0.13492242219961
0.109448182851295
0.12452691504614
0.112730310906795
0.116859041367898
0.116244751618107
0.11403878378374
0.118050023168485
0.115933408802731
0.113686536805876
0.117211850749858
0.116280481992008
0.117157958755335
0.118336494221285
0.114084881235608
0.136310248711087
0.118903787237307
0.115840493329223
0.120619416332161
0.113856224846326
0.134809504273136
0.119144134623439
0.116209814018229
0.12229527945477
0.11500736457688
0.12120958696898
0.115017387341319
0.122789981479617
0.121014428873156
0.127699885737435
0.114051132610939
0.12911643105506
0.116164244176938
0.127859365014613
0.124968296456223
0.126953067454843
0.128254278605132
0.124197454181799
0.123541442113825
0.130644770608007
0.120868792552667
0.129509964832408
0.119081837116927
0.128934089597248
0.126632856444038
0.139406844653564
0.124730266100019
0.136997716992164
0.12915683774906
0.129036223800864
0.128983865338385
0.13694400919923
0.125675408048761
0.139789973171606
0.120368898093628
0.167433582264414
0.1211829684697
0.150616524136396
0.124986429492519
0.137229164117045
0.12526364997523
0.140360896228083
0.128137808425312
0.13896995219087
0.137438170060709
0.131347876734844
0.139915551765507
0.138994134337357
0.150368895308076
0.135753092740737
0.142659074972108
0.136470927263073
0.143423214892176
0.13458620583623
0.152306638490461
0.134400869806132
0.161236873342676
0.162974651990622
0.140645593082363
0.159650965379138
0.137498873033103
0.178351082273984
0.149383500664617
0.145905211785037
0.153415717891814
0.147578477399207
0.159379332259009
0.147664028013011
0.166862561939347
0.162044502690893
0.149639895900363
0.166704203939628
0.152876824585439
0.172225857971177
0.167681042103981
0.159752847499193
0.163015576657204
0.167213826032327
0.170140608758566
0.169043590895967
0.195362116010993
0.159025361060323
0.205026236864067
0.173789258529835
0.190191018501473
0.176425374909687
0.186819182287782
0.183750781586351
0.196838636909131
0.181193969230569
0.192681748180022
0.184918150728591
0.215885015386213
0.186986026332563
0.196114076254442
0.198937839710831
0.200982024253942
0.213574767656079
0.239789215706639
0.215300781605843
0.213758391671562
0.211704552848869
0.227158870441962
0.218834954432086
0.215984036305466
0.22354873994559
0.220044492768533
0.229777983057713
0.232225407884467
0.237807431057481
0.240070205438446
0.230763967233077
0.252331920324568
0.238545223662308
0.273451065008144
0.2709769896358
0.285901454591439
0.267889421577493
0.288596784564233
0.29041314624707
0.266036545483623
0.285122744135586
0.279061097987403
0.299833166652049
0.290701833777572
0.298558392857025
0.303039596021509
0.312617579490063
0.335595539398578
0.307546902688398
0.352154718466871
0.324019865369971
0.348018499574646
0.335457391343452
0.45086970655965
0.386535929245696
0.348165881778888
0.400552873353333
0.347444708864883
0.459351350280494
0.395620507335284
0.403448219309915
0.408107348279275
0.42290038178896
0.425538042948323
0.449448273832475
0.4415755820441
0.465705183369982
0.469344407448216
0.475061617944542
0.482024818297301
0.566225299189801
0.520729179493369
0.53715896086608
0.50837964191853
0.547965083742647
0.551245622932175
0.553108094660415
0.547785970689474
0.586639357648626
0.546933384630866
0.652321015504632
0.597701926772644
0.608297890764238
0.616555528599059
0.660559373883298
0.642966195581869
0.654358074922182
0.71416763942386
0.655774413096496
0.693168888325427
0.678322385643382
0.713301257582021
0.706378570374358
0.74856385432882
0.750982556487059
0.735291172017724
0.75980491394449
0.74935574350642
0.763502663494171
0.77152069087799
0.79428223200684
0.790667981503918
0.846496861753903
0.842150163536932
0.905899566471829
0.886311909686229
0.793361693648364
0.825958824891648
0.834830934825838
0.884357866350984
0.861604289630052
0.838868402715763
0.922048894560199
0.849932667298373
0.878503645239478
0.884950543872442
0.883596887295264
0.90199227454438
0.890712452617691
0.883366029081769
0.897542304598774
0.920927760295796
0.857889360069139
1.02766048847377
0.883785559484159
0.880773441620986
0.886420239684245
0.893213895992074
0.869864494402162
0.885285807458557
0.860458293796091
0.913777239792048
0.866780558459832
0.848705130177807
0.850325966300854
0.854543214733503
0.877316053384747
0.805030705543592
0.819852260172008
0.810944970467822
0.774878661888079
0.800968013449362
0.770552521286429
0.857626047798422
0.767359451119468
0.748840115702891
0.738809517818735
0.720301452248858
0.715803973389159
0.70007490025406
0.691593408507299
0.697786854627739
0.679564223061384
0.669833162448636
0.672339217350391
0.650277105027925
0.652918414195854
0.634917548477643
0.641635528050971
0.619871652374899
0.620284498890258
0.604909211808793
0.607178490118663
0.593744788427222
0.597213142532682
0.586719683995104
0.581014303500261
0.576025445682845
0.574245060362076
0.559413046015903
0.568710758490561
0.556072147945812
0.556920711265637
0.54253097006977
0.545837980932807
0.539946149847958
0.533884642767106
0.525743869155456
0.536809084472949
0.520745464467191
0.533615694104554
0.516621479830635
0.523584698025744
0.508713827039924
0.517981814768998
0.51925253153734
0.528670234990254
0.55378058396224
0.495482625359761
0.520672792540702
0.501485943205669
0.502678355072454
0.491701397252654
0.510593817920895
0.527786244909576
0.487485144960717
0.496569998496035
0.492897831167472
0.492182804977076
0.501613561361382
0.484681363657577
0.482743793902949
0.486368027944142
0.472946017017342
0.6020403171575
0.450022103767278
0.568287000231108
0.475761121330973
0.492414199442353
0.456661590095173
0.513024828520749
0.46476583650218
0.465001369251343
0.472392363253453
0.478761727675607
0.483675634959314
0.448415060480076
0.457776029555144
0.452761981089359
0.453285043620293
0.470804386839574
0.457518509135143
0.443302484389093
0.476826068217074
0.447248969679616
0.471699922100262
0.495647015577347
0.456888926552741
0.422003857297044
0.414983384531922
0.433153687026382
0.412076434786451
0.457471885643025
0.427944582271713
0.412281575409655
0.418745052990579
0.394390718981424
0.417629395546884
0.405411357852413
0.42942945060391
0.395226286023007
0.421686958510485
0.401660169150466
0.388299630613172
0.428773999447593
0.393619726445399
0.436364260371322
0.388738501786752
0.392521032513156
0.382681087513442
0.435291358151434
0.379290426074897
0.387994006041991
0.379150161929287
0.366123921290723
0.386460369028929
0.379328774638589
0.361717472120526
0.387810865493222
0.369647077182853
0.404523575380818
0.389109836114286
0.386278645040603
0.360915030271105
0.345493063915055
0.353439937626516
0.3561833833586
0.347446384316166
0.355341700975404
0.328626394903157
0.37954534174986
0.32600998755735
0.390984080162554
0.346709121876126
0.339014157895395
0.341498782833547
0.346833238713497
0.346144586877011
0.373676478899939
0.359294447228523
0.370177633487401
0.331379944801465
0.368530236197642
0.338809984431513
0.356451728720454
0.34128905390689
0.350955266988129
0.353261970953048
0.360228147357594
0.358643432820208
0.364733305360826
0.350463543334904
0.379447017048743
0.355335244445204
0.398277700953025
0.362506187335012
0.390788813459439
0.408055090897017
0.395857794017423
0.409924890487203
0.385422626444439
0.403111466764835
0.3977275084868
0.399078479603237
0.410883473748975
0.396533840846479
0.441162863361279
0.40804578721485
0.414060246201039
0.418388327215794
0.414680353055487
0.426174135380697
0.432326447911442
0.465299583281236
0.428985493867714
0.49240102415246
0.420757064029574
0.440494905544425
0.427239151125647
0.431514186670603
0.443000156151561
0.425173099894313
0.440578759594214
0.427891592247247
0.455536145668664
0.445732111155946
0.429334794329115
0.439431601523579
0.43291820776856
0.437975181444123
0.44401105886141
0.442215133089203
0.448903018883425
0.441169621476813
0.459584919152369
0.441149057883389
0.474912778853347
0.475683045788665
0.436833182155534
0.462386714852158
0.443369301866578
0.460693672738401
0.453279120445924
0.457856947988154
0.468535334293515
0.458086470974656
0.466004715904607
0.461250861610824
0.469598765378681
0.476588329124688
0.483656696846786
0.478845991244466
0.462510849086855
0.492030702213106
0.441434496818771
0.537310928056952
0.470739715382559
0.495574908720777
0.479535187936729
0.480829752978494
0.474141566960187
0.480805356635305
0.4797069668351
0.485580607997154
0.487655262900081
0.482624843308692
0.487309670330722
0.476223787627736
0.483970004758718
0.48568882860445
0.496714313220691
0.492348073929801
0.477228025996352
0.485904932510903
0.481127241728361
0.486229228162595
0.48647482371986
0.499614603776946
0.474313094087602
0.494115684953507
0.484326509292118
0.490809374436447
0.487375993637657
0.479636561211341
0.473813223329287
0.483363454289996
0.466903996944021
0.485843230416571
0.471370232809137
0.501626259537694
0.484361331583538
0.48434014915911
0.484178404404565
0.488859363958532
0.487869153661094
0.493047161626476
0.488911849481771
0.497496187914746
0.49970587571461
0.495431019456506
0.499298876632447
0.502883341303669
0.516036544638906
0.502799047303911
0.508312113814242
0.502515652225415
0.491860516150401
0.498737061447811
0.489743192121614
0.50278988636653
0.489003679477309
0.495560155009358
0.482529657145376
0.489100962948454
0.478879776859177
0.495741408994167
0.488615086721767
0.468362955040843
0.486151511240644
0.463083254348854
0.477164914613662
0.463560473830636
0.471581567807841
0.463086135875361
0.469801280115039
0.458589531898846
0.461650318378308
0.460909355861553
0.457434382493157
0.456504540341882
0.457763295503377
0.460103706343439
0.458771869085978
0.453181753723666
0.455348901244837
0.456466545246935
0.455553051201081
0.454933817780413
0.460385971285788
0.458853619672274
0.467538022791053
0.453265042058421
0.463768574701378
0.448002847204727
0.460619696224312
0.449811005601589
0.45264017162519
0.449811992163862
0.453540306893921
0.45038100856599
0.45065794609688
0.449586433475196
0.449877660220963
0.446503304679146
0.449031639734375
0.448238201582795
0.447859831354336
0.448693918428324
0.446542035159623
0.443409488498925
0.443192577842006
0.449962721361354
0.448753254403529
0.454400247368317
0.445140431299263
0.448687609139604
0.44674191997232
0.449946972725406
0.44841515408002
0.446735070691259
0.444280624919644
0.443112548057933
0.448396863390749
0.444887358753247
0.443127284079269
0.44073295288786
0.440175192995953
0.439362555720978
0.435618009749406
0.435579000534341
0.434810569013528
0.432862669927425
0.43157671726548
0.429956194490584
0.429115274134013
0.423367307366612
0.420362827582928
0.42306577144882
0.419765148849161
0.416927279375925
0.418194035713245
0.420569557902369
0.412826681910897
0.411657682852356
0.413200847881119
0.413506964192997
0.412234297348545
0.414067713880801
0.411992291486085
0.410549972213806
0.411884960986424
0.408824960776095
0.410123234869838
0.412246873543098
0.411376244718977
0.410306672266676
0.410284296640286
0.412030186978722
0.412285891538258
0.411859340583866
0.411777183869519
0.415500590965257
0.414938861307625
0.413219610268567
0.41544998200173
0.419750958198772
0.419272013357066
0.416465315589318
0.421924987169104
0.423470224399123
0.422089288440354
0.422146762528976
0.424038077046271
0.425000748724811
0.42624652554301
0.425157212759442
0.424785312029333
0.422650297079356
0.426533498677459
0.425354397388527
0.424352270351343
0.422116176648487
0.424734472885699
0.42175107858823
0.423666646042664
0.418359030945263
0.415825165591201
0.419370265765721
0.416407425663328
0.41741229697767
0.418320978495612
0.416428525315028
0.416241393930463
0.415627507858005
0.413497890397223
0.409899405528125
0.411727535814454
0.40994247232725
0.407582426048998
0.409658399534277
0.406681266592477
0.406613828062026
0.404206634275241
0.40544745308356
0.406566028315147
0.401325769146319
0.402303309364919
0.400635249045207
0.402101284949347
0.40259092625946
0.401005183694024
0.403611711058285
0.402741411769915
0.400629899641612
0.400187949004894
0.396371559261507
0.396251978385212
0.398164139388855
0.39577243380028
0.391423279165795
0.388492113013077
0.388301030307695
0.387254241189151
0.384825795339036
0.384603929902357
0.380978734625596
0.3785004597261
0.376370887552066
0.37856977609833
0.375930554929265
0.368840297582234
0.371209743852937
0.375338946104517
0.371242761005061
0.369436687921031
0.371613546339446
0.370257715364532
0.368198519710401
0.370134933881194
0.367015413961399
0.367810197219273
0.36632374026608
0.365386684887133
0.362798966773024
0.360946627174263
0.360057982942204
0.354919463026792
0.353122759161472
0.353246634310032
0.350470859666013
0.349367826010714
0.348683732556394
0.344404015702359
0.344660950565612
0.34431672174858
0.343544258465934
0.343873732183006
0.348175375519111
0.351164784943649
0.350664810962879
0.35386889164913
0.357581022983116
0.361338657467018
0.367700103465612
0.377185291680082
0.381122866733761
0.389567208602781
0.399179660233956
0.407490600941519
0.416585659363192
0.427466207181801
0.436456072723199
0.445208727923265
0.460157346240821
0.470462313892881
0.479903813241693
0.492549330414043
0.502921233307541
0.515738743495784
0.525265025198879
0.535727390793399
0.545228243186216
0.553022656802378
0.560349514322713
0.56769106330712
0.572766262985005
0.577717084396102
0.579890470988877
0.582297914616762
0.583338613316557
0.58448517451897
0.587435125167436
0.588039828612156
0.584762057743827
0.583721941661522
0.584038629518742
0.57908720897743
0.579598320906511
0.578755983731093
0.573335515480364
0.573063369549024
0.576493640532894
0.576246848554945
0.572568606102151
0.574917561677185
0.578621279651135
0.574650419219056
0.577140460267932
0.580678344175773
0.584704474271838
0.59061096130635
0.591724983782387
0.59524181232014
0.601235945131912
0.605256905506546
0.610911595452763
0.618311169512938
0.621321481141977
0.636360399502585
0.64850617576237
0.652335296587684
0.665909261367297
0.673942890061181
0.681582793698781
0.694383167687914
0.701944962764614
0.708863154482119
0.710758706171263
0.708097980183576
0.709462277224644
0.715201596817662
0.710239612218233
0.700690535683066
0.70215425742733
0.698955168806601
0.694380289966009
0.691544392359205
0.678080536175697
0.675068962032291
0.682779389778965
0.680928944602891
0.677170970738237
0.688726517725949
0.697704020599373
0.702888033580816
0.714488655789072
0.723664176666789
0.733030445344397
0.747940651882528
0.760071170770876
0.7621549481607
0.770892841332931
0.781869015866423
0.78834101468743
0.795887264969116
0.808912174342523
0.81854751775265
0.822941084339254
0.837691278808216
0.846634212268578
0.856875977694379
0.868319907648787
0.879068134824683
0.895339539862371
0.905569405824955
0.91907685049908
0.943036811812367
0.960811142062382
0.971720558630121
0.973039259443261
0.992143727738831
1.00741693582102
1.0274111597391
1.04462834678713
1.04282992316312
1.04310786181301
1.05048241614357
1.05828687436005
1.0681095633963
1.06304681710655
1.07159963023427
1.06651428410108
1.06453130012161
1.05825549828919
1.02765893615084
1.01847360849215
1.02754622855603
1.01657044002233
1.00032194333918
0.992829059750747
1.00361043633171
0.993610533407125
0.988221659077711
0.999134490950422
0.996800097809321
0.993961456781426
0.997772046510313
1.00125815217929
1.01410161246105
1.01656794272047
1.02751538187497
1.04860409935248
1.05097415350626
1.0588449839231
1.06437305723301
1.0563599243549
1.07396688060718
1.08433504300769
1.07970257273653
1.08784172431027
1.10818036494946
1.09622793385159
1.09825403031792
1.10390188486488
1.09877407166855
1.09303635608854
1.09897189820799
1.11226148030881
1.12263690780235
1.1114931991249
1.12005729516942
1.12356720813777
1.09040729579194
1.08689617142789
1.09625547734925
1.08866483461656
1.08276058540479
1.07923239825291
1.06344499474572
1.0742823958439
1.07399007133012
1.06043024849505
1.05478135250146
1.04362424233581
1.04050040965498
1.01054609416988
1.0094340484432
0.99618197800498
0.957716993546793
0.925194110374401
0.900974538960678
0.875416900470848
0.860120347915951
0.842468643459732
0.808354829994713
0.778357900832228
0.756777024290019
0.73898647714199
0.724514106900001
0.718591904651727
0.707641788715787
0.706380187930299
0.70608729751577
0.70084873121418
0.705225030919391
0.71029189511506
0.710077188835442
0.706432172754311
0.715505220112837
0.707671646664725
0.701397478871732
0.694130545270669
0.689674547998582
0.680862501052981
0.680338159983787
0.676212246738618
0.667291339715221
0.658200657643399
0.654693214689527
0.650239154539292
0.641975847825813
0.623349344832793
0.615043455569581
0.602930059262834
0.595400851145786
0.585871050938693
0.575026798401248
0.560721424649355
0.555162357083457
0.546743527034015
0.532102048553336
0.52262389256287
0.517136112687343
0.510485334281916
0.504598774716785
0.501487761355654
0.498515495957648
0.488891358500453
0.486390371764769
0.481553076903796
0.479908654154669
0.476635451003336
0.469763251804445
0.46939060005824
0.470210939186742
0.465322668812701
0.469945275600918
0.466023069656407
0.467536654916811
0.467146434463884
0.472849236292458
0.470525015972359
0.466828692331373
0.471888051945979
0.474380125797948
0.470141624657476
0.470593019307837
0.478258824299164
0.48207143849848
0.481825778158748
0.486656077354869
0.482014414837823
0.488515342920077
0.490274385947132
0.48725382969294
0.486940715628063
0.491867935553368
0.496183121588665
0.489069884083258
0.484737463246979
0.493533232749286
0.486553882491543
0.491689611305495
0.495759732845429
0.493450358199827
0.495644416326875
0.498030976888654
0.506360342896959
0.50586225025193
0.505008965434641
0.506571866375719
0.510361439736394
0.510313166710111
0.517015941550734
0.515271739292004
0.51990779576972
0.529356754783144
0.52710336216237
0.526029655982265
0.52140198238567
0.528970843088351
0.533918848006863
0.54034640652198
0.540427181582412
0.544246163556591
0.547722803407106
0.547771769973114
0.549587191605759
0.555494043218284
0.55412443608391
0.554334482925123
0.551400736414468
0.555896983582009
0.563955870350117
0.561654613640327
0.567244237875812
0.584610339891526
0.579977459834489
0.581016173073122
0.593225328342133
0.603253695456217
0.610674635335833
0.614263909313137
0.628179794536907
0.64346560711444
0.641255364514657
0.646744090694129
0.654183246624328
0.668778112263674
0.652393254721767
0.658738291543307
0.662443237979261
0.670532776725787
0.664410757562641
0.660185425265266
0.66671526534776
0.663163924196724
0.664684862374338
0.68172805456915
0.680081756475624
0.682329367162043
0.67586352664331
0.670594662387641
0.683315134729777
0.691535461928232
0.68205089574491
0.694026666303453
0.698373833358109
0.704423093395586
0.706133334640284
0.706533990884355
0.695474674096761
0.698816583908219
0.710314033715903
0.709330437306922
0.704806756078284
0.716887419009699
0.722246339927786
0.717097098136382
0.724103751545791
0.733303285891819
0.731611722107406
0.740174894117647
0.728300824395211
0.758874855844214
0.758171452283834
0.750320972833034
0.758698176353957
0.77036733488453
0.767828723077521
0.768666661600288
0.753095045331407
0.761873609959886
0.759285519134403
0.774061231304017
0.755718663306546
0.794493206143557
0.784418996992908
0.789571303481191
0.789950937301753
0.803112978368056
0.816906010542938
0.800031150619458
0.797741108053235
0.828652693747487
0.812474200888249
0.83698935295518
0.824292588529332
0.832353887013467
0.848706058030395
0.837873877104276
0.851328226205798
0.857724551927444
0.826765999597238
0.856050692633934
0.855028103826327
0.842327347452666
0.841869720587485
0.884281583687504
0.860298135497535
0.867891237083575
0.860232617163265
0.885531125748533
0.888013063384631
0.891037300939044
0.880981800592193
0.900745479799379
0.886463729063009
0.914306199638157
0.89142722710533
0.920613034682726
0.911198859064467
0.913206256195344
0.916512420354364
0.936147428979066
0.931474502941028
0.966883748652431
0.931779233081519
0.98073968539032
0.977928506334058
0.990770959652267
0.971093166225737
0.976273110554875
0.950721006341722
0.982456578939946
0.960925634203755
0.980379242755047
1.00718189867393
0.98324624416569
0.985805557327225
1.02276475833217
0.98135501925578
1.01963915990127
0.973139101725013
1.06591349857708
1.00147499225103
1.06382352714104
1.13726155695237
1.10565075704569
1.10518602695641
1.10014039955902
1.10155577512457
1.15988590659296
1.11584824972172
1.26512230771586
1.10583287007112
1.11234005713175
1.09994272387033
1.1789098712958
1.13731937994421
1.24878550475188
1.17299879324329
1.22097307625404
1.17075560863589
1.21276333009096
1.12958526076638
1.27678637709035
1.24307536330427
1.26011856198
1.11692130844402
1.23919735889718
1.15683178373908
1.28400775649579
1.24727126511882
1.22132352865938
1.29865664198749
1.32863705286178
1.28756952394957
1.26161098671418
1.23864967275023
1.34083155980476
1.34191033150963
1.33396494253024
1.17781672745003
1.39931079951203
1.24702026610951
1.28197700950286
1.19823880890525
1.11940735103905
1.15634774556456
1.43912513421427
1.33980865743182
1.34811923846142
1.29990964402631
1.36082782687439
1.17133290199832
1.26371927877366
1.28094686887179
1.40813593024084
1.22607018499979
1.42646854532298
1.25526561708576
1.35975132756512
1.39139329621752
1.35805675564064
1.40295283421515
1.48485121012642
1.2275484827922
1.54194390820737
1.37847556644341
1.41780364968249
1.36732222203016
1.40090798267563
1.27057443162631
1.39669721451293
1.59320078844015
1.52122733641893
1.22573577688327
1.9330976087346
1.37868697543584
1.46798346623458
1.3091298479854
1.57750455519506
1.38693665324656
1.36782010962358
1.26146266055838
2.37642958224226
1.45942434420022
1.71145229430668
1.32098135112095
1.61813233024876
1.40168387051462
1.69723232190594
1.79037499094512
1.87300927168854
1.44043908028209
1.69676741645176
1.17392700295856
1.63087829962903
1.52362715367271
1.9594711125086
1.54127922323618
1.50108231770861
1.76392083311665
1.77154697842843
1.31997678982489
2.41339067243665
1.43161241365663
3.35236129801848
1.44754180198178
1.73741413966026
1.47654682560692
1.87411411422389
1.16905294636138
5
1.72697119696203
1.76279863134568
1.3868837354698
1.96085746409404
1.02813881616588
5
5
1.72719460570852
1.13473266766677
2.64307820291547
1.340012566125
5
1.40847167101319
1.80261864433217
1.55215162528833
2.18261628575875
2.23079692018766
1.73396558161212
1.14704828272288
5
5
5
5
2.13606837489503
5
5
5
5
1.12013091964303
1.96674101526244
5
1.20058382838369
1.10319770909028
5
5
1.50002467767083
5
1.70531959366462
5
5
5
0.853250954641156
1.41806135644172
5
5
1.86545933543843
