3596
4000,36533379555
650,420452594757
1
2
2
0,0469723380861804
0,0250086887874072
0,0460598426437573
0,026747840653074
0,0426815097634967
0,0238695643270823
0,0385177872421813
0,0330259751258833
0,0440135379473176
0,0284953361026964
0,0407799754881754
0,0343401093491593
0,0408765680992346
0,0229782519525645
0,0482117658928545
0,0284291586163616
0,045493424167353
0,0206680877741037
0,0382248101621532
0,0265892867285965
0,0486652846916068
0,0271856454427542
0,0443937808123889
0,0241916424276858
0,0420602356613945
0,0322398542972817
0,035028287183606
0,0189204742958041
0,0483872471082651
0,0272851428105976
0,0511859472352485
0,0279719053040222
0,0406488974671132
0,0303499557742125
0,042366156104101
0,0302334955900181
0,0431153775406874
0,0235613067838108
0,0466417990555526
0,0207910078839413
0,0421566460775176
0,0297238171451868
0,0486974396330957
0,0262705425048723
0,0498220966624993
0,0356135077151578
0,0541385062286164
0,0334734783682704
0,0309222154142134
0,0350318948949947
0,0447568118850857
0,0301038693957326
0,0439504717522326
0,0356853364787586
0,0439379026060351
0,0321445966589368
0,0390545797674926
0,0262054112518906
0,0446330733905498
0,0225504321092128
0,0379146802223493
0,0450603384167429
0,0438125225438482
0,0327321665442437
0,0394432726669747
0,0267382499736145
0,038131419109694
0,0297377578236036
0,0401250466205303
0,0374708846941957
0,0345869767644195
0,026785162779731
0,0448781958613064
0,0314146929012252
0,0450735453725106
0,0183438123037532
0,0457428851960822
0,0252624736939899
0,0358884073020159
0,023503246959408
0,0419044545407801
0,0299574647188158
0,0451915986705734
0,0299562999215412
0,041713323455432
0,0372934788670413
0,0371939616806201
0,0253856677423042
0,0443314439856515
0,0341555023738745
0,0391688885181085
0,0268156976602059
0,0442136217005481
0,0286145391751434
0,0396740567844069
0,0252004415291646
0,0372753185754165
0,0216638400537601
0,0349385904183841
0,0239545602760255
0,0402943665971601
0,0083535132946137
0,0711295307751559
0,0197393703655995
0,0677199846866041
0,0346851531471199
0,0295191657309906
0,0495477901650546
0,0475166869539468
0,0378123622437929
0,0343119945913166
0,0263389890787427
0,0352211222000225
0,0336896861483655
0,0287560561028157
0,0167827962290643
0,0562658465883313
0,0330168731501291
0,0411646181916458
0,0348413285042588
0,0246957791986242
0,0158127251016579
0,0682895472569544
0,0216335347307416
0,0475413428011507
0,0304402075014516
0,0218230550133711
0,0360879882429543
0,0587260365347041
0,0265613011580764
0,049664126730619
0,0250986236629277
0,0362915982347517
0,00382060555625647
0,0656167830410092
0,0347040372497685
0,0506879766139039
0,00820311728121726
0,0418328338596166
0,0431723466422356
0,0525581566657325
0,0332500015765566
0,0354662206017323
0,0105934594122861
0,0649166810686213
0,0281092386048623
0,0285411259167064
0,0406210566566106
0,0575182517680314
0,0184080475447485
0,0391382942100541
0,0192518410302645
0,0464830905830809
0,032126837861104
0,00606678459995132
0,00515166425608189
0,0839713733398209
-0,00359395278774676
0,0950584989384685
0,0208597680425494
0,0530841005610407
0,0174082547433459
0,0450112624846935
0,0249080621200712
0,0398695002961774
0,014446428262965
0,0323528677483963
0,0456765382441399
0,0368834006708907
0,0124161878651158
0,057498785784358
0,0305382740718928
0,0101741589702093
0,0595549144424081
0,057698951562712
0,0067059694049828
0,0614465055166032
0,0409047282289838
0,0373573229293153
0,0148293704276775
0,0631341981193703
0,0287742453896615
0,0434261875921875
0,0240068030502396
0,0423279308839037
0,0307376921726581
0,0439364621587182
0,0242749421452756
0,0460440357360268
0,00492393700502067
0,043014165315846
0,0364501971546883
0,069438728942982
0,0210599797487197
0,0518910831909496
-0,00589199943485447
0,0584012313563459
0,0444073906384758
0,0423070845306307
0,0357446826008806
0,0402185634241247
0,0278552535807554
0,0385440228353984
0,022931560683954
0,0406347829285638
-0,00268551653921692
0,0583875378854802
0,0386441551027429
0,0449596248614335
0,0220367775058474
0,0429745089810035
0,00196449154269157
0,07059707634429
0,0475920482240201
0,0418178180056903
0,0331589959721675
0,0337498565639351
0,0383012089887659
0,0567937666304705
0,0379630324296299
0,0454241872980917
0,0264434895829055
0,0445536403090532
0,0273048299602636
0,0365357057973802
0,0316051741079032
0,0429379058295433
0,0238962863428474
0,044486500527374
0,0271378416381487
0,0515325362117322
0,037772172635392
0,0426620533096266
0,0348892575270407
0,0331148341862574
0,0272916203995844
0,0601327091084913
0,0282299153173245
0,047735198115942
0,0288298470517413
0,0434922149337146
0,0271810142185858
0,0460949416759097
0,0220588789742715
0,0460875321673713
0,004480523711732
0,0764333601930598
0,0352633104196597
0,0519014737353263
0,0178081477044197
0,0511748304536935
0,0396188844598422
0,0449117581959483
0,0316353444454199
0,043490944911069
0,0226471915522241
0,0344279992661546
0,0519840373962442
0,0539540562207885
0,0219683749481896
0,0498175583741018
0,0378314981329978
0,0401291868480511
0,0308199511318038
0,0102503728995175
0,0717844314058865
0,0526827713055876
-0,000177573784266868
0,0913674089528237
0,0431600175632888
0,0559056462629889
0,0252425317247693
-0,00439895626159203
0,0730902168960184
0,0763645500323426
0,037928076538581
0,0460831277442654
0,0438064301519176
0,0459978103745383
0,0280282663389375
0,0445136043883448
0,0270223328140911
0,0566535122970529
0,0387020555147654
0,0866205992413185
0,00997243141395959
0,0605318571182702
0,0520667971209539
0,0423431419090095
0,037664873359839
0,0503632334898243
0,0349643494588537
0,0518130298605136
0,0480025275439735
0,0523225895151747
0,0437668538683713
0,0421056110171555
0,0512389367237697
0,0509574361816395
0,0445083093879882
0,0549969622775194
0,0548740351427043
0,050030997292397
0,0431172949047772
0,0485777260680818
0,0469664322170622
0,0517855022376384
0,0173957957543034
0,0829372967509331
0,0448144866998784
0,0469376628381264
0,0674524791219531
0,0550679097715012
0,0464158619518117
0,0501414835749485
0,0515978887132295
0,0520896695205607
0,0436243935527707
0,0410660502260204
0,0586548357546731
0,0604189499287875
0,0510773653206031
0,0550930282681763
0,0468571173462834
0,0639033587946022
0,0530754005893607
0,0645433889348302
0,0525462890219018
0,0663921847547237
0,0434811932323491
0,0731401543221267
0,0821652003801079
0,0488252901154288
0,0587676790840994
0,0816093304329916
0,0615239307900391
0,0733955792676319
0,0554659598662876
0,0721865935743773
0,0567168261020805
0,0706026686611547
0,0599153082319003
0,0689191457937948
0,0724474173875233
0,0837517615485752
0,0540211223598958
0,0725944070534182
0,0740552774041298
0,118433000857823
0,0742892569334111
0,0915451611410343
0,0467820980528709
0,10950082100734
0,0906918264095211
0,0953186965113332
0,101206319906469
0,0922936554608502
0,0890577065450678
0,0986493771411783
0,0907488316263521
0,0953359858219559
0,0953910626150195
0,1039164944159
0,10076270378582
0,101247517041363
0,10840163047444
0,1033723961648
0,0958421456449714
0,145259813713966
0,111319572294806
0,124233224969384
0,116952532590302
0,112305622258137
0,129181962952424
0,120296281092986
0,119107604184918
0,163160559128628
0,118238630103539
0,172202337398176
0,125766946879984
0,15224863762073
0,130062367429192
0,155272883840644
0,142296856487178
0,15807608994558
0,142844394294295
0,161447364540458
0,136318546863023
0,170087103592177
0,146709058516317
0,175455212693349
0,150888228608658
0,195674065675832
0,16683182090099
0,188907028798461
0,157614029649704
0,186424494828379
0,170556335160702
0,23922221226306
0,186215200081953
0,206022663159181
0,191085439438845
0,204494735109945
0,187240679863768
0,206754990820752
0,193149811487247
0,217697528940524
0,222486458255246
0,244566616478898
0,215717018694273
0,245557661955177
0,210909879130192
0,254215361006641
0,212336480334631
0,250653193650827
0,245150505416575
0,269524118749786
0,22627475226099
0,273094932245069
0,253993943513806
0,26277892984004
0,265250115430116
0,268709865499424
0,259858089425164
0,286924441823972
0,268784949063774
0,28235740529425
0,2765728457032
0,295981503900073
0,2744070272906
0,299673233794864
0,285904663057595
0,297026426227266
0,285704548558591
0,318564766663053
0,278047277044027
0,337943473976752
0,31235615617094
0,332301512068126
0,300247360614642
0,358784425622439
0,329694937667949
0,353861415068793
0,337340190697588
0,355199262395922
0,352194278754792
0,366306514730185
0,337136017499396
0,362651182904975
0,348617755244761
0,386251945393527
0,357788313465258
0,395454024422548
0,376740222181703
0,391175284257839
0,353334952316366
0,388769700522356
0,386480298766615
0,411560994956899
0,393643198764179
0,427315717274051
0,404863553202816
0,444075946501907
0,4195371032645
0,458041280573271
0,428748621359987
0,433306994273472
0,417377025378383
0,450233970576842
0,428077614562571
0,457598413468396
0,444835675795169
0,470953467342102
0,454143110648883
0,482706818527311
0,44994227370669
0,489541382513603
0,44909399518451
0,505036719758505
0,493570637638218
0,542133874157268
0,465377226597427
0,510229393765531
0,500417838058952
0,524610514930152
0,494117099959028
0,513149305560546
0,50166513636905
0,556770459078017
0,507421014033304
0,57570209721768
0,537115223098434
0,567745339405792
0,561061714776372
0,559659722829621
0,520361339332154
0,565270071804817
0,55148666096216
0,598136502767311
0,559086597186405
0,638568653368582
0,5746698645794
0,611417445683048
0,593628928877682
0,640663292128114
0,585301082103624
0,633265746670447
0,588802489584827
0,6625821088595
0,599871561980033
0,627478188857628
0,618963259721608
0,679032160693375
0,617282933752898
0,655180304694964
0,599319764652782
0,678821069279857
0,631654533774108
0,689800082507716
0,664567899962243
0,690710611617254
0,638679287736863
0,724637378376334
0,668470658503487
0,730847222404669
0,695180921165371
0,729676878218653
0,692851792486299
0,722271700831308
0,696256979678023
0,709983630611605
0,711062633436067
0,749518564592124
0,704853756154592
0,797374839323198
0,719220846649526
0,770324845468425
0,716499206793727
0,775816821845522
0,728380110097546
0,814503958692719
0,74060135158409
0,797531667003542
0,745313897251422
0,797266843299564
0,753611267284973
0,815520637815168
0,774344253648017
0,788095432153133
0,744434328408169
0,854550639728585
0,779153372712252
0,868328356880437
0,76160337286117
0,864090237444092
0,781009330268789
0,849776497527902
0,814394764641654
0,855418918628413
0,841202533281453
0,847896600907682
0,830042522445781
0,860103491371778
0,835207716113662
0,886577522825117
0,813212841832361
0,888103315075398
0,807153819046233
0,878316154222968
0,833406735743366
0,93291318380411
0,819538120279001
0,922544549606926
0,916853934236153
0,923509233556862
0,879899993254618
0,964716849709857
0,913357166902621
0,95900255903632
0,835795722228204
0,976768652180547
0,93519999418732
1,00854647608704
0,924329236343954
0,992142507021489
0,923840673134869
1,00782283201555
0,918381665259466
1,04778771572353
0,904359887945992
1,02132232338483
0,994732606089129
1,0272116606043
0,962410254485852
0,981714536462849
0,934286682171585
1,06527811770995
0,912215835761088
1,05812592003342
0,959083737055675
1,04379124247554
0,966335832078911
1,02352372299283
0,964962816833565
1,05530621189653
0,944088755074874
1,09094690651071
1,03010529064017
1,05709985970099
1,0434790280566
1,16053923178431
1,01331524452631
1,07935313628901
1,10660173886646
1,09281179324322
1,06822247598929
1,08154756460737
1,02949666651864
1,13481559780522
1,10536205035773
1,17728052823439
1,04892213995035
1,18368427735247
1,10474091532516
1,17685513778126
1,06420237671195
1,13363049829494
1,0590093854684
1,14562603928512
1,08366407779283
1,21841801493498
1,04492327167951
1,21070481680522
1,07377403969764
1,14330525061422
1,06170079464825
1,17674698150222
1,11690639442281
1,18099795674973
1,13442468186443
1,16142803999182
1,08185147393606
1,20968901487223
1,17507698099886
1,27368367042122
1,15818869964643
1,26843650440913
1,1794789016154
1,20311221823248
1,08179316178501
1,19304375002384
1,12099230608782
1,30798379638175
1,16880170387692
1,26698628691605
1,13257457799005
1,27563488227526
1,18182656101741
1,28763708239016
1,13118799252482
1,29833023617163
1,24344895652757
1,17079559033098
1,18401262462352
1,1955387081878
1,17439701516957
1,32914665361163
1,12188141551137
1,34452278349839
1,18661573586853
1,32432695612292
1,20333059981493
1,24060519034388
1,11975632472992
1,2419551901772
1,16077325674197
1,24196680179088
1,16750890685862
1,29185917944078
1,20862490298977
1,34911678687473
1,20189434115115
1,4033377161244
1,26484281651716
1,37965066775215
1,23456039272905
1,32692764816666
1,25165695532112
1,30137341960229
1,24587526735
1,38284850027296
1,24944286427529
1,32350560219332
1,21624636205727
1,36979179968519
1,25653706704483
1,25707490411745
1,35002620144034
1,35218681115133
1,21147987798409
1,33763820137621
1,27088330544857
1,30647970772125
1,24224688774405
1,26227079430612
1,21429062028403
1,246047847535
1,25674436594015
1,33675805799449
1,24183317108863
1,28311689602541
1,21565899534413
1,35244333730703
1,23144837450563
1,33168412410021
1,20529324517459
1,37221191990042
1,31250933668889
1,24946378436405
1,20961934314906
1,30773106868344
1,28021051003021
1,25935250018072
1,24400794539649
1,34582069968072
1,26022137646367
1,38696449998977
1,19819445645294
1,46423197221187
1,28508026885785
1,41983832567595
1,21983103934432
1,32687196307454
1,30646100353507
1,40955270406463
1,22561580509057
1,34400909582837
1,22175773565426
1,25005247397326
1,27953906317128
1,342887416672
1,23942267868325
1,30108369085083
1,26784341178149
1,34998188301736
1,2830144600411
1,42597222616581
1,28091414827564
1,33764573553908
1,28362168952564
1,33935781114952
1,26437695825823
1,3590843092167
1,30687143077523
1,32156212284812
1,26816892644815
1,37613135016047
1,36344323139292
1,37048423864966
1,23906502884803
1,37348013527844
1,2486278490832
1,42594626159724
1,22206375848084
1,37391708778225
1,28238143078762
1,42477929548191
1,23446511978801
1,2965554320267
1,26670722657226
1,33666456821192
1,27838494494103
1,40467292298542
1,28800708841259
1,36855003933122
1,26195235415163
1,35662868419992
1,24568890305898
1,34927994079662
1,35292589148416
1,3083809754258
1,26902362020666
1,30418497266041
1,23973214309192
1,31220294939211
1,24653301715457
1,38552117727537
1,26570433099215
1,38080782586725
1,303495094284
1,35965213415091
1,32046869916819
1,2809728451462
1,25303455385106
1,40013607793369
1,2526406755033
1,38091818621186
1,28053071255374
1,29581794389803
1,25633714392425
1,39429830668942
1,27889994740093
1,37108234980674
1,24945937746639
1,30859968849216
1,19379497171279
1,30106416936784
1,22738307380588
1,37824446818172
1,24593989842109
1,35364952590802
1,2680344408314
1,28447529736131
1,18946867196104
1,3294114208662
1,25486304651265
1,31403578998571
1,25365795916292
1,32105793915716
1,22318945540848
1,32060738652152
1,2080526924882
1,26473550127905
1,25456295077506
1,27822490501971
1,22564714100807
1,2888825563795
1,18765581289939
1,24715385243177
1,24112450393374
1,32320030701778
1,19825867085147
1,30833808956649
1,17100145069864
1,26683573026686
1,19309588170478
1,24663821909118
1,19146031456358
1,24869628801641
1,15171970628335
1,21304872110589
1,20408710513311
1,22381577471793
1,17062721544613
1,21327002135772
1,18857888388001
1,18502251952065
1,16103229887288
1,15371363713586
1,17574835753593
1,19122964409427
1,12876115125114
1,19032827926911
1,13770484095944
1,23842465538599
1,11398156145322
1,2199723901092
1,14447336311453
1,19467690926463
1,14536607064075
1,15266565872474
1,13256793853543
1,17325725304929
1,11292881682968
1,20016421462882
1,05118372115658
1,17193824054041
1,08716872706159
1,18598800549073
1,08535182905957
1,158532624695
1,06700396702392
1,12011522647244
1,08817311251558
1,12817917338422
1,0736894833206
1,1153958389594
1,06870203704104
1,08591993075771
1,05692032209728
1,05523008768503
1,0406761353459
1,07965204315244
1,04537978216548
1,06183699579607
1,05919421693119
1,0734605975501
1,02259392587577
1,06232127777009
1,01394403701084
1,04431423460791
1,0118062928368
1,05608475729454
1,00303917143152
1,05210997155037
1,00340014519118
1,02557513520038
1,01039543128146
1,01814486376721
0,997243769236576
0,978584764630194
0,948942872889039
1,01028978752509
0,967309359999956
1,00037654906711
0,961583718346396
0,976161762885247
0,954856510528804
0,946633743346777
0,920328642732575
0,945277738214701
0,919321591511993
0,952341535202375
0,945519034012822
0,975352785376374
0,919956360755735
0,928863717350442
0,908257396565225
0,922411704009599
0,917824657903854
0,909467003052606
0,890806140945497
0,911457155501369
0,868721389273405
0,89110900578786
0,851027976472805
0,878483164034188
0,858020336023658
0,891022385144548
0,858043106209362
0,881631280489328
0,833732729379587
0,878031496105431
0,834634627563583
0,877378186385709
0,825884663080752
0,850821978617749
0,81052206497917
0,845137616717734
0,814372941193048
0,831253886450075
0,803981785828985
0,810255572760988
0,764747976322046
0,800228940215628
0,785558865065683
0,799895120467719
0,782367946547352
0,79241722420694
0,777548364305442
0,802463407164702
0,764234379901527
0,782906531806894
0,750798111858993
0,772617866083201
0,758695928353705
0,755974505160311
0,730183752469949
0,744154941632302
0,74074527639413
0,757159088108485
0,727215706097599
0,745821427873737
0,718466099350184
0,738399079639664
0,708076474939626
0,719662552259055
0,700773602059924
0,70622823681055
0,69606349874699
0,718769687110003
0,691540127649294
0,70105514014771
0,683048952647741
0,683804614704305
0,667697116617718
0,713230275755765
0,664253641505025
0,686232590315938
0,665463050667818
0,68852968015545
0,64891510871599
0,676322284078769
0,651424142004305
0,661229453562578
0,642672921467153
0,646510645240506
0,631222550401408
0,648375921013402
0,623520274470822
0,643597544898483
0,63427555486734
0,641690446717715
0,597138161398829
0,62592828980736
0,616839687656773
0,619528602660487
0,607550384355156
0,606491965421236
0,598305246456191
0,617468940135897
0,594234935364892
0,606014482528448
0,578508200118869
0,594614975113965
0,583615498881076
0,597513073070161
0,560741246032191
0,585679970342336
0,557535362312297
0,569136682761312
0,551547608633833
0,570564516762184
0,548157991758369
0,564321886277926
0,54896976501429
0,562982996029326
0,546070404817613
0,552683498502327
0,537820735636947
0,54327700573732
0,527118584767263
0,543692496034508
0,515623348542746
0,52899728001346
0,515143879426417
0,524623477513008
0,513128548316735
0,527850596077443
0,504596449292631
0,517957049267294
0,506846767989164
0,515835955479352
0,491760065113034
0,503767459087705
0,489839306920519
0,500471425075808
0,486966440620695
0,488548450838936
0,47264352884944
0,490384833085378
0,469268996359693
0,485186682416552
0,464388684326469
0,470334691514805
0,463540101826634
0,470555812845468
0,45480889562313
0,472738496791529
0,450528725828718
0,455001960808272
0,450767608309868
0,46325807373271
0,44231100755142
0,442171316140404
0,438699250374769
0,43992489404321
0,436340384246299
0,443455612497075
0,427654953406185
0,437842753871517
0,425479096869405
0,439421152961719
0,427202276841937
0,431928399097529
0,421958911193145
0,429145661356407
0,416950097939676
0,421877467823601
0,415544683843993
0,424399248525621
0,409770391539815
0,411658800212017
0,41238575951894
0,412453144754662
0,405609782222783
0,407924425077843
0,396590724951611
0,416075785441924
0,395092890475668
0,407167195240111
0,400009928277132
0,404541974569731
0,398560293378756
0,405772995149581
0,408144930798363
0,412454256526826
0,395600325962634
0,404362098692617
0,399818812764377
0,408403002819413
0,3949340781992
0,405212335454221
0,396553919823303
0,406566911715106
0,397051936378363
0,405667627231455
0,40141131479986
0,420749908489334
0,403354828490954
0,411594522584189
0,408442738928693
0,409103634532612
0,409604152788631
0,414886407869469
0,400873354825069
0,417294080140073
0,405166395201946
0,41126215474065
0,410445336708035
0,425152883495693
0,408596800062588
0,407936910196241
0,414901030534031
0,43145880105072
0,423479350722823
0,436622125637884
0,427829145911987
0,432324835219128
0,41939466673902
0,428871719075163
0,430044328346649
0,440340657920673
0,426004816585557
0,43692737443954
0,429108297519532
0,444109364898821
0,438029948316323
0,455101097461989
0,446801620267175
0,454357199781189
0,449708790490331
0,458396332035483
0,451872238581785
0,472309175066531
0,457619046322467
0,47375971898882
0,463664397136286
0,481548640932494
0,462755160740763
0,485517851900007
0,469815909474016
0,477879787338312
0,470049499136299
0,488248014354723
0,463445279894963
0,484018421400835
0,461901739853919
0,483238441713223
0,477507110647701
0,495738563324976
0,469948508355271
0,478178827421345
0,477274274296473
0,48269904933422
0,467884426455785
0,481463023838764
0,465031111619812
0,47764143198833
0,472276224964296
0,481216299684851
0,462090376790057
0,475060225751776
0,463262560753213
0,47396388020914
0,453179422193723
0,476998480804401
0,46244664859674
0,467735664501264
0,452273315131967
0,468793346386455
0,455185891510838
0,46993224792338
0,462131373568293
0,47107044120754
0,462655258188868
0,465472541432721
0,457848113091424
0,455618926521216
0,461875298882996
0,468898048989644
0,456937017854809
0,469602430232046
0,459312502857207
0,465365975822553
0,454294471838234
0,473601019376601
0,458046039440026
0,468706441362654
0,456023474964558
0,46651976632186
0,45476624670228
0,461057754743977
0,453899141068574
0,465968900396331
0,450751725709379
0,463907612535344
0,456108315484089
0,46117227495001
0,447369284268088
0,456681822331312
0,450372947805681
0,455822946763592
0,446605556274331
0,464200286280415
0,449457408273976
0,463429013711202
0,439492127615351
0,443078262605206
0,43931355640024
0,44279350855021
0,434344404152775
0,445176362875092
0,428679890369705
0,430744519026294
0,427317389989713
0,427394032255728
0,414557515854885
0,432178702205116
0,420315107674701
0,417576513039542
0,404969066826819
0,415713560736261
0,405525219446095
0,400777427649026
0,395743660340827
0,396365348509355
0,389261931517922
0,397291695023028
0,386992935947008
0,390892771606506
0,379245097942369
0,3820749281188
0,370355213476913
0,376590509959306
0,370943587573444
0,372395131400636
0,366911821686944
0,372194612075541
0,355827326355997
0,350600698366194
0,35311965829497
0,355858395836255
0,347972087595097
0,349347752331655
0,341530126758011
0,345498148207049
0,337571333776884
0,345053221961805
0,332844187412328
0,336546341156192
0,332878176430723
0,33725778877368
0,330867283511708
0,337622247102618
0,314612666431874
0,324999688775003
0,320314386134851
0,326537153871203
0,317777893788995
0,320795487250067
0,311457896000318
0,320439151572176
0,305774565936718
0,308397851520035
0,299257738231068
0,309251621369842
0,29947045366358
0,31004649550845
0,297665570181813
0,30274874995437
0,29420309264603
0,301372771819497
0,290859764873202
0,298400429658385
0,290342473905988
0,292542147392894
0,289700908277793
0,290433650485892
0,285282325728444
0,291504911180194
0,285010744704834
0,282283102231272
0,281042187085647
0,280103701723192
0,270976805938935
0,283762805494653
0,275233905429327
0,278190167253055
0,26756491592345
0,274342909308889
0,267352995039503
0,276036020920601
0,266122748187153
0,276523798559268
0,267146908186315
0,270527603086223
0,258523551535679
0,26703299795557
0,258345521442811
0,265185079150242
0,256492149484481
0,261544371325747
0,253769714391338
0,263552840351944
0,252440458315855
0,258680673931765
0,252153511902412
0,258125971720384
0,24875399612575
0,255009305340885
0,255972480139691
0,252721158739942
0,246543193990588
0,252089586020779
0,244072739907665
0,253752904258403
0,242205689575903
0,249972899021384
0,246460748876321
0,246125983971871
0,237928491409088
0,24413722599189
0,237060697990421
0,23807318099289
0,240352517002197
0,245027254838338
0,235090183058426
0,239850539602098
0,236721137781395
0,242470444046212
0,23290371300178
0,23902635496794
0,234244376668254
0,236874916042852
0,231893558582343
0,235027320722859
0,231071946571051
0,236348193080221
0,22412280549217
0,233289027070374
0,22714903775257
0,228140947764751
0,227971221821054
0,227805661584916
0,225060767452646
0,230698004914492
0,222075630359662
0,224269509498122
0,221860271631965
0,229078483688891
0,221652772543259
0,228879420258819
0,216079144298491
0,228389853167612
0,216804857005992
0,224465975686989
0,216475510785153
0,221934648306535
0,214703028548063
0,221665630948141
0,214010278219525
0,220568111420087
0,215122817153517
0,221037714232882
0,217003267520619
0,219457183314786
0,211394800089299
0,216471162479285
0,215434814193679
0,215169694511818
0,213944689510593
0,209826843520378
0,20367779947663
0,217856450500679
0,2096333067137
0,214126706343354
0,210078971636868
0,216162177830783
0,206672058299081
0,208764396876235
0,204388626766908
0,211473589247935
0,206708253757381
0,207758089000266
0,204619398719721
0,20468901210917
0,202560415224418
0,206940830667497
0,202064053844016
0,207386718832782
0,20238084525457
0,201768247661033
0,203392398786064
0,206236169301438
0,19626226936976
0,201342931044774
0,19723809439749
0,198932717353506
0,196576646048885
0,19823676560165
0,194015761578375
0,195768619466429
0,193600697032035
0,194933679468025
0,189483220034446
0,193659825913744
0,191244521586728
0,193184050626674
0,189988071868309
0,191882216495384
0,189147005342685
0,191071443748601
0,185489785875069
0,185047250419462
0,182306921728954
0,188094435473908
0,181531815504963
0,187590862874884
0,183662264856567
0,179824122443842
0,177311838003158
0,183385396359448
0,180393472268554
0,178565671149947
0,176254064857145
0,180370151291987
0,177619464322812
0,178351217479669
0,171388491713868
0,171963868152913
0,174130081882762
0,173061413795149
0,168878313311277
0,173648423560951
0,170122492067989
0,172832706865297
0,168040658058507
0,17044343053365
0,167962999042827
0,169744656076654
0,164446371249465
0,164428936514102
0,160778153703552
0,168500286590389
0,162446341636739
0,165262077356454
0,161943782942892
0,161079512690764
0,158714892363609
0,163076324566012
0,152737238813222
0,160076696873036
0,157028151671726
0,159596895504002
0,150643023541884
0,153736267324819
0,152907165809558
0,155603428665409
0,152210348590279
0,155173540012029
0,150622344487956
0,151951380860685
0,14913226019776
0,150801906964548
0,147644198459901
0,147150704200678
0,142843472403135
0,145719893709097
0,144851989217437
0,147018384485074
0,142465377515441
0,144308051717906
0,140870711239606
0,141799544345108
0,141583065475748
0,140473478375775
0,136819555592404
0,142085537552676
0,137293974968068
0,137847141303695
0,134283418499678
0,139835576923604
0,135579637681831
0,135019397848868
0,133836559595191
0,135361419572724
0,132226514145308
0,135046013868374
0,131345001956816
0,131210315353485
0,130953605826972
0,135125383289374
0,130489507715522
0,132529803711207
0,127017669925268
0,127205517411533
0,127490434308254
0,133097438217842
0,127535839384938
0,130274049842013
0,125861098167458
0,129432463276014
0,125106736793163
0,127792007240766
0,126854044492128
0,126927479930337
0,123407665310061
0,126973117936254
0,121332055661606
0,124306179883316
0,121249947355662
0,119457986626585
0,123428563245181
0,120585285512201
0,118398437362197
0,120284246302718
0,118420634058766
0,120166242053137
0,120599216496808
0,123511998493164
0,118541983023475
0,121059084294147
0,11797060985434
0,120141792972674
0,11589484076959
0,118235319729755
0,114871171691675
0,119207329963321
0,113328517566243
0,117546000152866
0,115460454247926
0,116099397838653
0,11587974201631
0,118365972261183
0,113282453245015
0,115671466363379
0,112317854693002
0,11711599774467
0,113885987774896
0,115004050308956
0,112545781057791
0,113233105664116
0,113894540971526
0,117260899646168
0,112435952538738
0,113531864769474
0,110327152499146
0,114307895821238
0,110000987298578
0,110965261164433
0,110833304652326
0,110620981548985
0,113229466173419
0,10966165135147
0,108780655821168
0,112567401560915
0,111144511021511
0,114801255792073
0,11010426009815
0,109223102492242
0,107554282601721
0,109346484741855
0,109023783007738
0,111734684124516
0,107672320956372
0,111373701166893
0,106745829887171
0,107707701837837
0,102865846981172
0,110422567984338
0,105201236663686
0,107943066484277
0,10797722117315
0,107609788002961
0,104961827668575
0,106278710349996
0,102678440260032
0,10540512465259
0,106259263121758
0,108824307491411
0,102343466748143
0,104028762953735
0,104644832144808
0,106814850459144
0,103847269570329
0,104062677947551
0,102118469659165
0,100411877572717
0,0998354667223075
0,10108981780409
0,101825506797192
0,102409804628558
0,100011657472073
0,100917109849642
0,0980952464417799
0,100233464514961
0,0959765809223984
0,101589478572263
0,0963606181041424
0,102852024620029
0,0985538032101742
0,100413934861528
0,0963341984733032
0,0991476415481298
0,0962526746010015
0,102247892528914
0,100723162597753
0,0996374823010634
0,0970659570387536
0,0972099829450232
0,0981192543865388
0,0956991333693991
0,0985594100890654
0,0973137948743299
0,0952557111697642
0,0995472892932936
0,0943820443619163
0,096676143600167
0,0955208502865774
0,0949576896413641
0,0951449961680395
0,0977535962855459
0,0925850014214636
0,0937066220286032
0,0915056922480082
0,0962227575746106
0,0931964156872249
0,0888102533802521
0,0930637268005711
0,0938036463894979
0,0922932889703985
0,0926507967593271
0,0911013265407633
0,0961104104807929
0,0916660438143894
0,089268766844105
0,0869584718511419
0,090709877135543
0,0873103211202063
0,0901788936030638
0,0883036251278074
0,0889816885384398
0,0879748240735388
0,0905087962436476
0,0855704379811606
0,0868503550202171
0,0857168228002249
0,0867670517740256
0,0856128519964343
0,08425556292311
0,0830647874809196
0,0848431505226972
0,0830116073606163
0,0844047454722367
0,0842996592128523
0,083408815223302
0,0831683929042207
0,0839972583335042
0,0821430891153216
0,0831365808033789
0,0813179993320559
0,083501363903894
0,0829108768557836
0,0841116740873899
0,0772924395538614
0,0805760724667179
0,0811244230910525
0,0832811030170318
0,0795845895813205
0,079287728158649
0,0816622641098596
0,0830519494336986
0,0804932147593517
0,0808502072242632
0,0787095142485515
0,0775791471061517
0,0750402423841812
0,0825367185389578
0,0786122694272434
0,0781004344133257
0,0770147472648745
0,0781419311615103
0,0772528541617911
0,0776108750529018
0,0744477079117674
0,0779071330444186
0,076298059614925
0,0776333117352815
0,0758316942266466
0,0793025679095969
0,0753725955680268
0,0752832058051004
0,0770565883820095
0,0755356207897983
0,0773092118265501
0,0765025850321541
0,0729109615832383
0,0747862557719507
0,0709876819102924
0,0734872540141697
0,0719995815297251
0,0761801550091424
0,0746153460711929
0,076036231826223
0,0720698574907263
0,0740232118865749
0,0699285659586569
0,0725009586001698
0,071487439768434
0,068766379458488
0,0727479484607841
0,0741050768697386
0,0710384467309079
0,0708929879008712
0,0730773846695473
0,0702505450966521
0,0696590632440574
0,0691123039627635
0,0719773956587737
0,069318701348123
0,06886474833559
0,0724426574914643
0,0713552436256425
0,0700684521867443
0,0706606174372104
0,0705200425097347
0,0708892539932524
0,0698549340209309
0,0707449461367562
0,0693329753469065
0,0704582807423018
0,0702667907220792
0,0734810021351
0,0690078584095903
0,0665886566207052
0,0704067017110743
0,0698444020549634
0,0694300899621808
0,0682026665157009
0,0670342401902954
0,0715190924281911
0,0667829957281628
0,0676263021154428
0,0650977915041338
0,0669484657447199
0,0662188011072769
0,0661304001672828
0,0670364604496846
0,0707752423280357
0,0704334912378502
0,0748234662378956
0,074468665958822
0,0700044843596893
0,0620327163073313
0,0761728086895673
0,0652171354029952
0,0719022869376849
0,0665588035528019
0,069124893823316
0,065443929038132
0,0705640849843644
0,0664554193659438
0,0729083559126151
0,0678461368722548
0,0726897923024329
0,0668056965203257
0,0733144146478888
0,0655582159860951
0,0704530518555512
0,0684074513175232
0,0738455966779227
0,0637741586863664
0,07466451253987
0,0625352709689954
0,0753601902737226
0,0602998313340861
0,0805232794150572
0,057245225158664
0,0773140624498726
0,0574651535651874
0,0789480106427342
0,0559945773970498
0,0773735637923207
0,0486687357636693
0,0820781276315395
0,0523540947050348
0,0869970930729961
0,0525508618642839
0,092130519495223
0,0487352402394806
0,0892612923023427
0,0426629419837203
0,0948650359350429
0,0494464084177556
0,0987750006425642
0,0452722867664204
0,0909217777110319
0,0459295992260064
0,0975543677252965
0,0500509106820448
0,0819739512523331
0,058046484562012
0,0777676221471939
0,0663907550549326
0,0629024977866119
0,0767413134571884
0,0584690492295541
0,0842500901921445
0,0517937565708864
0,0907994317173443
0,0496336075450963
0,0894780035447408
0,0515182755993105
0,0811765075913196
0,0599281934947112
0,077077568755983
0,060505402809827
0,0733562287666009
0,0686053135952605
0,0710471363974338
0,0668435846038483
0,0699556182351204
0,0646346963701244
0,0719388526264473
0,0636936891303892
0,0746102247143299
0,0625758651227883
0,0733797526053405
0,0645957385675256
0,0717141486082111
0,0641853336019613
0,0697072584487191
0,0643435634575197
0,0724266930554855
0,0692095935717657
0,0733703806364645
0,0675530988606684
0,0700825836272803
0,0647206745401146
0,0726033280537421
0,0680025824657717
0,0732511492829356
0,0658089251147969
0,0736106940750725
0,0658052795321508
0,0714104238772528
0,067290816548492
0,0736694283784057
0,0699278748763129
0,0720897375021677
0,0669306157501361
0,0729999028183652
0,066176846878604
0,0737942555103477
0,0703322922918158
0,0759616741784717
0,0700664849745172
0,0747145514395284
0,0710573698271877
0,0729799298618471
0,0727228895567613
0,0754226617274191
0,0718754210596798
0,0760468618021255
0,0693415253817204
0,0753725505407407
0,0675001740361446
0,0766573469409054
0,0693436749043113
0,0769934888919635
0,070497421202647
0,0734700649812493
0,0707604691884507
0,0765718353268072
0,0719024295478933
0,0794819272198321
0,07209504514018
0,0772444154731476
0,072950860134468
0,076021804067121
0,0720049112348405
0,075648560445251
0,0735826838565257
0,0775009042100837
0,0723610112290753
0,0750789438092951
0,0717009557617963
0,0765921911688486
0,0748638554898005
0,0781773627241224
0,0714664426700894
0,0770783735936965
0,0713884026400463
0,0779307747114748
0,0745591200900944
0,0778518301549231
0,0751970933618789
0,0788046435654747
0,0743248038050732
0,0773511341073736
0,0753622342636662
0,07921589797142
0,076396866089952
0,0786300821513806
0,0754556368039827
0,0813152133583415
0,0773054724580764
0,0806991042263661
0,0760533793931294
0,0788893345076794
0,0758490165844036
0,0816674356610874
0,0762565369822795
0,0782828065071485
0,0780464697616072
0,0822526909221562
0,0771455504263417
0,0826037178749776
0,0783409150009867
0,0830473025082062
0,0795758357072968
0,0794067596447946
0,0793540541972101
0,0843550627941833
0,0797554894819461
0,0840728550464965
0,076690492171104
0,0837932129416862
0,0812894277831829
0,0828684820207742
0,0816641129088821
0,0852311815710398
0,0816348781502461
0,0848318630376438
0,0809948069772843
0,0854055811940874
0,0802257892265662
0,0835977106712409
0,0792701020566143
0,0837113265523648
0,0818405916201707
0,0852334810151303
0,0799226518303305
0,0837016421531199
0,0817023172547251
0,0873812797802403
0,0842390841584165
0,0869934640623476
0,0817838632903594
0,0849835193527073
0,0821563431542753
0,0852276358836738
0,084841761502609
0,088526638282607
0,084935795186832
0,0865798733872175
0,0828937403947211
0,0846668332567912
0,0821499889854309
0,087406449231916
0,0852219209540359
0,088466120212067
0,0840087810060747
0,0843439732113309
0,0842183496246493
0,0864204328967327
0,0854592453962402
0,0881480843519065
0,0858565527205933
0,0871058191797917
0,0857495648319856
0,0910131455731618
0,0864702460734355
0,0915954917560682
0,0899279981495475
0,0897063879442009
0,0872755807990455
0,0889820082342001
0,085380322745944
0,0882579596559773
0,0880332792705492
0,0913080897021048
0,0873410480243496
0,0912483339956532
0,087219758435543
0,0891841796068023
0,0881377316792082
0,0900873705090185
0,0852897778001056
0,0898336738397941
0,0884520306214476
0,0884235719905453
0,0876281188961486
0,0896271534544196
0,0872152795882757
0,0919261509473476
0,088021306693236
0,0902794524593639
0,0857592461613791
0,0893858073969782
0,0861746498244759
0,0878300690399862
0,0867859017996929
0,0897006287502561
0,0849927067660932
0,087404211656085
0,0840491299029218
0,0886847063707963
0,0845344182182084
0,086668241366785
0,085827381998014
0,0894398726290887
0,0832017761181895
0,0877953763432593
0,0825295127693286
0,0879652823973807
0,0858448791236339
0,0881301281647791
0,0841055433898097
0,0857526765480599
0,0849263548672625
0,0862658149573242
0,0834077897121993
0,0867683228195586
0,084584921306509
0,0865963148250514
0,0844831402752524
0,0861217953619168
0,0850049937671348
0,0873247846719683
0,0830842809012188
0,0850168408220536
0,0828208453499459
0,0862743499251804
0,0869505373338641
0,0857742085084328
0,0811793724418145
0,0858071737217565
0,0810885769674863
0,0845329676115672
0,0835540985292603
0,0864164135822152
0,0821700582535266
0,0869065437140308
0,0834386843639892
0,084035747483678
0,0783325638149259
0,0842594936893953
0,0835984934030721
0,0850699298063899
0,0842085449722656
0,0837427641403876
0,081315700499982
0,0834864026889108
0,0817227196863359
0,0822284423130326
0,082116191398908
0,0830081675035831
0,0789954797608077
0,0843885251245658
0,0830483253119928
0,0838994516039973
0,0802984099724282
0,0824226098918318
0,0810495392660756
0,083655601970513
0,0784047137353047
0,0830565361215506
0,0796010325429075
0,0821349412236457
0,0810925490052822
0,0834537334412654
0,0808088560554992
0,0804132970550025
0,0789703285406447
0,0833006255506149
0,0789900502443054
0,080169101943475
0,080025601672221
0,0804607857323097
0,0801414629564257
0,0794289796344761
0,079124168104314
0,0824012147457667
0,0780428184256449
0,0791258596028288
0,076611814690784
0,0789643200531921
0,076854009851229
0,0820348291126238
0,0771090422417213
0,0772686595404047
0,0756103561394329
0,0778385691169468
0,0766208290917774
0,0780387088493207
0,0758216952729653
0,0769450428102773
0,0772092922703115
0,0774674151243564
0,073354322348539
0,0778528349275082
0,075963207410046
0,0749507301682133
0,074364305348159
0,0760051409915798
0,0742310309062003
0,0773001169476284
0,0743134718783259
0,0756095043321349
0,0744732875067577
0,0751374587421254
0,0716405114146225
0,0749512697987464
0,0719876162524416
0,0753824472704883
0,0707391789982021
0,0740095873978299
0,0722711425105646
0,0714389518868556
0,0711670911475962
0,0706481299970168
0,0693081906778597
0,0729010126362205
0,0686013216677377
0,0713304180457884
0,0662143418837384
0,07427276115061
0,0691186736619535
0,0716717345821197
0,0681535706744069
0,0697252715409605
0,0663330122433744
0,0694267695982058
0,0670160623016115
0,0708595838160351
0,0657976207434523
0,0677711191028325
0,064971960702876
0,0655984043070337
0,0633207669269868
0,0676464354972923
0,0632212717684009
0,0666499433150835
0,0644352620759508
0,0655029886431496
0,061624938877278
0,0662856174749013
0,0630131596148474
0,0673699941406104
0,0627533154657387
0,0669877965511476
0,0593215540804095
0,0673900463330022
0,064290865572804
0,0654144572306156
0,0630528042887024
0,0605532398505671
0,0621369782475349
0,0627649802795066
0,0608253969999699
0,0638159253976043
0,05919247049949
0,0613012225026304
0,0623723679238848
0,0619685240579482
0,0604716452584787
0,060864893939002
0,0608336367199063
0,0617923791176918
0,0591075908309118
0,0610556880390014
0,0606769606311016
0,0631368756046158
0,0592752521886413
0,0615366267009799
0,0615838178328727
0,0617492576778685
0,059788792238389
0,0593221060616352
0,0615063252756805
0,0599638767890033
0,0602192499170692
0,05888503296337
0,0576877129308906
0,0593072386510641
0,0549606950618967
0,0569956383660763
0,0558531138522147
0,058468425500915
0,0589033520386554
0,0586204692018963
0,0555419883527268
0,0565019399877107
0,0563210883255276
0,0571855624689415
0,0576175939562214
0,0568029817092304
0,0561766221206933
0,0548129805079857
0,0564204416251368
0,053021751279984
0,0569464631811303
0,0563903295555843
0,0573620900305447
0,0528140934823703
0,0541038555577162
0,0630134581906083
0,0536289550379957
0,0573197662566945
0,0549971877992004
0,0562832361164876
0,0512740787222431
0,0556986441216293
0,0505547262752745
0,0556446419584585
0,0519236537169193
0,0576869252109129
0,0531037267793827
0,0556224138520896
0,0514122319127347
0,0572995188759907
0,0520568686267226
0,0545604953636371
0,0528217640602786
0,0562163306013461
0,0510062433696004
0,0548348431077079
0,0580675349047647
0,0581057454570325
0,0548507245425533
0,0573215286973577
0,0427814911623174
0,0682365707926501
0,0484496370351915
0,0584637775254959
0,0494644569114637
0,0549117918405326
0,0523252719596878
0,0561650611914079
0,0470357834059962
0,0516117907327769
0,0532851110131182
0,0542281978722274
0,0561032268288687
0,0565229891770932
0,0540585223599208
0,0513633556462319
0,051562466627391
0,0551138663391798
0,0525143907560279
0,0535607432016879
0,0513167196658756
0,0557698094523634
0,0488803928873765
0,0555767938478353
0,0488832329243464
0,0551364080213906
0,0528161907688186
0,0553296243681028
0,0492057462077966
0,0537571695324649
0,0470455891953429
0,0516157488449445
0,0586295548276918
0,054032758614418
0,0536824904267408
0,0502083028370359
0,0555239266298952
0,0497155121097688
0,0545711752412052
0,0516894982672438
0,0530059193377065
0,0516700654670246
0,0537876418271499
0,0515979504435073
0,0526633994351665
0,0505247258453396
0,0535869397625973
0,0525392981445652
0,0512112116325675
0,0525347083763959
0,0503109035700822
0,0549474904227189
0,045410638665213
0,0588234772547595
0,0509449869686563
0,059950016195547
0,053737111487277
0,0555603429251973
0,0535444219793116
0,0547992116619443
0,0531004938392743
0,0527304365973963
0,0514580230673754
0,0513644657450831
0,0529063673305643
0,0515551518959827
0,0516010348913535
0,0512100488820014
0,0512299614785672
0,0509933007752794
0,0539089821995266
0,0520480420463857
0,0541308458983318
0,049228732272946
0,0560447203710985
0,0484979179758475
0,0566902412863846
0,0510114311602124
0,0614679720445756
0,0363653894001515
0,0707493455788352
0,0559883792758453
0,0562455866251469
0,0576976854499371
0,0532629413867777
0,0543999427158195
0,0508947885605154
0,0537926961542655
0,0553800976544684
0,0533211908593174
0,0538085600062504
0,054421802341041
0,0499741489718971
0,0547451346488505
0,0505791542699531
0,0545936640125276
0,0671498793880792
0,0541957465220022
0,0610537127891384
0,0501660905329318
0,0567997392589906
0,0684313262424491
0,0520245366019615
0,0620692795460834
0,0520145166600494
0,0607404574328607
0,0544154135047015
0,0585884031698993
0,0542242827935118
0,0591839554479274
0,055972077009614
0,0586338095852754
0,0594383298030921
0,0557295155602953
0,0574694660776956
0,0531704504076353
0,0582306419938019
0,0617866165035756
0,0548154585507549
0,0636795826041929
0,0577831958200285
0,0611238873082753
0,0548810901440552
0,0623496836696313
0,0549403567728734
0,0636721220107837
0,0624058766628495
0,0566984942881751
0,061720352531515
0,0669602815589164
0,0569579786024414
0,0630515036051658
0,0587741643759856
0,0740087774781347
0,0478709089887138
0,0655492690624313
0,0672596150563027
0,0674560452884135
0,0787872368701761
0,058022552711687
0,0686026170244655
0,0573670331463872
0,0689629400614387
0,0495395154600259
0,0800048428142717
0,0532305690923962
0,0742744057255356
0,0517907664949563
0,0732983731497358
0,0642701652261062
0,0704467018254545
0,06393446308086
0,0719466275106436
0,0597315140558439
0,0785208931556126
0,063014153508509
0,0629076175816057
0,0779686201469459
0,0671515779874946
0,088863403616353
0,0693631717456612
0,0641518027744996
0,0858770314795455
0,0685206926606946
0,079000306762569
0,0646904522739891
0,0815702377482515
0,0650127843124002
0,0684670916283993
0,0907548279422124
0,0730416259098327
0,0765610916604438
0,0766498162991033
0,0687450131703203
0,0902348565995434
0,0734503888307589
0,081757776186009
0,0741871630850043
0,086099749143963
0,0582351230381962
0,116785409470262
0,0739053602761249
0,0934765039093192
0,0865812696520634
0,0898319627868335
0,0905818355053481
0,0877017900767189
0,0840091328048891
0,0905187078738723
0,092520937544493
0,0959403741286079
0,0798539339018317
0,0993153723568409
0,104045800123967
0,0893256750314145
0,104514976912318
0,0905154157190805
0,0894676998803239
0,101351436495407
0,119446933992049
0,116195759467032
0,106534048225428
0,097761089662477
0,116785678515016
0,106158033655485
0,11330633693989
0,109540060615317
0,114220955010476
0,110818924863202
0,112601651665131
0,120416506313827
0,114215119514743
0,127032887550358
0,11762380519992
0,123310018206537
0,119037735372094
0,137902142462954
0,146828470624649
0,120337620639655
0,149937728073754
0,131989211744956
0,149712916571204
0,137646251332494
0,145536282963813
0,144197356898872
0,150610920918257
0,152219268567002
0,143892053352629
0,163218347384112
0,157142506647376
0,175183872852181
0,175166792525832
0,169835258569355
0,169311992384149
0,141622909223118
0,318934473031314
0,175506661887304
0,216209130432802
0,172620560715114
0,222977173449381
0,229772162754864
0,222397073283609
0,219861120828892
0,231255810772571
0,223886058830153
0,243603564098773
0,244831502008601
0,256818080157438
0,258894689721046
0,274421867243551
0,252905971239406
0,283151664301427
0,285254021623482
0,333447620728167
0,307992518447321
0,312907449138871
0,313819056789699
0,33720241037351
0,323126524236921
0,357597581413252
0,332335799924639
0,360276448169172
0,391247937792519
0,376215026596222
0,377422172310247
0,377170879393719
0,418257912217267
0,3784205682361
0,449612531782088
0,416185260979251
0,435547416022979
0,429771137291743
0,444904449220269
0,449659447880259
0,44330924860548
0,483548962140987
0,472900530117694
0,484641951337081
0,486974449842568
0,493865578305965
0,49130731761319
0,508460984879729
0,508550053447823
0,511172309567501
0,517598356106947
0,519096328672084
0,683253094918034
0,550547881035965
0,540024635313266
0,533421593383884
0,530681395323567
0,572240348188653
0,524531481502373
0,594233102819249
0,567579560175535
0,560517055757323
0,547557014001548
0,559605061241471
0,559687096675032
0,562343560273036
0,568223059786373
0,536890615466676
0,571026372991334
0,526984674135427
0,599271429561957
0,613084890177088
0,565659346899597
0,55159689661543
0,550020779065848
0,553225359494221
0,552592011574033
0,539868979319512
0,538100615428324
0,560801883037809
0,525222778482748
0,541289606455462
0,4997485881397
0,560613291977051
0,527262775711247
0,518838998914883
0,504650926067123
0,498403704688747
0,500722763525092
0,473143009519335
0,495096185369102
0,511119872382894
0,463231440108381
0,469132007614569
0,45168672205655
0,463639697807499
0,44586498080787
0,450546435635241
0,449110915456839
0,444365032727011
0,430644005922497
0,436085907190323
0,415852085925113
0,434652118862934
0,4113860898468
0,419718528378284
0,412049719156539
0,417265929375748
0,405780814757213
0,412903830725122
0,397213930186787
0,400444054408343
0,392469391404776
0,399945515011229
0,395265496564809
0,398106240384829
0,390128166710402
0,397200118926077
0,388329468911109
0,394188987987143
0,382293077085637
0,38936170956206
0,377341530757857
0,383168833280848
0,377139689306969
0,382662764011922
0,372964367913837
0,377972902032993
0,378624283446919
0,378959851046939
0,371517604718448
0,381593367521373
0,376462616942356
0,352677423483132
0,423500548562296
0,381344085270048
0,379868164403112
0,370081873052789
0,371005953472493
0,371574486973513
0,350689062196599
0,403507215865675
0,370617563307001
0,37005918902081
0,357488118273596
0,357077385895928
0,365103573415194
0,367712390423435
0,350267164247501
0,367338292228273
0,320483511361697
0,388347773938234
0,327081460591424
0,413417172142656
0,369168592374317
0,36598177825786
0,328952598208654
0,351212069734617
0,356444848797373
0,339021434979334
0,342384255582634
0,323788355554372
0,351090804771541
0,336677327716004
0,333588230841373
0,3338222961691
0,319453208499295
0,336978774164686
0,333398980671849
0,317889824934471
0,325268040124553
0,326222964546969
0,309377471863225
0,332804077247498
0,350591279026974
0,32708812148109
0,299859243264619
0,310142806498348
0,288082169739668
0,293233815802835
0,320600450296808
0,290953116860321
0,30502587525451
0,285009165667815
0,284099183234583
0,277077012533721
0,293362036280979
0,276273027771127
0,265078386300545
0,299609514937613
0,256477718186807
0,286391790509066
0,252224280493528
0,295422514540785
0,273153952353202
0,277428612174272
0,240928348502926
0,279935719622744
0,261521550320751
0,261997758850551
0,263625609668704
0,245601215966838
0,246543389814801
0,259191293348333
0,228900103947456
0,249256792883725
0,239766635736938
0,248214118963501
0,237600910569714
0,247451760488206
0,257301407865581
0,239819182585393
0,229957751641497
0,232186642114384
0,224342071805226
0,2415764931889
0,206321402197462
0,258240072587816
0,219303740131086
0,226699774195461
0,245094034168232
0,235650167131126
0,2350861025729
0,23497034505332
0,22844294320397
0,233197185639053
0,236319486279823
0,262319540299864
0,227880572815746
0,251052610790884
0,244222681754801
0,253508607783474
0,245816064693845
0,249560717515441
0,251249610106671
0,25151277267528
0,26674935607267
0,265510261499792
0,262368808479112
0,279895919260013
0,262620815784737
0,299692089408502
0,292792689658642
0,287025691624733
0,317509934058907
0,292684771789052
0,341212436188847
0,320738170781831
0,323348969292241
0,328857623043861
0,330408054261344
0,338837726577229
0,328882471727092
0,350441771706973
0,363235510090225
0,352299255291368
0,359808848090882
0,356287809074337
0,365171603269271
0,354254419962834
0,382335753755336
0,350813912023177
0,425351774054056
0,388150524492886
0,392266960163735
0,382409286745103
0,38166845718408
0,392483523209463
0,382240796126328
0,397975191759778
0,379241479677059
0,396467045714103
0,403509042314325
0,393191281440019
0,402038968071942
0,399331425549646
0,400219568945622
0,399407655119744
0,399987004505726
0,406076702240011
0,404873658366281
0,417905190003218
0,405774238533101
0,401468925293374
0,466022368876044
0,418898114921513
0,431442738715876
0,41697032090713
0,432550900278257
0,428278831539091
0,427542648809352
0,440116957312377
0,439982058276043
0,444474477251064
0,442340604037754
0,446678754804055
0,446668483977143
0,451443581670391
0,459848720299376
0,443956721513324
0,469357546788691
0,431969097753197
0,498268193099515
0,467857492312668
0,4826678806158
0,472446619366154
0,467467372217672
0,468563921891881
0,471449487143212
0,46967362251391
0,472612084052112
0,477088513385994
0,473680559376726
0,480576777690107
0,46963308294682
0,478379362987883
0,475047063619259
0,470040916836456
0,484943243172554
0,477507482530454
0,475345059620008
0,476560322912729
0,47796868139554
0,45855514322136
0,484391304126049
0,47436572413104
0,475759857846424
0,469604113219586
0,472570388333743
0,477386647612225
0,470648301545854
0,466840627894848
0,474303406679218
0,462231163037837
0,475269488584861
0,465367881580463
0,471169010385872
0,486189372657298
0,484093047136037
0,480117038054717
0,487159314818796
0,482000852668878
0,483623139841362
0,486560177578658
0,490367409023079
0,489963759034076
0,492045980325722
0,495463977292314
0,492202291568955
0,499879203649627
0,495197392801929
0,509624679289811
0,49716068841559
0,494283414915757
0,495848789315367
0,489973760704413
0,493005467973733
0,486406264193832
0,482813204684609
0,479991231231378
0,480139943591442
0,471061055180088
0,472153912170373
0,478271416463052
0,459038087852305
0,473228557244457
0,456336557955771
0,457261233114973
0,449606636573154
0,45370142798085
0,444048500920022
0,442020081341485
0,442056103206566
0,443670375814834
0,435405231785561
0,436692393981002
0,432148669148693
0,435283010860674
0,431274510249694
0,432436366141415
0,429816390088609
0,430987558774293
0,426879737882269
0,430657051124572
0,42682074490232
0,427568385151329
0,422912219380641
0,436488166279001
0,421159308003312
0,435337368603735
0,425506685827851
0,432149256498594
0,427249913514665
0,429647055865046
0,419767568741496
0,425791942955264
0,423803676907746
0,426262756957886
0,421842544621671
0,418927515018567
0,416807576239395
0,423262163446984
0,420440884276558
0,419348039821637
0,41561330983779
0,414826384000554
0,413483376654346
0,414122540090816
0,413458176130145
0,411273259719272
0,409241918603637
0,413244276503392
0,413592542718381
0,415074546105247
0,415872654409169
0,413452122317854
0,410825544199528
0,419627210253565
0,413200275692064
0,408868899309076
0,408885951361757
0,413200121548802
0,40781723228128
0,412299053336523
0,411451031520796
0,407879056436135
0,407069571055773
0,406402926232877
0,401262693149628
0,397970286341312
0,398807611076943
0,393160929399447
0,390925072958954
0,389041624511239
0,384104935990295
0,382290856826371
0,378679128672602
0,377781742427747
0,374326687411474
0,376298636802913
0,369053219423053
0,369648423685331
0,366473694623591
0,367775106810956
0,365467135303681
0,36189149232135
0,364860108921367
0,366081250951787
0,361515256758613
0,364147084016693
0,364956923240441
0,362432274328191
0,361698725296988
0,360884935667993
0,361447678428983
0,363319433338538
0,364188817992526
0,365157487616726
0,364736829964424
0,367683327786955
0,366751235925123
0,369210334645107
0,370955216498859
0,369669883736312
0,373555025342433
0,373326213515883
0,370212623677062
0,378796683534502
0,374875129133011
0,381286694787243
0,378335999481228
0,382867505739735
0,379908267728973
0,381663821952189
0,382967301984918
0,384245277355675
0,379193835512115
0,381724729545314
0,382637784845128
0,385705684461126
0,37889226950022
0,380839310390857
0,379576035458664
0,380422395412484
0,374720749491559
0,375129346485724
0,374525528352444
0,373496538236777
0,368761569047014
0,369364546793377
0,370400261692377
0,366218356312127
0,362842372003921
0,365961431417854
0,363935161646153
0,361012958044502
0,360855595568889
0,359403396188202
0,356646738849108
0,354163708477361
0,355725323703697
0,35337555313649
0,351769738950533
0,351250043369581
0,348301362121777
0,348120867373375
0,34948966731566
0,346306522799973
0,343586396680671
0,340483899803943
0,341266417606358
0,340235984637363
0,340061152418994
0,340520805996401
0,336184732312898
0,334908553224725
0,333581568712086
0,331603890451407
0,330304369824336
0,328135663312192
0,322105356223155
0,321407867602459
0,318365437831981
0,316984015780305
0,310601503278484
0,313583021349309
0,309710496061825
0,309370458631367
0,307411731979828
0,305916976171822
0,303997869916853
0,30475394970917
0,302066363376118
0,301089517074895
0,301021763929613
0,299515964129396
0,299629443524412
0,299667387102895
0,295518743617711
0,295275244309324
0,293266538776667
0,289647391927845
0,291309962795702
0,284092533157826
0,283173582978685
0,280337186358097
0,274108191211631
0,274352043426694
0,266728907009762
0,26619260289678
0,266548690499913
0,261825223201304
0,261668631280497
0,262042138896476
0,262998070242081
0,264311580248196
0,268307867617677
0,273164454910229
0,278386262520441
0,284125025709755
0,290602332342985
0,30020758178741
0,309266864429772
0,320580993607253
0,332143264025937
0,343138869708812
0,354447090897406
0,370727799135507
0,384032227476779
0,39881191767628
0,41147094876309
0,425511218193127
0,438618459014563
0,451698099677793
0,467729611085594
0,48167349451089
0,49471855789509
0,507225423680676
0,521965404718455
0,533434408030436
0,549044797483048
0,559005705368239
0,567532681081556
0,58044768367473
0,587390766068459
0,599533618281348
0,603552283615297
0,608587670653864
0,616113087301287
0,622989916022275
0,62080930423332
0,627185069693713
0,627300337219444
0,622606039013876
0,624782891870102
0,623252806972412
0,620408948078727
0,623452650546164
0,618501219601644
0,618677126314779
0,621533378001831
0,619575467530921
0,612784690784076
0,616095297753414
0,617751723964344
0,624114211239763
0,623728885612808
0,626906854343828
0,630415987301862
0,637922069208947
0,637178229082787
0,64719980047162
0,651354650086239
0,661095422757178
0,667802619630818
0,679493092984632
0,682731115985309
0,691695382264707
0,707811754095477
0,719688305792569
0,72950479706776
0,735410826463573
0,744138396317137
0,765396470925748
0,76258139100133
0,773329594891051
0,774173962616184
0,777125900084449
0,785061331460945
0,786251621556627
0,786956478692307
0,78037996224371
0,777874919608196
0,770521714023201
0,763301644291358
0,769222884076712
0,76204928279153
0,765961058416748
0,755626623102544
0,762019795270703
0,768690788480585
0,777591628306459
0,786946420372031
0,797408878877236
0,803345443948105
0,823036717492507
0,829951232156257
0,841393215967005
0,846164984315913
0,868396741790553
0,877774880793517
0,882058742488086
0,899636535059065
0,911914801912069
0,914966296631045
0,923664011756415
0,94908688124515
0,965734429496198
0,979940989984301
0,972810601747627
0,995492553430022
1,02753635905136
1,04930852542371
1,06771116908844
1,09222581202605
1,10443894810744
1,13510290724505
1,13369558978604
1,1558971598247
1,18343862713036
1,19144022763252
1,22585126164339
1,22198976426525
1,22666450811583
1,25318012675536
1,26441876055881
1,26144219368634
1,26640769938729
1,25903840025902
1,27254999469633
1,28013902471047
1,27588884960213
1,24959934212741
1,25364504587494
1,24520341457886
1,22646821948705
1,23288647287655
1,2318838556943
1,20950008199056
1,22287991371172
1,23976979475146
1,22112725053082
1,23059903853352
1,23938439245766
1,24016663427068
1,23685835405464
1,26082811085244
1,26342210690267
1,28188144361312
1,30577630936386
1,32823676359196
1,31580078189044
1,33386418795562
1,35084279211138
1,35947612002738
1,37992183625961
1,3795335498206
1,36945902386772
1,43312618618822
1,43248410088911
1,41905850525016
1,38726613189603
1,39925482677426
1,4224287954519
1,4681230828362
1,43638901181842
1,460702057413
1,48065331581622
1,4566313294551
1,51598051329722
1,51948524116136
1,49760729275235
1,51715258012054
1,49589213072926
1,47740410963912
1,45948862746039
1,51508375579022
1,49335619780502
1,47795129042771
1,48581678987155
1,49913256466174
1,48429385363296
1,49211504324166
1,48385433305907
1,49307944676813
1,41822772117065
1,43200820314343
1,37312090569143
1,34252451335763
1,31740192468318
1,25976677106385
1,2115782580107
1,1942112046075
1,13416942794238
1,10417713242852
1,07475539803518
1,03578978440027
0,989953491907776
0,967194914711058
0,948839880635771
0,937973701208452
0,922086410935274
0,914943332159131
0,915466253811352
0,906781265060756
0,887071723380267
0,894207127380858
0,883146816181615
0,868229893159309
0,865598296397299
0,861588948293268
0,842608443618492
0,832073492396034
0,808045740232196
0,796943888604323
0,788137470716803
0,766651505895304
0,736863918488844
0,727279588056834
0,698209236751317
0,675275058561309
0,656393090164094
0,630558452476981
0,613943125529088
0,593179250075821
0,562447962125723
0,546167429858922
0,521150874747971
0,496708028696024
0,482867092088833
0,462506692987669
0,442539164971908
0,42550406626443
0,407787177060144
0,397019317433807
0,387795892926493
0,376821746488443
0,3669485860838
0,358274488532625
0,351670906307202
0,344951986010549
0,338844622723669
0,333463511220543
0,329523109922824
0,32899374578566
0,326678611576302
0,322427336557044
0,318281698662785
0,319857489359769
0,319746607942802
0,318610317233452
0,318342146539808
0,323732911580556
0,315469680339999
0,323812266270973
0,324238998039105
0,335329683612117
0,328435205437257
0,33249188678242
0,335298323044334
0,334262525128636
0,331093835256691
0,330409919592857
0,329487719608726
0,336405079203929
0,326849901096236
0,329383310103822
0,327287894924357
0,325126877580841
0,322751820958509
0,3222173793926
0,321261867105073
0,319485576287695
0,322001677740217
0,323913066617186
0,321571405937039
0,324561016824832
0,326741030457841
0,331530136028612
0,327127098196733
0,338987433382906
0,33495006374981
0,33352749048768
0,343796326070544
0,342955966282664
0,346220329695163
0,342762808322492
0,350353452151597
0,347199827151348
0,354834138203322
0,357147557831868
0,356740702078257
0,354280037284904
0,352764721992054
0,357018133304511
0,356686932719399
0,358715246716741
0,359519001739128
0,356175214460888
0,36321350472476
0,365013605936555
0,369249918992123
0,381033091287864
0,374014763362816
0,378472073516659
0,387869675732823
0,394275410854174
0,397807178432536
0,411517574848077
0,420665865404013
0,421349446763268
0,432201883867083
0,453654441230045
0,453898049182401
0,467238507249458
0,467167141059808
0,47373305163334
0,477240825135775
0,476919298413399
0,472620967826062
0,468180271407099
0,462317293340353
0,457032226892939
0,461399047336557
0,451735729374925
0,444736279074525
0,446450545352287
0,436347060727192
0,444638904652197
0,435791124492207
0,442272128897941
0,447678059007322
0,453494422426956
0,444590888937119
0,448253675335134
0,446030297476738
0,444866329635305
0,444637986245795
0,449991234996071
0,447610272589761
0,440526382873099
0,44746767758566
0,436395876387946
0,430779876694323
0,443418840527293
0,435057094116747
0,422024701310519
0,435377554464496
0,437724843923505
0,430236482621817
0,426696953221185
0,421070575484313
0,431724387680363
0,431561925425199
0,435498825703624
0,43848671599543
0,438709663732082
0,432531798926672
0,436884013387792
0,435295963250333
0,42631050332228
0,438116960933867
0,43290196852095
0,423603881560507
0,43512280254639
0,437534971086324
0,442563150161805
0,437056570019947
0,453328948610672
0,435871161836948
0,447399283786447
0,425958199778051
0,440947618202881
0,428383852153692
0,428888754935906
0,425333300326852
0,44338079865233
0,437195632967216
0,439562536399649
0,443097635502336
0,450920350097603
0,453762226372743
0,431048630267161
0,436045227774183
0,445017935495239
0,444746970213536
0,441731032966429
0,445614923098974
0,449928350631274
0,447575478517786
0,453257845319215
0,449961479648729
0,467436275898238
0,459347361269842
0,458851293737488
0,479021119099332
0,474310445676544
0,457798303073214
0,475657662888793
0,463438454942503
0,4722335242536
0,464065345965384
0,481701553745486
0,48325227301161
0,49694815386845
0,457916795216885
0,490167367550912
0,505303995726133
0,515967648764636
0,500869214922525
0,51363786764083
0,523758322889639
0,517911274421295
0,522739896359556
0,518836622607801
0,518911705255768
0,524413100204927
0,534817345570145
0,574571451302272
0,522267571716419
0,588684055536381
0,594646139768136
0,607167373827998
0,578294734473816
0,634902464457095
0,614776841242038
0,641140788400154
0,650631659584638
0,642085754598827
0,653352134189374
0,694770011593291
0,694949818652926
0,682663080260285
0,682120964702296
0,708862444457537
0,682837825469268
0,683113054078247
0,679175162901657
0,709881756778768
0,696449281758915
0,687391260411978
0,681971761667126
0,716097422794881
0,675005816059412
0,731263480721187
0,704463325079674
0,722334931636174
0,658816109464472
0,691852875174768
0,666599082410578
0,697818084063001
0,678419375322577
0,713452850086401
0,714403718544736
0,701407292187463
0,656398964121986
0,707160186644491
0,668673906772694
0,668934332775669
0,711850722223157
0,725585501163452
0,669170295209917
0,669140452339345
0,675601286493214
0,718813884409751
0,66377883572427
0,72536263828467
0,681536235286056
0,711325456519463
0,694001362593126
0,687055414705421
0,687028335608206
0,713476957564454
0,62623657716273
0,724506817912817
0,682073287792968
0,719052411546209
0,698806577249173
0,733782390838408
0,665811635617328
0,670423366132079
0,651250010623293
0,685943891215046
0,661223253498393
0,709437012188193
0,742815004746122
0,745513640946601
0,701756068748491
0,739682212725913
0,699564090736741
0,779005056275512
0,708888171709684
0,776068704834135
0,750313621794987
0,739293667185741
0,684081478134998
0,807970088372634
0,763881382265575
0,836757844258965
0,753923669296408
0,747464192033288
0,751177093928281
0,82914797905844
0,714862903197472
0,774080291763613
0,767195200570278
0,843607816283638
0,738888361678498
0,765569230539068
0,668304080579777
0,766955462652267
0,773931144688153
1,00709134773717
0,846837261789369
0,993505718795469
0,769944837704646
0,931483614742533
0,829565393407156
0,952444583312221
0,90947602915958
1,05994606510377
0,844284967184859
0,818630530457303
0,873621212216302
0,872629426006749
0,823880647740634
1,00075851786955
0,860979950778738
0,933326231211144
0,986098580715608
0,91525133885044
0,885222050934385
1,02734286669365
0,714916813297745
0,896703186218263
0,820407781696614
0,742082262121456
0,714613536809481
1,10221711213014
0,852720931983876
0,9357115778935
0,763313625751307
0,942969551355475
0,901199203630703
1,04939218383894
0,701608621673464
1,03344464078605
0,887687981285655
0,728131986594198
0,739190007975459
1,27088382905574
0,914757273638255
1,41225154656957
0,703246851625563
1,12874541438646
0,732460451242458
1,30568315512562
0,69359834963011
1,03699671106248
5
5
0,592276914628346
1,07871702636515
0,622495698491562
1,7891125889887
0,943078440972708
0,860283586374343
0,788209546728323
1,88064627179639
0,476575944162202
1,70584786058696
0,606781464125377
1,78137709747879
0,747157140082853
1,50140864433252
5
0,412766870048783
0,522475069682346
1,36673779415245
