3596
4000,36533379555
650,420452594757
1
2
2
0,0323989124019947
0,0160672485062713
0,0313990810370272
0,0229832848685007
0,0331035128484058
0,017507474314062
0,0357876760146433
0,0280866200595747
0,036235513461642
0,0229343872170036
0,0340064208278956
0,0171691868893212
0,0360932476593297
0,0174751938647105
0,0377747893128894
0,0172914080309292
0,0301665697735545
0,0127728870905646
0,0318267740665078
0,0169175135759803
0,0384910820394254
0,0162190554014919
0,0327238172165774
0,0144178648302225
0,031681505426479
0,0223478954950524
0,0247045814752945
0,0156431971499206
0,0351247366556686
0,0204340018058613
0,0349700583339872
0,0230695221502763
0,0343607196533514
0,0185888357014001
0,0352857907295011
0,0154593963623665
0,0285562040176411
0,0204364771389522
0,0347327950605214
0,0142117699363284
0,0346621951584484
0,0191039993459452
0,0386394503459989
0,019332570857768
0,0353435202553566
0,0251906652089268
0,0393630056521351
0,0258882119861424
0,0355706914504163
0,0241422322023947
0,0350095676960392
0,0177736845724819
0,0368867434894858
0,0197588388267978
0,0355364472083001
0,0245360246868677
0,0289589012909108
0,0157458408614558
0,038236869936071
0,0159403342053494
0,0431173920970643
0,0323118045452751
0,0319791754359742
0,0157033371959862
0,0324071692998395
0,0198016277973075
0,0284816215991361
0,0122993849622769
0,0293624397238463
0,0286009282152338
0,0312137333743648
0,01938968772797
0,034477876807838
0,0118419236644109
0,0414075720805303
0,0196796104687779
0,0393569909271962
0,0140832786814691
0,0301796801052256
0,010102357444869
0,0286793191283648
0,0228309970186212
0,031360422743448
0,016636675012117
0,0341473347991562
0,0271007916032567
0,0262533840777309
0,00923623568444322
0,034082174322403
0,0245872200392615
0,0300342316232568
0,021532080512161
0,0371201507496634
0,0170624247197094
0,0333094136242233
0,0201951720617409
0,027755181399418
0,0166529704287861
0,0324152879403511
0,0215345057441084
0,0285831176997653
0,00597462917338981
0,0672951257781267
0,0197108876048657
0,0578292227079625
0,0189725547169619
0,0236333511315156
0,0312584722747486
0,035101164448734
0,0231842759672911
0,0293072108100876
0,0111396583477438
0,0281838642506789
0,0234278026875666
0,0225952086492992
0,0132257418578126
0,0457948466684699
0,0231418935054024
0,038222804949713
0,0218892985650543
0,0148878832470711
0,0170462703669393
0,0554400873276594
0,0171186379449179
0,0355075927671335
0,0232038033414488
0,0161234108622029
0,0195249118294963
0,0488267338817906
0,0225974307702305
0,0379170396311506
0,020140947764961
0,0266943835773156
0,000354552004310333
0,0469209895961531
0,0265968884721822
0,0348240434521798
0,00669828776518284
0,0237957629103667
0,0489569628591515
0,0495345202793416
0,0247578283861508
0,0207129766398578
-0,000799350612097045
0,0473097332557996
0,0218113614754674
0,0146434066529294
0,029898165921292
0,0429150025262892
0,00911045145645952
0,0259031743565243
0,0128837251606819
0,0376232100153527
0,0160411533228898
-0,00637746277889486
-0,000683273373610798
0,0623190047281593
0,00153630447910902
0,0800879267343892
0,0214526843260703
0,0425129895855485
0,0132186277738712
0,0361842212034773
0,0150485662302892
0,0307008474727868
0,00642670341571311
0,0234740980933573
0,0358282399209838
0,0251857124852955
-0,000322070302584465
0,0462408009841342
0,0263875753331607
0,00680836365068813
0,0526577392432593
0,0481405638770113
0,00195527897607671
0,0509597683134405
0,0317144069623373
0,0239982626596228
0,0160743637662547
0,0513537075845252
0,0250624864257953
0,0291053233312445
0,00936925580869522
0,0308039662589883
0,023259672902037
0,0309716267186134
0,0112824155188505
0,0342681255115874
0,00105565501613417
0,0316262781260241
0,0279876305489438
0,0536728567457226
0,0185810293463223
0,0406677053279349
-0,0110243533245039
0,0458108659873325
0,0293764730710539
0,0394624455272206
0,0175536586087627
0,025919124324522
0,0166331550862331
0,0229327762958098
0,0178415738383093
0,026353753348204
-0,0143315686215896
0,0479449211151869
0,0304160947204184
0,0342716265773143
0,00882966532715301
0,0263293154988776
-0,00748485267946998
0,0639329090531074
0,0384584491414507
0,0306817386280124
0,0203651362718493
0,0239060611339739
0,023472048604925
0,042727206506555
0,0217308494884695
0,0367283904359881
0,0122522516840252
0,027760241572291
0,0120496629634123
0,0244352824433842
0,0187229654193068
0,0276254053545438
0,017277090727081
0,0312770172595024
0,013527019961622
0,0355830324519813
0,0275517166758972
0,0318096805934365
0,0195736093299823
0,0232521293863301
0,013386669177285
0,0446837862446731
0,0206099059688184
0,0385008778750358
0,0182487833731187
0,0279892448719749
0,0154963904424732
0,0331427169824133
0,015160049105073
0,026686084203129
-0,00170526538152479
0,0576057157386887
0,0248715235253167
0,0352081378928276
0,00443892374655084
0,0395335092990175
0,0311472396385837
0,0307147101672123
0,0149008919020282
0,0331636679652274
0,0144654243116009
0,0278492012931368
0,041057542950536
0,0383809623505409
0,0103146398749448
0,0342146365796655
0,0229537844840106
0,033367512123952
0,0122829139424577
0,00335821490479784
0,0438654798591525
0,0357657277081444
-0,0116446108953819
0,0682513284883559
0,0375084014004754
0,0422354508199373
0,0100690224892229
-0,00508072108172433
0,0450897750892896
0,0734771245006117
0,0292967797017725
0,0354586583801015
0,0283971149091225
0,0320843993862802
0,0164955681458557
0,0304653920294674
0,0102899051305066
0,0367527963670817
0,0371159881601511
0,0773642041210098
-0,000627439037422549
0,0461840159538329
0,0412949293119133
0,0326529039580217
0,0230978980769361
0,0357408348406397
0,0145688216454346
0,0386905846117227
0,0251889683232346
0,0435763003966094
0,0253343623495196
0,0319411052701185
0,0329403312558789
0,0345482065103284
0,0209554152698907
0,0376644487342277
0,0322116439771566
0,0348344891299261
0,0246152137002381
0,0358070562611868
0,0325955682400777
0,0320084932446231
-0,00762323872320023
0,0634719789418416
0,0288166661929254
0,0320715405809376
0,0442780668986348
0,0385266708373575
0,0175818346145939
0,0347343698317381
0,0256493412581685
0,0336813888085601
0,0182929155722944
0,0219588149858533
0,0359636730040914
0,0473296254009156
0,0233786029368647
0,0344766487038064
0,0247031592487641
0,0348269760431893
0,031199441836196
0,0392636316992177
0,0301826403236317
0,0388899777534887
0,0176461447013435
0,0500779506093041
0,0463207137755848
0,020595809955534
0,0331277634343379
0,0623629269504346
0,0326411298222189
0,0371745963892915
0,0265158040772483
0,045547779890091
0,0314379979668202
0,0403713245469999
0,0302674784121016
0,0387341420787623
0,0366610061305331
0,0545722527460799
0,0201227077652933
0,0402315624115134
0,0312233105310408
0,0895541852932965
0,0451529497341087
0,0560053823236765
0,0161335930257362
0,0656662151702008
0,0492331298216267
0,0580926412227504
0,0579327470169339
0,0567921240763867
0,0493276423145185
0,0529297643402436
0,0501238619241617
0,0552689252246818
0,0475744096750143
0,0589925401283944
0,0528473521999058
0,0615486330801274
0,0592286513860274
0,0505882116213693
0,03888840176671
0,084125837595422
0,0611980501121422
0,0677159889578662
0,0608047201006803
0,0547730555689547
0,0654006262181793
0,0727209073883384
0,0723173713471741
0,0848620387153075
0,0677119927947679
0,105600179138294
0,0726708425469879
0,0824379956773328
0,0644419993465224
0,0799695224349914
0,0770440456129058
0,0878155378819417
0,0693822940804166
0,0877981569166467
0,0698840627030293
0,0894900816302311
0,0728686935819089
0,0936689095602172
0,0747258771934743
0,11718301255591
0,0911651567825243
0,107653923084666
0,0816224307702177
0,106207211213988
0,0953050832057465
0,155029646628608
0,106009188411356
0,118519077687663
0,105811536701914
0,106397246682627
0,0997408433202003
0,120875728712279
0,109195340693604
0,116276266024343
0,131971584806364
0,138736061982973
0,118952110007012
0,138054830641556
0,117241048592484
0,143523747374773
0,126529648310924
0,134546078907379
0,128036485577375
0,15976315564543
0,114714447608839
0,159521155147947
0,143182189745902
0,150264002298944
0,150726169354816
0,162632530736116
0,145844324173921
0,164152427797141
0,153262029272067
0,172561023125305
0,15566498898123
0,172474172177586
0,161257547334496
0,176919039844705
0,167294995699349
0,177241098892541
0,17528036239968
0,183384995788936
0,164697494668607
0,196821173509495
0,172899589424422
0,198805260269999
0,17595027411078
0,221104035919694
0,192834747759384
0,212749816154273
0,219414550470167
0,219745611383505
0,203112426767293
0,222954702076003
0,19887231798851
0,216203052443364
0,206373930408327
0,224041918594498
0,214979849407345
0,241950118298199
0,212726382209013
0,241256531853391
0,217675496392078
0,244195794165011
0,228021853336815
0,249534513901673
0,228971211103513
0,264654855945564
0,226409391580456
0,269074490945952
0,260368090303416
0,293036615269756
0,279286566627763
0,288754089270139
0,252610379892963
0,283700337481939
0,260193819441294
0,284386829772688
0,286951875254119
0,308822824962276
0,286057680394112
0,301242243245702
0,29081838537492
0,305703117930354
0,288782473251979
0,317960258598362
0,282121222799032
0,330360823961597
0,29503239666219
0,339173247048932
0,303412287648793
0,341288263928788
0,31930810219755
0,346712697126505
0,327070825341378
0,350825194495307
0,325740021441458
0,359508204903747
0,32872734638123
0,376683210177633
0,338727269389276
0,374763892127028
0,354670715700648
0,370570808850635
0,341510585687719
0,384300200430429
0,363934500009788
0,397750517747903
0,366429402378123
0,39867831858787
0,385672842218747
0,410601543907264
0,382254768567978
0,424292784743361
0,386852640162151
0,425112086765799
0,403233417608762
0,415898294316834
0,386712406832399
0,438583610105448
0,409511060560022
0,441536147038532
0,417761540550835
0,435642176924756
0,419765810079811
0,47319274854397
0,415635086345949
0,454784296134874
0,449119485929345
0,46376481963158
0,447933664510673
0,486891739905255
0,440654323358789
0,517287872278724
0,441875705087512
0,475020161193067
0,455538027987087
0,499017324094548
0,469034593592806
0,517183816823492
0,45446873053105
0,52164973154835
0,517435333990044
0,521398759126519
0,483480721335029
0,539907117464537
0,514792538368198
0,557469604045665
0,501381344109395
0,538431545969872
0,50688566575283
0,569651176504763
0,513201373574561
0,560188960487753
0,532118841806708
0,564546888032824
0,56060990259609
0,566389687629584
0,52328788841158
0,61708110130987
0,534321186277256
0,582477710048165
0,560649330575402
0,603028555698712
0,564169618582585
0,596775435332603
0,576071421124913
0,607439615644958
0,566701265448806
0,619829411248126
0,577714184045316
0,626056657112735
0,587585769048078
0,629759095951514
0,573546226969858
0,619976672584518
0,585949443671547
0,622802660366474
0,611433592594006
0,669126084295678
0,626202014022573
0,67272414648983
0,617833374083275
0,651544854824595
0,60312902308283
0,68865236611762
0,635475562939081
0,713592139522518
0,646963927420105
0,721667962617045
0,640063780667732
0,72997085290681
0,64986004524711
0,679484092081561
0,662135853902694
0,697194223492082
0,66659751641027
0,708768606653946
0,667840318901298
0,74676666543747
0,653186633020278
0,719379026092083
0,694202317114647
0,754850553449231
0,69499812483345
0,743091909117774
0,675755964022355
0,742139155863514
0,694757900514511
0,710071915937886
0,701102689419705
0,768675858355488
0,681600717323063
0,793855101912667
0,730893097276228
0,75984406710137
0,688694045717914
0,754550729337094
0,745125999437931
0,806165171154381
0,749088714920104
0,778914655296602
0,761709214122821
0,827765428987674
0,762760404314045
0,81325571294986
0,762049908851853
0,815971211531387
0,75867848734238
0,832627078781941
0,768311940234796
0,828753136468313
0,740363598095366
0,832252241736161
0,740532098248237
0,810906943570395
0,793611201823863
0,837242712385067
0,761452764640214
0,813883398861597
0,814418671637641
0,857666417087594
0,801254502581342
0,850571301713326
0,790870822593488
0,847659537763122
0,81380781146372
0,818553905163427
0,780088637785164
0,83276016038819
0,827274587407304
0,901842386673882
0,81862598964979
0,8808032863969
0,823087707435553
0,853324643779843
0,788733147708242
0,893528083257016
0,793886087758097
0,87155357765887
0,840959896557793
0,918803097819012
0,805169986177286
0,889811761483467
0,840788841445596
0,898817781760451
0,804833243021791
0,904945129848053
0,849894042552919
0,912687756631475
0,843035932115326
0,944057449168029
0,882371874983517
0,917650307203143
0,868667365794375
0,980551952746819
0,879338836870599
0,955589684063509
0,837577593859271
0,932976043134703
0,870999507442876
0,886562654481096
0,861972940906446
0,901075932768264
0,886128556602302
0,948891013770679
0,90756798616145
0,92027896989006
0,872972394857225
0,97959542702523
0,873024419887235
0,950110705409725
0,912103321561378
0,922838945616637
0,896568026047376
0,930722560444431
0,84175567794505
0,953045545339634
0,88993344534551
0,958775905887196
0,890166249419623
0,92386983765416
0,869253879298757
0,939587552998117
0,887270941654342
0,965391745282612
0,908869217910472
0,93746519661122
0,869311946575599
0,961954686509997
0,886831285575412
0,95832782587935
0,905870588621528
0,962459815219985
0,903298206579429
0,967646260722055
0,888681745067504
0,986826523115672
0,886714545977192
0,907147340051596
0,882377724595337
0,932604376906754
0,901851573984163
0,951526402780712
0,879924066312286
0,947687490257774
0,891463284042237
0,962542435279477
0,89786151538586
0,982743066489781
0,903754450808913
0,919342392233852
0,893998074298613
0,929270362942772
0,902353733899671
0,948425554428466
0,898539975657075
0,954827325459792
0,908520940343497
0,943811508838872
0,948260723781069
0,994270271655038
0,877580974914698
0,95436042902737
0,876788402981728
0,941233243077466
0,886114920944486
0,941572183791274
0,876795993305329
0,93775770850723
0,870915369109301
0,940862399697219
0,878908178442987
0,942238902514146
0,915306593204744
0,936790400492559
0,943823041135578
0,943697084214436
0,893915903809888
0,97098497530539
0,897258449723734
0,963859144849725
0,860825314885795
0,938873492043401
0,9043027559993
0,945044532463678
0,901905680177306
0,93215804469036
0,907734833556253
0,92636959168377
0,878348219714188
0,927856976981685
0,881392355715648
0,937253746091187
0,877838752295033
0,90776660410402
0,878266884991062
0,92519918031207
0,901357940059742
0,961684516015838
0,882159960676272
0,933085497643939
0,862773998498313
0,943589538078582
0,859144515377406
0,922579928785057
0,846972737567015
0,907355647773609
0,843570690256923
0,886385462128406
0,868783440839491
0,92025182162564
0,875477451462091
0,917698287268546
0,853234575441075
0,899814289610179
0,852994419761155
0,90803087230168
0,847289106645388
0,899034234471397
0,86195459288647
0,875619666589203
0,846465057609664
0,882077053226038
0,826293378497663
0,902008644135064
0,837165125087463
0,917056144211168
0,833667737239825
0,864832523419906
0,842409330405283
0,86129238855695
0,81470380114269
0,876701152512737
0,81650265426961
0,873069137442486
0,826721271712651
0,861098778986582
0,82099872389556
0,880610637209366
0,808649691612413
0,850543698728291
0,786128769075505
0,84348437821903
0,821632105638712
0,840312397081323
0,783837185380312
0,825622146585378
0,821684761408294
0,857068751098342
0,799818734860513
0,799209984732628
0,789032913376167
0,80296284246213
0,789544368312887
0,791012954669412
0,773746018881256
0,827316388944158
0,770060583528917
0,807847137120155
0,774815443140945
0,806508656464551
0,757635063597982
0,798911262353079
0,754433517371026
0,78258841097908
0,736846195587747
0,775946114967884
0,772775441883224
0,788121963063098
0,736875741900153
0,773608737506778
0,733318234469648
0,755522233063641
0,736014072368755
0,76686171491113
0,714775920392082
0,761391444877096
0,731798639330578
0,76596565033045
0,735674353989946
0,733416644547785
0,710519147465053
0,757566497511543
0,730368016424314
0,736837990998169
0,68962144765912
0,729359215000023
0,680542257154552
0,71769327365322
0,690698258641403
0,709264407145859
0,664878112580185
0,696590045479264
0,701166700317689
0,696543399027834
0,673923161875557
0,706910460832103
0,650752429817825
0,671998828467919
0,661728239209642
0,692316232013703
0,652472371289733
0,663516921515555
0,644926203037442
0,663164608329893
0,639565005211581
0,666821305323616
0,649767165299809
0,652879339924175
0,63854013780633
0,636109553964752
0,621648292746653
0,643728712408466
0,622566192047637
0,624413127082451
0,607768138457654
0,632698623658777
0,606325874827745
0,616767524381244
0,600809797948069
0,62632748421603
0,592837292641547
0,610398996586385
0,58348250519534
0,608730638868444
0,580527770610402
0,591737493639803
0,573993489922759
0,595676719542848
0,572757717138133
0,586338740294189
0,565335575814753
0,57730768975496
0,559811321552209
0,576354055787006
0,559438063919491
0,568291064585449
0,538367048635802
0,562203810956667
0,547297745339932
0,557809730197719
0,534450014051183
0,559160555628984
0,531581062493671
0,550322320751321
0,520117004424793
0,535909135127125
0,514570237858355
0,526309084617051
0,514029313889642
0,516007032978898
0,50558706959628
0,516258739358123
0,500478906832998
0,504660841461883
0,501404500124612
0,516322061850955
0,482291820471087
0,500982428369431
0,482591349299739
0,50215130857414
0,479855786271764
0,49381128068377
0,467931054581909
0,475249195194369
0,465913235038029
0,481840222941335
0,457729189535603
0,476491292702799
0,451570065524049
0,476816134359961
0,452404584249312
0,459887461350382
0,442647235427037
0,457139895060723
0,443940103838305
0,449219348482122
0,428101742611103
0,437537771486715
0,429895467788095
0,43491918463992
0,422250378811673
0,43624124105638
0,421843664429578
0,434378356314495
0,417015993428505
0,433440796813871
0,409611805950005
0,430839043518321
0,406871050589303
0,416668668638287
0,398420605502655
0,416746302077276
0,389664767662866
0,404346358061535
0,390296354356958
0,405718392791247
0,391152858261358
0,404100394001493
0,385358835719502
0,395693769285051
0,381564349370127
0,386872106927081
0,378470003985676
0,381391633246275
0,366603791661839
0,378075970988034
0,3648722566837
0,375545372609589
0,362889134318221
0,368290129256185
0,357032956427834
0,364434989130616
0,357271246985614
0,361329150063791
0,35123721398497
0,358966843731941
0,348677873096156
0,353299906533443
0,338718913378462
0,352650623885648
0,337010379965419
0,346084851052367
0,335281671127101
0,346208012965338
0,335352933436204
0,335206771851115
0,32712031526404
0,334476660858228
0,32057995345621
0,325770287111143
0,322015795535141
0,326130542088563
0,319984165285332
0,319407937510154
0,3132256439613
0,318154603664043
0,302934887152418
0,311988050193957
0,302358695194239
0,304313745659511
0,301717741974102
0,305957692856182
0,294052704320707
0,310145484167183
0,290402730487645
0,297767349176582
0,286584335702551
0,288904908273207
0,279516090997172
0,293810668099885
0,279305063005665
0,287859720288325
0,280099003383425
0,291570695606436
0,278995165995894
0,285264821155601
0,27565340411227
0,285668961326655
0,275152138184445
0,275918461556837
0,260540293750885
0,272370983786495
0,267280111867977
0,268292575486928
0,25110102237876
0,262503014827591
0,251818755958316
0,254321046639038
0,257028382148277
0,261739916322097
0,246313386640215
0,257369331179689
0,249077110519785
0,253474104974014
0,238177644874386
0,251881501846101
0,237314586781628
0,245454221868645
0,238132413127151
0,241964873979541
0,235461561011453
0,243443835855995
0,237064265076089
0,239623659024283
0,232341165190077
0,241349792316667
0,231054802180721
0,239657486703395
0,22641576423918
0,23488162074389
0,230516607214925
0,232238133480754
0,225350892142096
0,227048551643063
0,227858163268906
0,226698721229568
0,216359263403022
0,226052067778667
0,224194040937317
0,224838656477934
0,21908859293886
0,221874757536226
0,217577066424009
0,223931159033885
0,217227083321936
0,225618896661685
0,217969486791371
0,227157147995823
0,214805355742623
0,227633338342848
0,220887589331525
0,228041169309352
0,220284999194622
0,228377922093914
0,219942077657136
0,230894448391266
0,224673508245053
0,233650003920739
0,224195493492282
0,232616784120058
0,227055830854537
0,239130024037939
0,226411537638163
0,241764640424729
0,232248841663816
0,239210156518953
0,235904033271497
0,242970813120439
0,234802333364693
0,241483661858992
0,234199046773638
0,241566181891543
0,240655321946105
0,24734215906409
0,241204634916737
0,251288432757914
0,244831413389462
0,256944316273525
0,243327162474355
0,258314483471821
0,251149371281422
0,261537808789727
0,252062272030965
0,261988115065319
0,25517351908686
0,262253802640014
0,258482751834257
0,270648130766333
0,261162787709051
0,271814174752204
0,261907046274824
0,277675178894919
0,268550566888378
0,277364671341033
0,281397437273824
0,283324000424587
0,277426227473369
0,289098246704623
0,282966202728909
0,289203520589138
0,294194209094696
0,294302602417603
0,288416973001954
0,303237510538936
0,293546412252121
0,301357972698205
0,29498563944213
0,301594765871354
0,303460650492941
0,312940368953553
0,308450550170606
0,314448966510756
0,304305648829522
0,314973765041133
0,307140064362512
0,315811988596343
0,303457230958853
0,314700399607951
0,305244608752095
0,313663553632781
0,300724191153241
0,310729593745005
0,300807380089731
0,307768324484342
0,297129181190992
0,313287821258904
0,300519393991482
0,305788793044747
0,304832422639877
0,304641560081086
0,292667512780257
0,302700944310569
0,291620490223428
0,304829091099566
0,299354482591262
0,301075893430296
0,293023746185677
0,299287639885795
0,290889217241313
0,300554312720462
0,291864539580471
0,297058321656939
0,291552680905828
0,298279796637093
0,293488484528375
0,299455806409261
0,286926541520661
0,298171937334695
0,296673403623492
0,299104271761321
0,288155930206089
0,289671150428722
0,294485860002223
0,299811243806978
0,28846781918372
0,297483700212371
0,298067983811419
0,298418352934582
0,287629998188462
0,290966977809742
0,284013579376181
0,289133526133363
0,287038449926384
0,296276448552813
0,28453720259876
0,285772489038171
0,281539069293223
0,292331665906378
0,278622316976004
0,292950432765839
0,286507772449593
0,288289730635246
0,27422762122948
0,275932627418114
0,275649585185825
0,278937237604603
0,270024747462503
0,275818633172204
0,264879956990552
0,270181311774221
0,260151946717588
0,268657263781752
0,258742842332517
0,26497803507359
0,252394808126322
0,258389385328711
0,247775748065423
0,258993707236287
0,243394620226198
0,245991297127027
0,243096313173336
0,241023616822267
0,231291396321882
0,237900428536704
0,233591098153287
0,232617237393036
0,229724595322101
0,231640777153176
0,221327182075154
0,226781932367988
0,219372718351222
0,225976758566715
0,213283538493319
0,218829714253403
0,214078293292704
0,215511024367331
0,206352642649848
0,212427226091943
0,208965577448018
0,211474966261713
0,200715478864581
0,203540722172968
0,1973935554438
0,202717986628562
0,199540111462152
0,198763781721744
0,188632490792162
0,199168934710114
0,191970831070796
0,194401359016423
0,186007409216959
0,188778312021655
0,185247073820955
0,189925371658145
0,185655819997227
0,191129112133999
0,183490424707595
0,183406684441947
0,177380271262031
0,183880372128989
0,173252418883451
0,179836769908008
0,170213975735788
0,178880246252155
0,177503606138068
0,179180064778063
0,169291533700296
0,174178990229146
0,167258552626277
0,171990996526631
0,166059724897027
0,17333101020458
0,168703408570811
0,168798702025328
0,166707278691824
0,172806736499516
0,163416748632254
0,166361200761619
0,158621038357425
0,167212333588876
0,157324858611187
0,160948553893552
0,158773858535253
0,161362093644258
0,155307530196665
0,157983612284257
0,15166935530606
0,162517790522719
0,151545835224647
0,158035000548816
0,151295941256241
0,155332089420855
0,150373013542474
0,151314196325373
0,147084790332491
0,150314766385872
0,145687237570655
0,150982403191065
0,145525025021584
0,153055114175489
0,140563411235783
0,151409638273696
0,142899062553701
0,150329162298457
0,143350587709735
0,145508105197862
0,144334453602343
0,14404047444714
0,140860037459883
0,143876937574961
0,139243554983681
0,145568596600447
0,136642247446483
0,143784512957338
0,139787108773367
0,137681995208495
0,137819070536092
0,142831581245526
0,138790396797911
0,139439407188781
0,137994007271626
0,143432248093682
0,134323722557119
0,14005921862231
0,133313021879955
0,141159997201948
0,134818259789659
0,139548796294247
0,132436725724283
0,133649989151225
0,132146039377032
0,13592822105814
0,130979761490133
0,136872025774726
0,129959997726064
0,133038556070815
0,126402042434985
0,1376902033559
0,129906709265579
0,13312444058146
0,125825700799932
0,134159997596325
0,12538626527408
0,129490840502812
0,127134948088437
0,129636849806147
0,128047701521431
0,131183172257858
0,127183777175902
0,130228678404228
0,124312047242632
0,129445659918901
0,121896466768636
0,127591175266257
0,125124490858411
0,127582043890856
0,121637126576836
0,127299036306488
0,124478520619923
0,127339363108845
0,122006299539028
0,127734951010803
0,121267086917048
0,122793915312649
0,120498895697425
0,125929659258018
0,11891603544858
0,123483908892327
0,117531440864225
0,12287700987188
0,122274098139843
0,122953203842438
0,1219106882986
0,127771967435673
0,117978734744164
0,123369500783175
0,115504273298135
0,122218586641003
0,113016531541569
0,120368919787119
0,119214293106161
0,118320748001646
0,114228285775597
0,121264151914956
0,118669404753454
0,120582786244552
0,116864738477488
0,117749033385138
0,114720240908114
0,117748119494085
0,111864595086181
0,113997576568416
0,112610037420254
0,116806055792944
0,109923487550378
0,115701910163002
0,112959974562782
0,11343994447393
0,109257375450474
0,115236381075882
0,106819633074168
0,114451164784823
0,109327014610531
0,109336641076173
0,106809773884236
0,110722086675926
0,108918756736706
0,112533115508956
0,108710654788076
0,108098406723105
0,104624954204675
0,107743074579821
0,104733256495937
0,109997002876052
0,0991422070393653
0,106591657982449
0,0976770731797493
0,105724689589512
0,102793178552018
0,102184218205473
0,102627759784969
0,102894705355639
0,102793760991443
0,103227222296921
0,101938601862275
0,0987583301918681
0,0981592219272823
0,101591647289928
0,0982060145170715
0,0991733044515355
0,0988838771668762
0,0990032266475944
0,097390414873884
0,101564143917666
0,0937233769234707
0,095588933159391
0,0928236358068571
0,0954087518474902
0,0924806262864646
0,0957739911350809
0,0920179038788195
0,0978071955861384
0,0922067826477816
0,0934824100273097
0,0924848641366735
0,0936710687613615
0,0873963792362611
0,0920814052114574
0,0885984315143992
0,0954686725408489
0,0856456708045676
0,0876291400302743
0,0849258130181276
0,0898830655312414
0,0854816879746616
0,0881133474166769
0,0865673845486813
0,0885579576184046
0,0873899685808788
0,0890057898179896
0,0836446594210213
0,0844924296540357
0,0813019690765852
0,0823976266744186
0,0800207596353024
0,0833763203901836
0,0782421086463484
0,0859391964949995
0,0804922889452514
0,0838973746797626
0,0775041703169182
0,0793867909713845
0,0777819159741686
0,0802466247725463
0,0759808300540696
0,0777665571539209
0,0781885624379561
0,0784397638934491
0,0760499151408941
0,0791798189290952
0,0760698543476697
0,0792662418207073
0,0741986269174105
0,0780921006923502
0,074394877675158
0,0745091975139185
0,0751070080582432
0,0763871694387923
0,0735596246689837
0,0749097832175736
0,0721346061278152
0,0762793550964227
0,0672584706262736
0,0749259371149639
0,0736721727470245
0,0758848285131548
0,0691773075712955
0,0734952896913277
0,0693688496797987
0,0722998666600151
0,0712769170823046
0,075191398648009
0,071910550381409
0,0725095456683999
0,0691037218562391
0,0715963100522364
0,0697861940692129
0,0708172942572372
0,068877064156747
0,0712607795834943
0,0686590941648815
0,0694476127843705
0,0659218259489164
0,0677801970755626
0,0662267545323019
0,0708665852755254
0,0660769675033804
0,0704621962389917
0,0656125466397045
0,0681537737848066
0,0666667853972312
0,066740685428103
0,0656519827737558
0,0684255462580526
0,0635202328263425
0,0693394149694655
0,0628805534316788
0,0665900294451957
0,065782176176503
0,0667175172149635
0,0624930002360316
0,0655769560048489
0,0604530142503348
0,0618104576415926
0,0648674161136395
0,0673630107540816
0,0630280413010023
0,0630857187832986
0,0608443948264133
0,0667373584173968
0,0622179347042834
0,0663006199686123
0,0628377535010589
0,0640787450762621
0,0610935213577759
0,0629114344460348
0,0621552177934094
0,0640489135671632
0,0630522242595258
0,0628099799972265
0,0588750298692885
0,0656783004581101
0,0632676674563389
0,0635226463946221
0,0608509520511077
0,0634955510923113
0,0579769084113388
0,0610710587176094
0,0611835672000721
0,0652401669336355
0,0627453735562423
0,0629269253572269
0,0593929787636774
0,0621943682858894
0,0586425164796719
0,0605772802453125
0,0604463911552314
0,0610961956856412
0,0582190433710621
0,0617024545726976
0,0569027943767162
0,0600476181525269
0,0591380104145291
0,061174884148738
0,0584031655761017
0,0609468226999119
0,0548382792537423
0,0583945949438643
0,0585679353650558
0,058275991756305
0,0559622173112564
0,0593624408562855
0,0553178592787942
0,0578792051940228
0,0563414146363321
0,0550580399008541
0,057210354235945
0,0584704763057493
0,0569132581646543
0,0566928648833537
0,0537877783167094
0,0576048937613072
0,0520842360770292
0,0568912638095341
0,0546538606637104
0,0592577955066495
0,054776554013411
0,0555121894269009
0,0523526677358864
0,0559706949091539
0,0523420915148384
0,0542399163652873
0,0543114006660051
0,0541253416934181
0,0521646868376727
0,0533299870498817
0,0534113312025404
0,0540324919836247
0,0557286780881986
0,0551737333657123
0,053126100455053
0,056607746244396
0,0498427533574217
0,0555415031671528
0,0549898766764079
0,0532915793653798
0,0508172156426893
0,0530977310931664
0,0522229665450097
0,0529075089702738
0,0508445592536646
0,0554782443630549
0,0507441266461977
0,0519641116080203
0,0517251874920201
0,0534272402217772
0,0493369915695153
0,0508317489503653
0,0497970985254224
0,0542609904933861
0,0487971298347128
0,0489001642513791
0,0474866188493373
0,0495895565302663
0,0472271664983987
0,0513830835869532
0,0486211119228725
0,0475994578194344
0,0476331258629856
0,0493149580438081
0,0473271206072159
0,0475149817025498
0,0454253816057954
0,0477030586052235
0,0449774589155204
0,0475872150906875
0,0456386515440251
0,0466596790214836
0,0452072291959288
0,0484607598715252
0,0455698042610597
0,0447934995684442
0,044279352931938
0,0463943097403772
0,0430260096370816
0,0457413853866502
0,0429438992863742
0,0457031138422984
0,0452590436385382
0,0454156160771845
0,0411941576956453
0,0420861005210158
0,0440339016382635
0,0466566699004228
0,0426201166219971
0,0429434784614992
0,0422117369007795
0,0442299166096728
0,0426353382241055
0,0447065881908194
0,0405289909119357
0,0430126415280875
0,0403243758869145
0,0426367753038708
0,0425163030215436
0,0444337210292376
0,0413281899877279
0,0397081560448023
0,0391052842605955
0,0430029846545464
0,0405774664284135
0,042804869266808
0,0413566971452499
0,0437808939307383
0,0407351116557819
0,0412556357518183
0,0394714820696682
0,039786603257669
0,040460101934808
0,0433729463332089
0,0406637074990831
0,0406653480208375
0,036930019237213
0,0385672210658558
0,0384096001299592
0,0409458189954856
0,0382511165045411
0,0391730016148093
0,0402560177086282
0,0390823030149052
0,038071873276379
0,038993435406565
0,0383676089333738
0,0366174552796712
0,0392906258664552
0,036985460987208
0,0372915796161459
0,0380098083248031
0,036458671075496
0,0370227079882646
0,0378499164594967
0,0367885880604991
0,035570422588063
0,0378590595414572
0,0357367986297023
0,0353090659820131
0,0354120291679807
0,0378434053300264
0,0358648858380588
0,0344670293093712
0,0363940826039655
0,0356321260072579
0,0375272708838785
0,0356025149337176
0,0369678803570914
0,0355129086727633
0,0356898628364607
0,0369223349377071
0,0390625125962531
0,0364836291849239
0,0345957622559228
0,037642773831479
0,0388528194199007
0,0358184758812339
0,0343196215740212
0,0345027954747629
0,0358835923685236
0,0356691886739187
0,0325299007688356
0,0336798670382403
0,0318257650938392
0,033151705430974
0,0330058569063561
0,0302104885611316
0,0308163201785201
0,0326571381151282
0,0436467994652815
0,0404896759084082
0,0333134153795768
0,0295415706992498
0,0354305060573487
0,0369834050053458
0,0310490265752206
0,0314007414474009
0,0373955856634021
0,0289422311230326
0,0339629920800526
0,0363359364748086
0,0412606680820324
0,0326770168061245
0,0347153852910038
0,0332905060652639
0,0330019984671572
0,0367325631059589
0,0367535128091019
0,0332344839308069
0,0345619146329388
0,0307842037736778
0,0396408884053855
0,029876603144582
0,0407644269343356
0,0277442040033555
0,042239182486106
0,0282168487993368
0,0410967003879516
0,0263010961699318
0,0430651967114641
0,0233707469831383
0,0428535981579561
0,0162126705804977
0,0430843573287584
0,0172048353531523
0,048764967451099
0,0213467957029118
0,0570760734757641
0,0145521503637356
0,051721464020617
0,0110808028404188
0,0554745607387611
0,0157960871627344
0,0661734277581894
0,00888436629670136
0,0569940545661254
0,0091387298403778
0,0676048854455097
0,010177876094475
0,0551579488730444
0,0162551788781563
0,0562235713719503
0,0225308073078923
0,0349955722700246
0,035276853869342
0,0342877223539309
0,0386729169866632
0,0228102734121184
0,0501657775175586
0,016534120244314
0,0519827402496122
0,019828264064312
0,0463350031782826
0,024178078768703
0,0418763170206479
0,0281553940848617
0,0379722307973026
0,032197979977784
0,032379790098664
0,0329623544406067
0,0329789198821707
0,0310279332812681
0,0332703845107356
0,028490324459828
0,0365236947567949
0,0280595221766448
0,0363585884128909
0,030317360495196
0,0343821552208524
0,0302707906087026
0,0334205309514376
0,0307876020973068
0,0372792327662599
0,0325797539195879
0,0362295074228131
0,0300054674213277
0,0348012419622797
0,0291163262548184
0,0341462941551276
0,0313509913850393
0,0358079071990278
0,027032383708646
0,0325855899666572
0,0303756502648439
0,0326557405018168
0,0288475411625749
0,0348024331188814
0,0314213967274362
0,034939846601609
0,0300687271903248
0,0340574395942046
0,0306606567121711
0,0328294419156371
0,0310370428264686
0,0355320333384228
0,0312507458111509
0,0366468054547925
0,0309497441567143
0,0343833956239683
0,0324732327388127
0,0355857347277182
0,032682683456228
0,0340972284773052
0,0315099307399395
0,0342583163015876
0,030725949812594
0,0357706577575177
0,0315326495737037
0,0370499610451224
0,0316795402005947
0,0342471071844785
0,0324513423714979
0,0344449828480391
0,0315399489271244
0,037503079802152
0,0334494766540943
0,0358253270400067
0,0302575710918122
0,035743191355139
0,0287998546145579
0,0350890826251257
0,0316616847929408
0,0355197948192994
0,0325878755975102
0,0324471943181117
0,0311004649132749
0,0352274129881254
0,0322342404346496
0,0352883592446944
0,0304343965397016
0,0354425627572156
0,0311604318390231
0,0343082799339596
0,0326090078643305
0,0334147760090938
0,0324332440761017
0,0355398980265932
0,0304032544322066
0,033288515761842
0,03340133238879
0,0356092625735041
0,0333768280191844
0,0359548556871457
0,0323256948921947
0,0359467302229648
0,0326167416273362
0,035499890527325
0,0338383586417306
0,0352368551351139
0,03115822480203
0,037081969402985
0,0329955604967754
0,0336249859154304
0,033260816411185
0,037127496483102
0,0344805616788244
0,0355863937783797
0,0328217841810868
0,03789096410375
0,0317770442936496
0,0355803236741541
0,0343273862177922
0,0387996102125501
0,0331782186403548
0,0354274654405745
0,032838039428696
0,0380090179574396
0,0365575617257714
0,0384614849151181
0,0344492662779335
0,0369883531615633
0,036432795091381
0,0395510695298053
0,0375924485091711
0,0387547210115047
0,0337496777286337
0,0342084469146512
0,032732846297765
0,0358446569245547
0,0347953659260483
0,0372101638593688
0,034263924855102
0,036823985953444
0,0357375524734266
0,038568105850491
0,0349236286915637
0,0395891037093802
0,0353120697020643
0,0360149270762446
0,0336160577310379
0,037070785904766
0,0353702844183783
0,0383075544771749
0,037150443828889
0,0374995262358803
0,0345222947116673
0,0366399686289198
0,0331248349429833
0,0373988388149205
0,0364602643116065
0,0372031719910748
0,0357085649744906
0,0363329039747816
0,0335598334657168
0,0380563832360336
0,0359831809476338
0,0389913486216979
0,0347670496223884
0,0376786369452253
0,0363293097765505
0,0391537265191909
0,0346228980292929
0,0403586042018306
0,0385324905976287
0,0389770955443213
0,0375514577700972
0,0387153818080427
0,0360961619993427
0,0400156594050443
0,0342214918451625
0,037568906572682
0,0409639454707506
0,039352304938293
0,0370276227412833
0,0384448305977009
0,0362087144361924
0,0399705204216475
0,0365464475776676
0,03820862479362
0,0369409942709451
0,037987906885092
0,036902625880963
0,0396997624775313
0,0381696721297923
0,0400960138013637
0,0367009189005955
0,0380470738052237
0,034868075268635
0,0379213232838164
0,0349926853960482
0,0388197928402153
0,0388400896097017
0,0396452611413394
0,0349843352472467
0,0364621842202903
0,0342212550865344
0,0354411375738461
0,0342415227300262
0,0370637107325034
0,0356345559254603
0,0359359725605134
0,0355298562647412
0,0374005698709594
0,0328797577772521
0,0380456557251515
0,0342895217382664
0,0374164179118434
0,0343726825873618
0,0363667668996213
0,0360603538890354
0,0380764100354447
0,0340766921097946
0,0362884432172851
0,0342794065079937
0,0366239102790384
0,033502716994303
0,0377634652528812
0,0352316757332336
0,0386129286047854
0,0338421778781417
0,0369363870841828
0,0335196896238233
0,0369408511846846
0,0351674446250922
0,0354805417263494
0,0360855531385963
0,0369224486663605
0,0334803235130701
0,0345610297330353
0,0346835990004779
0,036470439787192
0,0356110935372775
0,0368559981646748
0,0359512225622369
0,0357037028018341
0,0319855215890023
0,0360758590611894
0,036272974427251
0,0380558985362025
0,0348497078669002
0,0364402213867413
0,0323113485350664
0,0357819374999274
0,033279270982366
0,0360207740191136
0,03350806092845
0,0339991585661003
0,0325094820142091
0,0363910841514663
0,0338941325944173
0,0366591166683986
0,0353681578381357
0,0342027040545876
0,0322339446573015
0,0366877728951243
0,0337943508690203
0,0342997207555756
0,0345199650305483
0,0377495693424621
0,034436584069603
0,0368543801448217
0,0338129332453045
0,0346705893271505
0,0322653307792762
0,0375296413302065
0,0353230475734874
0,0348367447165155
0,0337040878756384
0,0342080164495548
0,0346989255809321
0,033736498534224
0,0338803519047039
0,036052424772966
0,0312396347314372
0,0341972948289165
0,0316745839958519
0,03260847862017
0,0333571134423729
0,0346114599603278
0,0322542926403585
0,0353688629862083
0,0321995979912205
0,0333989106629265
0,0321354321559853
0,0332643306047183
0,032387215596917
0,0342323179201538
0,0329723856284351
0,030102756657355
0,0324251867987454
0,0343284026356311
0,0327352599121744
0,0343099741929744
0,0301066055121671
0,0337143603182582
0,0324097813967098
0,0338556982494409
0,0320822538985161
0,0342388271939761
0,031749392314736
0,0334585537469124
0,0301511431475984
0,0322474253877313
0,0306424062105809
0,0327670827496186
0,0296937170848498
0,0311461545176225
0,0292909156257448
0,0308039120468875
0,0300375213107448
0,032076511143965
0,0305581317652499
0,0290687968828662
0,0283056785489112
0,031760657765114
0,0263663109851616
0,0340456376136396
0,0292209652015673
0,0330985373966593
0,0291709720774854
0,0317532164757887
0,0287613013125049
0,0321411506366047
0,0287976352994176
0,031197769683533
0,028068859431186
0,0294621724000007
0,025092482982242
0,0296704201448482
0,0267865735199293
0,03044644943956
0,0272520380709019
0,0305818413381519
0,0267251676858844
0,0274505328931691
0,0247868767309149
0,029153883987912
0,0274582073279924
0,0296785298147269
0,0262306440447871
0,0315607505998882
0,0236659007980541
0,0314146482651003
0,0309756196369145
0,0289519212118949
0,0286880245596078
0,0268799326075034
0,0283069058898833
0,0272549126685741
0,0266306369398801
0,0297719813916389
0,0274500484073769
0,0299100164332083
0,0278158500254105
0,026835223040909
0,0279779591804768
0,0260655985986464
0,0267261054480753
0,029199228304668
0,0262587201929788
0,0269405072421401
0,0272961288375245
0,0290022182203019
0,0267117052858525
0,0280780353350547
0,0251626487095991
0,0281565544593039
0,026083703287635
0,0260044499715379
0,029922985053649
0,0279157303250323
0,0266270118994523
0,0260283517456151
0,0256488297783412
0,0253969745414264
0,0258289129405395
0,0250624064124212
0,0254201586740648
0,0262249415904988
0,0270508547691492
0,0268770507222449
0,0230250318887652
0,0274506173776743
0,0227340094197301
0,0251126893217544
0,0243628367470855
0,0270349421030804
0,0253519224936867
0,0242728711908674
0,0243908650342219
0,0221879992785117
0,0245127819355773
0,0240485325919817
0,0276458820936315
0,0225764863627572
0,0245801394120696
0,0307041340485815
0,0247357953368276
0,0281786014235267
0,0242282978327767
0,0271042652051964
0,0223310244084839
0,0248186398473717
0,0198953430671055
0,0267370921521926
0,0229225323456148
0,0289022264416517
0,0229582330725066
0,0263887725267821
0,023022148249597
0,0273587953920873
0,0231972937105284
0,026589865789395
0,0224880681042864
0,0265108732647264
0,0213670294698577
0,0263813025674483
0,0290961336946972
0,0275583082914706
0,0254479875207196
0,0278277388790322
0,0163825839786577
0,0409167636640143
0,0185620995390659
0,0305275918016316
0,0213435674814365
0,0288644014735229
0,022806528184881
0,0277152628225818
0,0193205480290717
0,023237001775834
0,0223883787725815
0,026829049030253
0,0256997922123863
0,0245813460017244
0,0243714250875568
0,0244517646757099
0,0230583651143717
0,0265064663758318
0,0243837422462118
0,0273313181145464
0,0215413333450786
0,0236479210907662
0,0216159992998479
0,027932542768988
0,0187807706024297
0,0267204891861282
0,0251887420698127
0,0266168977207673
0,0224263197933376
0,0276899481488144
0,01772984166142
0,0253046260036716
0,0298825246374363
0,0238893618274389
0,0270899409677879
0,0235948295496952
0,0249169204950014
0,0219540012329552
0,0263598273896628
0,0245237189378815
0,0236380971813629
0,0237926385512989
0,0248893985478987
0,0223965789169769
0,0235410597737226
0,0222908399136633
0,0241022927896164
0,0258581756937795
0,0251104385142934
0,0260215055154841
0,021672731039381
0,0270348958719204
0,0190646751808136
0,0340242090435893
0,0253893041354471
0,0313862610417416
0,0253774686557186
0,0287358953961554
0,0240211111936315
0,0262955097056174
0,0230950182652732
0,0240818624858726
0,0229457110268097
0,0252126526376952
0,0245390807095843
0,0258767896483802
0,0221886375897636
0,0258029469827702
0,0229518244609524
0,0228380310116175
0,0255717901953157
0,0235782679024483
0,0262745201042159
0,0222451931240775
0,0267684874213276
0,0188652079881311
0,0291997728846436
0,0219257064004472
0,0328795243293969
0,00810484145695681
0,0438041845038896
0,0259814693178477
0,0300030998761895
0,027347269151398
0,0243675546636582
0,0265326623821679
0,0225458256425858
0,0266744759463515
0,026131885630913
0,0256131699193039
0,0232739486839329
0,0246576430752249
0,0226283405737614
0,0249404292201479
0,0184008902499043
0,0284211873895847
0,0370378157911279
0,0269270268062854
0,0323141957476556
0,0177996598916081
0,0296782079665137
0,0386248201622809
0,02243748054925
0,0316759772985337
0,0217924379954212
0,0298173067069915
0,0239559349463225
0,0281354150086561
0,0224095037399709
0,0318834816137059
0,0255480639844869
0,028223444598487
0,0250410389345419
0,0256996756846494
0,0261471174153309
0,0219093619497759
0,0278622500401597
0,0338070697366862
0,0238615199684266
0,031901149355701
0,0266612985345221
0,0279467500871368
0,0237448269488269
0,0300403147662787
0,0217139296416178
0,0303222642118821
0,0306464370898694
0,0255204533275585
0,028089596202273
0,0333966445729433
0,0224220019422157
0,0308065017073263
0,023608824648833
0,042474676542947
0,0115773234351231
0,0378358716255332
0,030439752409846
0,0360359310119989
0,0387360214430198
0,0278511541344811
0,0349856036402071
0,0243588031389966
0,0310506338925354
0,0186954501767208
0,0480618371028663
0,0213250638574872
0,0405850218062865
0,0176205384139161
0,0414070911603313
0,0271678971894085
0,0355249012612734
0,0260746907963034
0,0347558254253728
0,0230647045891441
0,0448160797716753
0,025612305603799
0,0254606959957522
0,0438966890318874
0,0308394893368552
0,0535692752747865
0,0296202429102778
0,0299414962898202
0,0435823818192616
0,0293747698137935
0,0445344890647772
0,0259510410912076
0,0420481310581486
0,0235597304354601
0,0304041865511043
0,0523439467679049
0,033040074796272
0,0386446593974278
0,0337341624702071
0,030623757842431
0,0490845282376388
0,0317169863014075
0,0402564672792991
0,0327756330473378
0,041596354832314
0,0181920329138856
0,0759688971585438
0,0256240077972391
0,0543235330008824
0,0366510263787536
0,0469310890738119
0,0400244305654017
0,0417532811105245
0,0344494892463112
0,0436919733930329
0,046182881635947
0,0481822330532032
0,0290451096873056
0,0505388318016477
0,0501946964223067
0,0406695502848822
0,0501379240763947
0,0385155202946528
0,034911548017009
0,0458223545523339
0,0627922107264841
0,0650024699941078
0,0479176129320397
0,0444469779685887
0,0584374682660077
0,0469685377279996
0,0537404062935685
0,0509621656794846
0,0529272060207654
0,0505229173156233
0,0484961030423276
0,0575308500898706
0,0497696128525136
0,0621157252813071
0,0486472126102314
0,0572284306213803
0,0517255707390814
0,0754221599657369
0,0718491331982726
0,0522002761405359
0,076997606013254
0,0609391813449513
0,0735015565994383
0,0606550970937197
0,0675109653225697
0,0656145314915843
0,0724229804097601
0,0710889880130489
0,0596034792417733
0,0808760939166946
0,0626650362419253
0,089001138098355
0,0812295145000431
0,0786154104158507
0,0738177734624808
0,0578527359370468
0,199583084302122
0,0773079536375954
0,120442061413991
0,0717245822842921
0,11898128468982
0,112418275175955
0,11344413104634
0,109097758865617
0,114542449866645
0,103550390011273
0,123937058824264
0,118693623116664
0,130297364853626
0,133078714046712
0,142228544786002
0,119085151247162
0,153780522508059
0,148447340703504
0,194075828941838
0,158770487564245
0,167957836430046
0,162885561833683
0,181737217102988
0,158836976691795
0,191120671706353
0,160886897130608
0,203146152895504
0,20281224627481
0,205616332679802
0,199445855856153
0,200332341103056
0,225642576522754
0,198737495665929
0,259890161514128
0,217216727396677
0,241520374765239
0,223809918737638
0,245651946229241
0,236950334629512
0,237664560080225
0,258351432457527
0,255741550035138
0,270152457142076
0,262350543128975
0,269843196794296
0,267798326613254
0,27625069824181
0,272298039540355
0,270604053525853
0,281481128748223
0,260784700516935
0,40125872634868
0,285978130802965
0,297806242476596
0,283707518974265
0,280158856881859
0,300319938660596
0,279087105699556
0,329612364017801
0,29031089980575
0,303608271824485
0,284181716992574
0,292772828388347
0,290616035210126
0,293917708914844
0,294124516606719
0,267974499256588
0,313380845250923
0,257567129343877
0,312839951935035
0,293860694995407
0,295972009464338
0,287680971517427
0,288285556765599
0,277442105936967
0,28254483515059
0,265477039780305
0,27625350083045
0,280048388616666
0,269355984396831
0,271863098895371
0,247054349441623
0,283039403216316
0,262123740933386
0,265666492626318
0,254342995046708
0,251135307477217
0,253592753186111
0,22525929377704
0,255219922253382
0,252074124184806
0,241972128079791
0,241242605374551
0,22569406969195
0,229038336307278
0,225612464146777
0,22575963575947
0,223109029732233
0,222436046618583
0,21658639550591
0,223019339493566
0,209621508826426
0,217367927416508
0,20340750246279
0,216822877307993
0,205798791931132
0,215470027959083
0,204868440893754
0,208333448812181
0,200352414738329
0,205615653861059
0,202819920182918
0,209143956012131
0,20258142509368
0,203092855034196
0,199329268887788
0,209046733336075
0,201905756441534
0,204960327861499
0,199105773131021
0,19862473625523
0,195422501391595
0,200750771325911
0,198972581288485
0,199258536425237
0,193091107909869
0,205752764596525
0,195022064771551
0,196657777246222
0,191359113422754
0,203200558271186
0,193992790620713
0,178782346432833
0,24431178592809
0,195603105803929
0,207147441553512
0,188210034839085
0,198639726370005
0,191422389715255
0,178739107811963
0,216110583060078
0,190493957354391
0,199554275451562
0,18709419575009
0,18638378979649
0,19217706093395
0,185164375710441
0,182704900326127
0,192732751351779
0,159754276644373
0,220655138479635
0,14901240895224
0,243392506686666
0,193603375829806
0,206688085050213
0,167059710908383
0,199450065504441
0,184653076709517
0,183769175975064
0,182927045503715
0,168649016184942
0,189390593937237
0,175775868056126
0,181449552449524
0,178392438435423
0,166940398012522
0,180500845310894
0,181291245438249
0,164047162390104
0,185800874384501
0,173744151022731
0,16011863871555
0,175021090235507
0,197231027140204
0,179351972885359
0,162389550873221
0,168914181378085
0,151086324923427
0,160724355418452
0,172011407318339
0,150628262721302
0,167634073341992
0,149468055113678
0,155206559103237
0,14038368436545
0,16267956652029
0,142456630483049
0,146070529932721
0,161803018404227
0,132233660324377
0,150988896362171
0,126228221042617
0,172514159325736
0,144804577353192
0,153069919561273
0,118356229795717
0,163449206498796
0,137441580021129
0,139281479558375
0,139321872097135
0,123201446248941
0,131450528550824
0,136830065362719
0,114082598986591
0,135719432273703
0,120183836260159
0,135936034762152
0,121456910972583
0,143507979947289
0,145122578106336
0,127098802677153
0,118474803157376
0,117107690106198
0,114387583918482
0,123945385694451
0,0995511631598248
0,147788352930632
0,103034361348181
0,127066309753665
0,126447140613145
0,122268939142864
0,122764200319033
0,124351342418251
0,114926845712031
0,124491258960672
0,122269789115122
0,151446001603747
0,117124009059394
0,137037496019504
0,129397090556561
0,139327902850602
0,129557459466562
0,137049779566559
0,131191435266492
0,135840959622333
0,14006034561145
0,150059535023379
0,141855834269605
0,155059496351529
0,138201781857158
0,177697579793895
0,161548910828192
0,159815523586543
0,181385555658525
0,161041459986206
0,207826241469644
0,174534142482536
0,18903452639849
0,182369674136999
0,18526067541686
0,197200216638057
0,181528738279726
0,205082976955502
0,205809729428531
0,205135130706259
0,205190578463152
0,203308377100446
0,209163680220235
0,199939694251976
0,232833968972757
0,192047639793495
0,272946330838818
0,215347863189488
0,238532655901868
0,223821998706184
0,219537550987204
0,228509290354287
0,223231061873494
0,229284866975015
0,217983019119261
0,228111626518802
0,239369845697761
0,227940094506624
0,235582568361287
0,225553212862745
0,235805402377461
0,230761530374752
0,232290824290261
0,236009147701258
0,23573753392016
0,246361226803896
0,230418972525113
0,236699487919099
0,275400945326675
0,244920137043865
0,255512355639027
0,242008069959706
0,261392888782433
0,252161407393908
0,254269762366563
0,262387747108951
0,259403398409689
0,259411630461775
0,259844446284526
0,265803270187937
0,255994835885351
0,267648528021703
0,277880076606058
0,259036250629993
0,286929499273061
0,249386841699419
0,310251782806327
0,271486046835408
0,289849135360716
0,278911453737523
0,280522550573078
0,278200791000909
0,2793713717539
0,274407690692354
0,27935824564502
0,277648579517508
0,277951593926654
0,282745085982416
0,276224909999405
0,280977747273885
0,275577983375337
0,278791112275677
0,288722300592004
0,279192804842692
0,278410866796788
0,276981515252274
0,280702291255273
0,27052774862249
0,29084108651641
0,276363767877721
0,284495001499118
0,269482544837908
0,276761145592664
0,286760014839729
0,276922775473119
0,273452295834736
0,278290478126283
0,269326037118029
0,282461563607209
0,264348323332134
0,275996184803091
0,276727876481125
0,284328909888706
0,280780201510372
0,28296310755384
0,27560731361287
0,283553619036001
0,277835599157443
0,283994441212776
0,284130724389115
0,285813494229039
0,289909455807442
0,283511694020835
0,289945264921311
0,281007687575534
0,294531589605833
0,293289705233758
0,283142285343404
0,287226443443173
0,279005919748249
0,286944269763529
0,276599054816868
0,281397887480278
0,270054865070485
0,275834669647735
0,263127870755367
0,275984713380975
0,270467110045024
0,262735462876828
0,275760406358044
0,251499177363702
0,260063233620236
0,250480185663124
0,259913141087385
0,248829555934264
0,25371967497331
0,247848757195019
0,247410708188989
0,245082959048119
0,24359017190803
0,24352102563034
0,243088094053315
0,242766208783266
0,242754403648215
0,241058400981531
0,240033319819605
0,242996642889404
0,240411824571274
0,24068227112689
0,239932040062716
0,234188785411869
0,247604604212777
0,23950443136916
0,248437819747904
0,234261014344314
0,244667776616069
0,236563798359676
0,241718349855669
0,234692762383656
0,23825545470341
0,234140715366155
0,237284243321738
0,233535955997059
0,23432877126131
0,233784467958643
0,237034469714467
0,236470245575455
0,234496784020456
0,234525003520378
0,229284610376593
0,231957775693997
0,230971466204554
0,230062136903706
0,230175533841379
0,232381218752327
0,227772099085315
0,236180669228909
0,22889373301061
0,231210749425878
0,22944647928971
0,229900041797463
0,232354570791912
0,227160426414074
0,229053426997444
0,225650258460778
0,22899693627837
0,227923205614538
0,22716546607022
0,226859771786899
0,228107843329857
0,22732873714148
0,22510221009596
0,223237616770794
0,219120366971993
0,220155307718439
0,218763952772696
0,217132515900754
0,211262688115152
0,211122149335133
0,210656712949701
0,209639084384318
0,205727301320173
0,206329379984406
0,202971811299878
0,202860681168155
0,201247322086168
0,199885863979328
0,202398166099431
0,201396191350882
0,199598714282485
0,199872451614005
0,198854620737209
0,197120074276182
0,198359522391549
0,199076473800318
0,196056251306713
0,194303874609387
0,196246897804728
0,198070207139007
0,195280723477844
0,197767813816259
0,198927137452292
0,198621017365583
0,199805404558933
0,200169607691662
0,201646106168853
0,202687534875713
0,204597971309946
0,204839947931248
0,206605547391497
0,205300686796625
0,206029502527264
0,208775509224769
0,210569261358822
0,208616455772126
0,210545522939833
0,207339846712029
0,2125981630107
0,209543459513636
0,211705943909419
0,210651764504797
0,210901066710543
0,210472072642515
0,211469804932846
0,211418325942887
0,209719665863121
0,208931092285877
0,205441618692131
0,206745491755248
0,207111307533891
0,20499262278046
0,205837863747127
0,201654058694555
0,2047794257507
0,20202348002013
0,202276091715346
0,200385870920696
0,198876371870942
0,200187936117768
0,199959946791824
0,198701925564978
0,19784545416854
0,197600255524859
0,194124803880277
0,193078295968811
0,19455323023389
0,192310252325483
0,194365478769513
0,190726122961369
0,190704633827075
0,190430587061278
0,189413318453799
0,18830312935711
0,189023495055482
0,184282222821454
0,185151165513819
0,185105003282943
0,186137415864549
0,182735022442249
0,182196152352873
0,183149880031102
0,181221611729827
0,18040485908357
0,176459905085827
0,173266265442804
0,175153390454679
0,17299219452909
0,172158032494279
0,170009336916137
0,170566630581336
0,167183177426526
0,167389805609118
0,168073782736546
0,167165872052672
0,163132879439944
0,168052137500414
0,165425301446387
0,164886670257162
0,165381973378973
0,165583851069666
0,163997494280869
0,165938641472
0,162778027857214
0,162435253139226
0,159801922087792
0,162016456842111
0,15832802870045
0,156362395060025
0,157850300476211
0,155550750378697
0,150548850660552
0,148888702724543
0,145459546206876
0,145957661400443
0,143568116193678
0,145346917908326
0,144926157433667
0,144596092556551
0,146673873885854
0,146293766985953
0,150938765415305
0,15416536575239
0,158140202630974
0,162470334687158
0,16535848734919
0,174321625634837
0,180597140814382
0,187908959686494
0,196647813463953
0,204299904713265
0,214694830283601
0,223285753724488
0,233107474944295
0,241563548857449
0,249432399392825
0,261765970596102
0,267110791430368
0,279076011869972
0,287815287103765
0,298278358312158
0,306380746493152
0,315288015206382
0,325140344846754
0,33354275393995
0,341766139907546
0,352110602506323
0,357292182510214
0,36317993279364
0,370091544918778
0,375507197281481
0,377122116064599
0,384587479648701
0,387149978337113
0,392521834542642
0,393428812934025
0,396619868583434
0,395318659823687
0,391247762926115
0,393702894919728
0,393691706009782
0,393598037745358
0,391636796031335
0,391237086398608
0,38908608260684
0,388421312383904
0,387765960942537
0,388346636542772
0,38781840328676
0,391184142799538
0,388717227922249
0,390882330642358
0,392420109004279
0,397207794588786
0,399672971941082
0,405977864984914
0,407337415918603
0,412704060785262
0,416171284053573
0,425550476677553
0,431759733278656
0,432901453597677
0,439511175788132
0,447643066677542
0,453343529400002
0,461652586467172
0,462657262086049
0,469651216581005
0,478294531856968
0,485006792684599
0,482896141933789
0,484945634384174
0,490470932972209
0,490051637049654
0,488840072864051
0,492594589583559
0,488585319115887
0,488978758824439
0,4883548241793
0,483226945517131
0,482527683448337
0,484036735052566
0,482964972800538
0,481942210052965
0,488370887739805
0,492196308308924
0,498519087632821
0,501931236614703
0,509812581672534
0,519259870410426
0,527702410481484
0,5350635020887
0,541479401725324
0,551081728012316
0,56449311340775
0,569147125560823
0,574826265949143
0,588263916360749
0,594109776467472
0,599528962047285
0,611850385632073
0,621194113157655
0,628602853554617
0,638553800472317
0,65430099293026
0,667003530074871
0,681460366948493
0,688897934309553
0,706773925986645
0,712486510736677
0,734369227841831
0,74495689560811
0,757765954607271
0,76375297905576
0,781757217877088
0,78537466701297
0,78230691222253
0,800509244012007
0,794098762933227
0,806050196728303
0,809228074800526
0,808357742360361
0,804644390570905
0,803459638118993
0,807135037899395
0,797472384131672
0,798789152417816
0,783287920498548
0,780837199581111
0,782581026103917
0,78006125837346
0,779608431582304
0,766043877935999
0,770201988017834
0,770219358701033
0,765603047435671
0,772887356016445
0,758978217689671
0,780225732764647
0,786786714123023
0,779893808049389
0,788562321456096
0,797010373247275
0,813495314948846
0,814636433707095
0,818146942062631
0,838381248379729
0,841097067172234
0,839556501565473
0,840483747433831
0,865268338549755
0,865002487204558
0,871288723970996
0,863329622090327
0,876246135413405
0,873579257413152
0,875981905563101
0,877789789697959
0,885341530256235
0,88516721102296
0,883723936106812
0,891052029306539
0,888053873535216
0,882721214825402
0,88213586860843
0,890521321778506
0,891655070630567
0,885269228767807
0,866977657761243
0,863355472234827
0,871967810778336
0,869721353406819
0,85915107242694
0,856983039270897
0,848966160843341
0,834553394433763
0,835234449361929
0,813652523867554
0,807816048303042
0,787584424306633
0,763923373786484
0,742940384117468
0,719557938879426
0,701523896237178
0,680483471857492
0,65059334041956
0,616916414305012
0,593417926759145
0,570325602916359
0,545411505948982
0,531336288872252
0,514166350894281
0,493945037843514
0,486476589464355
0,474967537136732
0,463579585921329
0,459543712365632
0,456013287315176
0,451536185356377
0,442457297317798
0,443885368049827
0,435154876529976
0,428675769609678
0,420286265990569
0,416499795839415
0,41216028878013
0,399560885782276
0,398051516449169
0,385031306308703
0,377159635790632
0,363800143348766
0,35714508006128
0,342686374244129
0,332605887300894
0,321889372648577
0,309899489655507
0,294104241667096
0,286728095167406
0,276543053659799
0,261670349154692
0,248786456415815
0,234443087944785
0,226879538822859
0,215574405977619
0,205718421389755
0,19472395850968
0,186374939743784
0,175752937177263
0,168891173373567
0,165896969974067
0,157109071764751
0,151346262843214
0,150494626755622
0,142672904207409
0,141001937291514
0,136555203331301
0,13493040706813
0,132711052113173
0,127707821994902
0,127928236413362
0,12948634584894
0,126824826764712
0,126327288780148
0,127684260827244
0,127387976116723
0,126859932729856
0,128673943497096
0,126056702753709
0,124294409225756
0,129014949648629
0,12963339559987
0,132693363601276
0,130539525701339
0,132152795030439
0,138048196181416
0,134526176391432
0,135136506079487
0,136284596545285
0,133579039179265
0,136321267129029
0,130774641951534
0,132304212705662
0,131425691631863
0,128115290877761
0,135087592665687
0,136386556550874
0,128985256212353
0,131540003654415
0,130422224915434
0,130075809933257
0,131236937046462
0,133872557364095
0,134567658384059
0,134218632654512
0,130055350778122
0,136819375306756
0,138431624937059
0,140914786483127
0,140435576195909
0,139930372945557
0,143198659710607
0,143983689047179
0,144728014716375
0,144935732069339
0,15006273287527
0,142144396786394
0,145400719466451
0,148536307161655
0,151218514565926
0,147291467215565
0,147341817348899
0,148688144451825
0,148652272533461
0,150003219626045
0,152316344232561
0,148446090335874
0,15711790313955
0,1574931286351
0,154574855977317
0,164313059423605
0,161947139142301
0,165634351292311
0,172188342221662
0,178240887152078
0,178996575939524
0,182628961467999
0,190110211290127
0,196752500186476
0,195974507587931
0,201039707438025
0,202490754837638
0,20537225056561
0,207582126564366
0,200389773231221
0,201545782304382
0,206125581559887
0,199716221705252
0,188629717317458
0,196503395685201
0,192585656627499
0,183340017235864
0,183509716004942
0,185242586563954
0,183985637365243
0,181887164597606
0,181849688365762
0,185565931038497
0,18584479907733
0,184324380850487
0,182967376308302
0,181799457154796
0,184709087470233
0,178755500738486
0,185977438574489
0,181748401975987
0,180367706149392
0,177327224861939
0,179460784649521
0,175477670235334
0,177299330417989
0,171142760396089
0,16977039691064
0,166640724443734
0,175259429959106
0,169728949603861
0,174179803690103
0,172247381072001
0,17091343311753
0,168017116306777
0,165079881154668
0,169796954002007
0,166010824163281
0,173403667092969
0,165773542443704
0,16146840608905
0,169187752586239
0,169012321424735
0,164217170932843
0,167246109528278
0,170865448188089
0,168758013883557
0,172199697488121
0,158416354355003
0,168903535220943
0,165320898088325
0,166020637954329
0,167290697930201
0,161835379833926
0,165781445105202
0,155097633148165
0,156419871362311
0,166633775118823
0,167344991828554
0,158547318985303
0,163979605809513
0,159005255707696
0,154503573411944
0,158444872090079
0,154278137460334
0,159058115795855
0,156830568324429
0,157709829768375
0,153816410403349
0,157825268906286
0,156775498831595
0,161372716541252
0,176156214020587
0,164564292240951
0,16764089086732
0,158131508148804
0,165785261857771
0,171452948314214
0,1771286074633
0,172151867965031
0,173751843054701
0,170004792912293
0,170720911979181
0,17926987089084
0,168097883934747
0,190103057251418
0,166756555023653
0,182366048856017
0,178122981342445
0,190205539939408
0,193553886065667
0,193760324560755
0,187846575576708
0,19576371273945
0,202902131034296
0,204887886071353
0,189617066238413
0,201317294283579
0,197380926305466
0,215466523706859
0,210267334695545
0,221453384512794
0,221816524430305
0,232500377793864
0,237674503868491
0,252634465722388
0,231135562569685
0,256758370613709
0,275941419015326
0,267479518840281
0,258419470882669
0,280154533089795
0,287989125096198
0,284133571833579
0,284784276457812
0,287393890931494
0,295224742737729
0,29780394933589
0,268210226911898
0,286254313334404
0,266464591325451
0,28235719271907
0,282563797077843
0,262358557616898
0,27472055913036
0,28271616583668
0,277093908904255
0,273814059392424
0,263048484951063
0,285021044778346
0,267022023814412
0,28835804590389
0,263649131184717
0,276630622901234
0,265883798552221
0,26007793797513
0,256886796674905
0,262099710443667
0,266155908361293
0,264575478287372
0,282107525676116
0,280292319533327
0,272307844423302
0,244574821377513
0,264063136908302
0,236869913487924
0,253131624008243
0,261163728087248
0,227700880769356
0,273197805119198
0,245307094125859
0,242893312276435
0,262934703051806
0,248702271668609
0,239299463627146
0,26711219076404
0,257178978786553
0,251435214088178
0,278601091229439
0,284153738720432
0,259307159915173
0,272959156571527
0,245612991105705
0,26403166768756
0,274921339056893
0,263101087895138
0,288722637518452
0,285204468236218
0,268859934654221
0,280710841849358
0,267515469592542
0,288754795279258
0,262908621635337
0,283457985376717
0,275683578083546
0,290297825762534
0,248284422425833
0,280044225613249
0,278179628139443
0,280588062330468
0,300559317611544
0,306764230948552
0,244795055733685
0,292853286637749
0,290608928109379
0,317557199286619
0,31097868060209
0,31281272391725
0,316459354691397
0,313721382089874
0,279404724637795
0,342886745275983
0,3113630085972
0,369504206529389
0,368028682958099
0,319357199046839
0,360072125203732
0,344401017574558
0,335660764109782
0,414192613764777
0,346549637996962
0,400003789635795
0,352352996977156
0,350797003240756
0,401220029109065
0,355818875545587
0,34255767177261
0,352460909513663
0,312049505296862
0,35578001338636
0,31420324208375
0,363830164367479
0,310270603926223
0,306131341064153
0,310441379533055
0,304980282029634
0,267814910853798
0,312835607737073
0,398343828331313
0,420718762616305
0,302896249763129
0,347781062734834
0,274298417009691
0,323159830057491
0,301212836043404
0,424977458661109
0,422429807590376
0,360488932164125
0,557459633828374
0,303411220147046
0,199315959669229
0,431453396736594
0,22382375875544
0,383155757079709
0,306285466440493
0,373160954362772
0,366785530191712
0,320773169781087
0,357907706090813
0,279083046614008
0,210534269466982
0,317692778499654
0,372889943780974
0,301084574959157
0,314035877588664
0,319901652729024
0,313143294945164
0,423048886006606
0,200227652929035
0,375200418926
0,251814872415235
0,388617222973588
0,442906279743706
0,651693854560856
0,138526398727252
0,567322023997969
0,31902738179567
0,505375834635558
0,448645660011769
0,320664153652339
