3596
4000,36533379555
650,420452594757
1
2
2
0,044471508894889
0,0388056813931445
0,0500025923080356
0,0420498596169669
0,0470358504261668
0,0417452110809043
0,0452446747616379
0,041486848582813
0,0502880111937434
0,0438771485203828
0,0498196237713626
0,0403634059994441
0,0439091827909481
0,0371255322114041
0,0516367366391138
0,035972805702926
0,0427645286537536
0,0341873442041648
0,0444839848757116
0,0356868300862992
0,0476922858844532
0,0357245456473369
0,0437661238114364
0,0296378746399744
0,0483535649180734
0,040429474098408
0,0451465441713941
0,0365974060839201
0,0520967234697406
0,0390453838566426
0,0487036987776697
0,03908066769528
0,0442841520917782
0,040524659757857
0,0459591992717298
0,0337380570538342
0,040483456005642
0,0392073831240868
0,0478262888941604
0,0378634193654938
0,0480594892408397
0,0333599683065642
0,0517556801712567
0,0371773729800356
0,0478268520756954
0,0443537868669742
0,0509681120147032
0,0383932277337021
0,0465249054576284
0,0482674620452133
0,0490223155527047
0,0374529924520387
0,0462903372531534
0,0402825371015662
0,0485236846845085
0,0452894636119048
0,0514063669087795
0,0380077936780273
0,0459530077507066
0,0362149450694129
0,0429073509055725
0,0530488935608844
0,0426142524248904
0,0364330252227543
0,0426141976667709
0,0370006690162026
0,044584898110929
0,0409960397285503
0,0429796907715316
0,0387409037741487
0,0516409149683831
0,0413480174584065
0,0555318213256437
0,0352616094390247
0,0567161112030756
0,0358412477247685
0,0490570045811362
0,0319205119093445
0,0374518064427451
0,0284869074335199
0,0462646336951571
0,0430648987581979
0,0494741979513302
0,0345090456688472
0,042127520098543
0,0376617072789807
0,0449915025935033
0,023332383411319
0,0570635499650562
0,0418027287880278
0,0429777046486303
0,0341959057823729
0,0486730885998586
0,0342342813794618
0,0447493162336381
0,0326750613625295
0,0470289702270053
0,0305585266428481
0,0445004272492456
0,0292103535738656
0,0527352131159281
0,0137811018681017
0,0662049738693338
0,04632726342972
0,0620233109724246
0,0616858827253413
0,0290193163954403
0,0615098487479599
0,0568990441062947
0,0424055286242533
0,044307198315502
0,0292823107191976
0,0410677058054822
0,031461310601313
0,0374552077524059
0,0260494644752136
0,0704204045156722
0,0391440390800814
0,0439703374287972
0,0319537663232906
0,0305366342778607
0,011777162662515
0,0832933161703032
0,0322826312120753
0,0469466556325721
0,0423012482261679
0,035977482928571
0,0414891536990325
0,0719777341887669
0,0343389286699262
0,0515411653945136
0,0348705417657386
0,0349018745094264
0,011281048440884
0,0578435481851596
0,0493368028613642
0,036052224976547
0,0222866774040188
0,0356393003587275
0,0691426888088997
0,0621331052455479
0,0318847944179526
0,0371943913158207
0,0131497159092096
0,0661510793546965
0,0477015297582318
0,0358785520627016
0,0403872783994145
0,0628951517632964
0,0277762115002368
0,0394006313856595
0,0278880239138392
0,0495497953516138
0,0396446700722787
0,018794006542379
-0,00430785454202076
0,117137655202956
0,0127572322022311
0,0901751280279359
0,0396632392827411
0,0420201935970508
0,038819295723671
0,0397714982275824
0,0375017686232671
0,0356761133277255
0,0346392968990918
0,0277366366229583
0,0574714845714526
0,0413174739724024
0,0177630570182744
0,0594812498498718
0,0460141452609217
0,0222995238455325
0,0689154484431583
0,0680826316162928
0,00574165894133037
0,06516068689373
0,049787997850782
0,0360191758253393
0,0282751691415446
0,0674707369135249
0,040896975639895
0,0411046125188209
0,0259945207503923
0,0440439240276998
0,0403819635872902
0,0464659296407724
0,0317657902261565
0,0451627242583397
0,011037576643359
0,0379381897312691
0,0526079162706764
0,0685655512782451
0,0366625448572241
0,0467938237199366
0,00473133452812811
0,0414258258365337
0,0722637364268177
0,0408739609647805
0,0324356356562582
0,0386067432695219
0,0329185278547701
0,0424163530595721
0,0289794010064611
0,0377270354056146
0,00679822045440528
0,0554697860823819
0,0548883891055275
0,0439801000220233
0,0311615651922247
0,0284621639948259
0,0198533140936477
0,0535812179725204
0,0700845121119048
0,0408463485586931
0,043482910650829
0,035682352999209
0,0429979080375938
0,0581757476415784
0,0433247305477824
0,0460323811580572
0,0343517620494497
0,0377415838088367
0,0279055860291284
0,0344191124626612
0,0384766122252833
0,0391111584468736
0,0337736667883617
0,0416237922097986
0,0346876116603901
0,0504480542282876
0,0422840476529138
0,0406880029257304
0,0347355301498101
0,0356229056806937
0,021835624945152
0,0593533321495153
0,0370787470643184
0,0481744363723739
0,0343873828131707
0,0417346574155213
0,0379769220279474
0,046729765601933
0,0314186853614866
0,039417527321821
0,0176130052405928
0,0610975273256339
0,0505741018428561
0,0405293758109896
0,0337575783504742
0,0387476281517458
0,0580793154802381
0,0375400044457771
0,0388942224755925
0,039031694618005
0,0331491973177109
0,029429550912483
0,0579174159131597
0,0505798305857313
0,0299860300948098
0,0474263941465272
0,0524417861011481
0,0374412482639589
0,0416652991342944
0,0155940944262909
0,0724711938061793
0,06290395954721
-0,00795039876920524
0,0809972114234522
0,066100171562145
0,0478859667820315
0,0414050377953715
-0,00746210967205012
0,0772916445229793
0,101174037083443
0,0421323480552671
0,048809489765194
0,0517732164753562
0,0480818172604606
0,0329330169570818
0,0512546125125715
0,0257422995298672
0,0547993287454848
0,0544116625199564
0,097019131011474
0,035475161446721
0,0407255799821416
0,074635100433823
0,0403485312003077
0,0436403605236095
0,038637008062537
0,0400754391895248
0,0494795234534718
0,0619252762297318
0,0519658000872372
0,0534604317096577
0,0423141581337567
0,0557133086248726
0,0539266006913371
0,0436444736801403
0,0487680484074424
0,0569978829550287
0,0515520097681213
0,0464924290222418
0,0498036963822339
0,0488371831773132
0,0501307601195204
0,0147431726574858
0,0816691197543948
0,0625572132835777
0,037434849297996
0,0685466352133061
0,0595110039067583
0,046346917092459
0,049662021273215
0,0448928289404697
0,0460587237266664
0,0457962521280689
0,0432013286924033
0,0567878599383027
0,0674724104640688
0,0414196606178534
0,0495522098444908
0,0439571306639925
0,0612492761218121
0,0504943282545326
0,0539312462755992
0,0465184601680627
0,0583775923409962
0,0450164867038214
0,0690674147726115
0,0781715822607485
0,0413850486234334
0,0422436985633092
0,0953779760045925
0,0574954218686198
0,0664603903185758
0,0552620902767891
0,0629115674127561
0,0556629597212975
0,0612089031203901
0,0545775564362734
0,0625254529081625
0,0689699559105074
0,0773781629102064
0,0532608492664095
0,0571091974722146
0,0687160017066459
0,123297981004493
0,0842600806310491
0,0744406743133327
0,0569865110997778
0,0660610422466755
0,100644135606015
0,0891196507051739
0,101637761210042
0,0819720775248675
0,0739149839295079
0,0863672425430771
0,082134183132387
0,0868243705917245
0,0815468816647982
0,0927736718489455
0,0855085802939003
0,0927098276045673
0,0908333386650486
0,0927238552019798
0,0799873049965852
0,126547100938731
0,104080755744071
0,105664441778163
0,105800666914684
0,0966791028992574
0,0994517477482526
0,133625012675864
0,108838052071519
0,142158557892877
0,104530473593585
0,158004260540743
0,114211249955097
0,120424075505115
0,111319923725207
0,122058092195406
0,127632966623088
0,126104052077336
0,119315689665362
0,130909289904632
0,117205506358992
0,138057759926327
0,127617422217988
0,141168189970486
0,127221159614989
0,152556828155323
0,149306142738861
0,146235186294512
0,137836336972594
0,142172416179335
0,17792870766787
0,204151321426631
0,170283007000676
0,160089527889881
0,162284087461836
0,15815134839257
0,168547509575688
0,164687149551778
0,165491414636365
0,174584352858577
0,181440197732108
0,202479538237964
0,18877228114681
0,198451517272233
0,171898981578538
0,193505139508056
0,191720117209005
0,185887117851724
0,206421128264394
0,216328987109858
0,186717140897125
0,216567101815887
0,22365765854736
0,204315557014671
0,225385796515652
0,227126021143822
0,216216175042682
0,22769833516725
0,220261870462883
0,226689712090087
0,234432298088736
0,243837005362162
0,234199035840348
0,252116494402912
0,243954919479074
0,248128962315572
0,243377793726867
0,269892780723235
0,245933814281385
0,26847918692161
0,258450446624143
0,263604034092195
0,259360281628215
0,285987476774895
0,276012157189437
0,279611882189775
0,297327690456913
0,296569139972402
0,293582309324105
0,295876481560167
0,289164770085727
0,300478162097095
0,294473692779938
0,316972330957666
0,302218599460444
0,324598469736324
0,317535569849399
0,331612545821676
0,317394287479597
0,329883267102715
0,320169597722556
0,332789134219472
0,324695666800639
0,343972443286781
0,329910600791531
0,357147102468746
0,352563101001878
0,36015129843469
0,390341870862444
0,366727817129984
0,355321538290675
0,378530072472625
0,369347265726439
0,381462933995542
0,3862355897953
0,397564943633122
0,394997624744994
0,402774406609965
0,394952288915816
0,405479237966436
0,410156984239442
0,430820663448665
0,40626463747679
0,426770932431448
0,421650771112419
0,433698392505728
0,434766313807373
0,43950586769214
0,430139254809462
0,439195916086476
0,452365178487785
0,46044007757966
0,445790319220696
0,479412905344526
0,457767628939237
0,486581472978451
0,477392715872198
0,487317389584117
0,469269027975242
0,487088659742522
0,488361876920434
0,520242610121005
0,492150076030046
0,490416184096361
0,492813835520042
0,525758454812676
0,520302604444935
0,542275047566023
0,521627191788948
0,537371925396678
0,528264558781742
0,547926981785839
0,532301887865865
0,528650397986523
0,556141405848622
0,575586914722761
0,542204145977458
0,560084652075299
0,560552600767512
0,567906595004504
0,569196716574909
0,609681668287716
0,565539009994632
0,589205916473313
0,594299645656267
0,602084146940111
0,610781431767004
0,64080174408131
0,609208778423306
0,654590940246987
0,62690831098359
0,628343426687427
0,611256384960448
0,651923806461099
0,633730064811342
0,647789197686592
0,629924821778838
0,668839572888728
0,666729911296427
0,66097545699746
0,650013341751388
0,676857872890544
0,667026446262275
0,6872177327458
0,700387226739108
0,718851941242971
0,684299172707684
0,690292034934969
0,698608067624686
0,72436836751143
0,707937316477993
0,728636366572926
0,741467124387136
0,74405709833499
0,696013443549999
0,737946603713378
0,72103921508278
0,737445753577003
0,733176359167373
0,739818362620041
0,722753143117647
0,782485442234364
0,736259872198423
0,769747383248753
0,773452436307204
0,794442556962598
0,786474384724033
0,801009289761054
0,794673366417258
0,803915589130485
0,746954937794599
0,807742437510526
0,79344434740796
0,814100055931777
0,807082017215277
0,812176297186087
0,82932786971405
0,860833018228831
0,798492186908079
0,853249374651578
0,846974789709323
0,88831189830712
0,839739934531869
0,892017462521705
0,878363066018605
0,878888516064944
0,881946826312591
0,939666225062522
0,933575730683623
0,899691893359903
0,852385771593745
0,921902881643199
0,88780753343779
0,935742084749102
0,85313258018
0,908412636451318
0,929182080455447
0,919264127640598
0,899051733957712
0,892078260684594
0,910694405324334
0,919757792866839
0,932505004064236
0,985248423655289
0,870636026790139
0,923518900649752
0,942226788638939
0,972622230990202
0,933787934875579
0,982609088944825
0,975296922172801
0,997893065603935
0,974419431678148
0,980221656776365
0,993243258947434
1,00381882128409
0,979261244558556
1,03212364870474
0,976683672851556
0,987432953446699
0,989591256927922
1,0679536697363
1,04396659666011
1,03753308136651
1,03121697287415
1,0594729249129
1,04827072116201
1,06484276054755
1,00258644912654
1,03286144812676
1,02791179857523
1,05862144128958
1,04675083260494
1,14691334692872
1,11521460517603
1,04650291309511
1,05522551139296
1,05700449018892
1,03927672242623
1,10719548672491
1,06831539974856
1,1468137255534
1,03729157880213
1,10177448452269
1,06028665658201
1,06634802292662
1,07298869592536
1,12366830379685
1,0790878068443
1,16919466883542
1,14774050788102
1,09326587879449
1,1474926038074
1,13686470058804
1,06844206589057
1,1108422679663
1,08985324590408
1,20728010547857
1,20732302723004
1,20648807386297
1,14042460034026
1,15036891340776
1,15464745028611
1,18142863283729
1,16742205609906
1,20924656847532
1,14351498949564
1,2272491085145
1,11493564628163
1,17441875180394
1,20771169171683
1,14665072034708
1,1524360876357
1,2186077489967
1,18236540320082
1,23199742632976
1,17998755190808
1,1807584417885
1,18941345995064
1,27311496308266
1,14495312652193
1,16681412986615
1,16648937888825
1,25912845837338
1,23240991418397
1,22659882361014
1,23777676034373
1,34238245754815
1,14513713614682
1,15260193431302
1,16667973785475
1,26702255603042
1,20190630103297
1,29771018526498
1,26243927273975
1,27654190532976
1,25099468268457
1,20384555095136
1,1698101967116
1,22156164541309
1,20009693560638
1,34064119503827
1,25461875507516
1,24626492057649
1,18273088300248
1,21451557968206
1,20309438596213
1,18623469568367
1,20241934579199
1,28201215432503
1,24136818840782
1,25569092012745
1,19196094321672
1,25302919903794
1,28632846101799
1,30773773641674
1,19368834842484
1,29375156722559
1,21026141496936
1,2584704640022
1,23326221025648
1,21258212536668
1,2200015024305
1,2381433190111
1,21838540130071
1,30411678742859
1,24278251890656
1,31465751841476
1,29974059849199
1,32395125494526
1,23995699378331
1,24569657203162
1,28224729571913
1,27290706117774
1,26487854405126
1,32106048930326
1,32526327398082
1,33807516138796
1,29246020668612
1,3014444935649
1,23378766736596
1,28330823520484
1,22285202237228
1,27994560001936
1,26508534007226
1,23221016189563
1,19150153228956
1,30000003500223
1,26576855980766
1,28773053271732
1,25680389347355
1,31575989354137
1,22082927828434
1,2769619360589
1,27975196895752
1,26387411880609
1,27101290389654
1,30529521415093
1,21703338086631
1,25833385322395
1,28174435471092
1,28604680271205
1,24163229390197
1,34084052455635
1,29201181232929
1,29689815407278
1,2817454902572
1,27421027689547
1,23537660611348
1,28077131292779
1,2836821794512
1,31522196109922
1,23795679866967
1,22520032119995
1,2927505897553
1,32380080970551
1,2649779610431
1,29320700041229
1,2264572378163
1,23547038167729
1,18619349868724
1,28760765006111
1,2571274411301
1,29374301392251
1,28112565906124
1,28166323441218
1,23946536739379
1,31886725827129
1,23844992257002
1,21822909654647
1,25191375047072
1,33044460426474
1,22023710910967
1,22306001000548
1,22191350528891
1,26305471233187
1,23185961139314
1,29375722287155
1,24446576424235
1,23741013072797
1,24116722297529
1,28742865140668
1,19066723623664
1,22416775415813
1,26850090928471
1,30159597644183
1,22003934722539
1,20542844012282
1,21575394939276
1,24767091884248
1,20540108257384
1,26475076863772
1,20604548483428
1,2202916821512
1,2386250281047
1,28057259626262
1,20219090464652
1,19030478690622
1,16023652150802
1,24393042980456
1,19261655023308
1,2162552174184
1,18549510918802
1,22104818474121
1,15346593787128
1,20058026591299
1,18540100813035
1,16564316786727
1,15622519401317
1,18380767770449
1,17681695615142
1,22951375580335
1,19253379156815
1,1305305401811
1,149257439051
1,22228192814094
1,14785621513049
1,15474834927193
1,18092840767255
1,21403920519048
1,14568772779516
1,14056500780237
1,13207038691182
1,16998825858671
1,12067863788624
1,11906474719147
1,11339801128883
1,13282356208713
1,11196211074808
1,14272281761669
1,11305777699288
1,14414821645586
1,12940253190529
1,09122017867439
1,09163114921568
1,12060639965183
1,10882480114332
1,12233215386271
1,05721192148436
1,13231895265686
1,10722463534127
1,10330716738209
1,06318661354428
1,07728079318179
1,07065269604412
1,07430046639198
1,04685007614553
1,07437184331629
1,08802695570083
1,06462048579549
1,01852418679787
1,06672628071951
1,02746005786265
1,04784746015699
1,03105015780583
1,05595972904694
1,0127131605083
1,01793855361833
1,01878283541753
1,01306531803664
0,996049479354632
1,04078742102033
1,00269346768838
1,00345499903358
0,976953415055042
0,990701127896577
0,955500445997776
0,999874829045306
0,986177040118673
0,973613826674038
0,945305331186728
0,963794183815254
0,947246297779184
0,976049859337126
0,938570846006732
0,970325803594795
0,958490443094357
0,956717373983869
0,948537391521897
0,94688767985659
0,916340673295897
0,935614511652731
0,923169862047638
0,910973002843412
0,893157127411884
0,901899645589984
0,892080497623841
0,905174982305555
0,888168106952581
0,882737031096007
0,897475445244473
0,885457297563098
0,869279151969541
0,883726881692581
0,858869667941901
0,862704966335654
0,866615423300894
0,881782226208789
0,849972398445935
0,841958777222594
0,830982440673186
0,848132195435091
0,825535191644748
0,825184147158196
0,819828234272146
0,823190586634052
0,80917617944317
0,81104760405258
0,802216010121946
0,825027493386981
0,80987926661286
0,804058167968645
0,814442011518333
0,80423170144224
0,780167503395421
0,799517840152571
0,769612094431526
0,779776289793459
0,762177183481069
0,757579904548296
0,743991259778572
0,770656077024268
0,74340757833702
0,748145543966899
0,740552775366695
0,73925411503057
0,726170234928224
0,738516596546573
0,730679988172286
0,737480642889091
0,713181651239309
0,726454394879917
0,709752877179129
0,712348943220883
0,703877034833864
0,71114931491526
0,699181139669508
0,711114550417207
0,68408667739071
0,689441093430555
0,676709372068028
0,685285135414634
0,673267518201241
0,670573185054387
0,667343896145574
0,666807660271322
0,647490600409745
0,666432752293992
0,662584199322339
0,663349160899218
0,648027951737536
0,649250503267112
0,645149606860372
0,644094392136767
0,638521948654116
0,637992506940329
0,630988367352462
0,632668999689683
0,62261483369688
0,633198795352095
0,617188793731636
0,62786242124304
0,606655822829317
0,612072708835837
0,592723228192432
0,613030600665468
0,600613690318077
0,59448750833715
0,591837977422997
0,5895879036926
0,578025945431691
0,590810476746154
0,574667608016203
0,580967415430775
0,571293889895089
0,571539688941531
0,559140515575891
0,566743577710216
0,561066648786489
0,562565283232001
0,55470517408593
0,559553495228269
0,559750219669994
0,549311908778736
0,539862503502795
0,54793635181386
0,539638663100306
0,544987614637674
0,528405185430816
0,535704357683603
0,531971009649601
0,530731420577088
0,517515262220813
0,528518840776102
0,510915831378951
0,513552655252797
0,510457751567848
0,510111712017367
0,500792821978243
0,500371667783976
0,490048092442202
0,49884023952286
0,490402814890862
0,490677650906613
0,485096678116071
0,483586924104697
0,467330997292791
0,47958886970986
0,472004558568075
0,475616514363687
0,46408630083983
0,471581915336363
0,458654722175939
0,467749753301734
0,454439735639231
0,457229696037381
0,451348487041013
0,459529979943943
0,439612287852324
0,448190146132267
0,449087271346155
0,446629130499311
0,433807219525402
0,441592960237141
0,432284419354416
0,435926186430583
0,428964108046416
0,434494265202497
0,419487794839714
0,414959242268529
0,415879412663941
0,418877005541146
0,404255868160375
0,418765269416346
0,413336931102362
0,41406374406882
0,407240220031915
0,402944599090366
0,399411973601735
0,410300804764379
0,402293510322758
0,403555579723323
0,395977166925348
0,398396938910118
0,386788697235377
0,393559937520529
0,391348880463761
0,392242761156675
0,383481061031574
0,388433132184096
0,378987380489513
0,387163910973258
0,37931074146131
0,38599953777182
0,377826524033954
0,381338155462869
0,377369416620608
0,38612868777326
0,374739909637079
0,373354922243298
0,369613862463702
0,376899845896625
0,37621782054762
0,381814358427295
0,37019475135725
0,38038596326573
0,37251467106003
0,377885028346929
0,372285839702089
0,381111267687374
0,371549075957509
0,383491555870938
0,377996757893969
0,381409190764034
0,376049169825126
0,386020304960412
0,378028263537366
0,388122467766395
0,38015630941848
0,382127617559753
0,382519153196718
0,38899269410371
0,381383944882324
0,396386493499381
0,397729195020899
0,400550889868217
0,396371130295218
0,400304808230265
0,392791724863551
0,40240104565395
0,400925717854867
0,401083752019391
0,402536836525233
0,408449530669695
0,402521035123618
0,415391741245701
0,416764260357306
0,421810803165548
0,416615272812321
0,426546215865372
0,429171637538465
0,431579081560044
0,426975939629943
0,437491446191474
0,42648433232894
0,44022823444131
0,436352718385055
0,44242123516453
0,444893781641806
0,453280455350363
0,445307913677135
0,455992012192021
0,460381549651001
0,464070209551907
0,457938755182869
0,474392003890048
0,480299695731895
0,482663565417996
0,476138444473469
0,493256590096335
0,489451032440431
0,500399581493575
0,49311671559696
0,498881803883367
0,500112759458074
0,503985042297618
0,498595882211307
0,517719773676488
0,51034443651995
0,512740121418295
0,509482269044013
0,51849441112271
0,510640291592796
0,519700007711485
0,506392048367295
0,520990211165166
0,516413054076963
0,511707120834276
0,515977516309041
0,513523782169557
0,503096584736044
0,512227153578965
0,504180326173499
0,518239406826152
0,505401988140879
0,508495447050426
0,505064209393364
0,509127972897635
0,505347806283502
0,507714362893563
0,496944295798486
0,505911793479114
0,500489227846274
0,506970684659792
0,502356073897307
0,503082126292627
0,494439552716388
0,500402909281132
0,498446536961354
0,498749157443769
0,50500687513199
0,500273144244102
0,494576051423481
0,50326482697773
0,499178681792813
0,50496630213696
0,493417289503198
0,502957090413372
0,496503181139542
0,492263753311069
0,496040392540557
0,502211077535932
0,498702826816047
0,503405195884497
0,492601190088107
0,495236729274096
0,489262847531985
0,501719034642119
0,489030909774824
0,492781343815159
0,4943010405685
0,498298991188151
0,492054930388138
0,499937967124055
0,485338112954907
0,49080781938591
0,483128100703537
0,487963563493971
0,477979386925843
0,483342449906323
0,476149220802481
0,476075846763238
0,476736511078682
0,476150950132581
0,468770059150964
0,468728528710594
0,466610105522496
0,466961826891246
0,450371758966629
0,458880857771281
0,449067328588129
0,444185504970793
0,444249263990314
0,44056116952621
0,436999632959545
0,43985671706495
0,428173768954516
0,430889538622751
0,417846092176826
0,430571015546612
0,412056824316916
0,42103071749204
0,413508049209164
0,411379837449841
0,402098683031743
0,408354158806149
0,39731361890052
0,394250710980167
0,386042311579546
0,394547670309971
0,383765652113898
0,386048515466831
0,376652937694707
0,372362513457157
0,371826581315244
0,379629010354994
0,366793718197569
0,367639397482368
0,361453339595642
0,365706023926084
0,355023454725468
0,363943002785232
0,354988136922436
0,353051172155986
0,345868488239871
0,351889097307581
0,350486058754738
0,350774924905336
0,33517432032486
0,342680919170887
0,340711555902719
0,342091260380045
0,33705159410342
0,338834246824664
0,324987715956712
0,330852348742269
0,328373430468379
0,327270518864185
0,324213925094594
0,325438310854219
0,31906993317578
0,324219605943624
0,320260481116192
0,319699237849374
0,311910730529463
0,320403874951136
0,309342416697107
0,308627308430894
0,303011608518737
0,311349401528667
0,307850876358327
0,310006363903855
0,297528495997504
0,302786571957808
0,302352675214831
0,300117419234697
0,296284942694861
0,298443287425331
0,289231170550627
0,297699034283691
0,292287913407218
0,295318192206603
0,288919710442061
0,291952470368186
0,285140010546907
0,288586426229561
0,28057092125951
0,283236854837161
0,283621007608383
0,282554237173244
0,27842880585934
0,283096882346125
0,274409145316202
0,278583584795425
0,273326511984806
0,271630171906505
0,270803677630867
0,278722275367973
0,268407658593173
0,266845118790664
0,268112365721021
0,272823626931905
0,262287786950832
0,266127846259947
0,267497223587157
0,269074642777051
0,259793943175713
0,26419916341777
0,264906622731098
0,267155073941905
0,256231421125368
0,262576206172981
0,258851310267233
0,260759061851509
0,255331065920539
0,263314277810743
0,252643771516241
0,257283694510137
0,257025890338107
0,256432880379671
0,253445047309396
0,254993316398443
0,252441686619893
0,253685396908664
0,246885218035414
0,252234429523068
0,248181435579175
0,247174236957536
0,244790635822736
0,249173951018997
0,242678803134712
0,249465827420942
0,245215339739964
0,241206168032147
0,236835192896639
0,251527489732582
0,244772472324621
0,238999476916551
0,239384104166337
0,243106369351121
0,238837758845111
0,240462436658734
0,239746407879923
0,241177016694898
0,233875816015682
0,242088100457317
0,236569497893109
0,237163608839086
0,230903284635083
0,235814496275278
0,231875698312301
0,234931466287475
0,231683405405695
0,233787934195903
0,231467413149992
0,235678712364074
0,235336456769899
0,235855577955604
0,232825805654332
0,231560495193305
0,229040420121988
0,234295608382218
0,230296890927839
0,234130550524435
0,225814834408057
0,228499944897191
0,224839137539275
0,228282984413012
0,226906637562446
0,230596328647034
0,224329076872491
0,227847138230677
0,224757907968476
0,224549720447455
0,219414918279101
0,224939730858155
0,21897400274378
0,22257272460936
0,223883688386307
0,22451817195467
0,216691027572076
0,220287392299522
0,218763502494324
0,223104400186312
0,219226495719634
0,219289697680556
0,215301755612087
0,22186181828846
0,215897548589803
0,212951155448235
0,213164292774818
0,216873187914885
0,207679011733532
0,212825340686405
0,209326804518861
0,211498590338119
0,21186160304172
0,213125202697142
0,207662700208949
0,207963766577623
0,200075270828109
0,201488912439207
0,204628906271919
0,206730752943463
0,205278513919225
0,205863653085787
0,19867223332104
0,203782962627707
0,198959369146174
0,202823038488853
0,197610356782048
0,202265283649781
0,195995573140561
0,196529252839002
0,194795519214937
0,195938104406473
0,197353974788825
0,200239553289701
0,196907624617211
0,194952478087223
0,192025176626289
0,195223301689399
0,19284077057035
0,191817408313889
0,190397384132194
0,192035520255481
0,185484414590904
0,192692409208033
0,185286848767521
0,190573925498921
0,183778819676536
0,188050667217885
0,186571044152051
0,184540114947744
0,181626925887258
0,182633045847561
0,180601172502892
0,181404233378894
0,177691844353707
0,181127305922257
0,176136490872272
0,176875458000088
0,176863970256623
0,17720842186124
0,170203272981755
0,173669911701195
0,172211710727795
0,174906796039083
0,169325719459514
0,169699084385776
0,165568700579169
0,170186886638582
0,16875083804135
0,169117518100593
0,164367581056915
0,167869948316896
0,165736966662068
0,164963033188496
0,15876680155656
0,160367115501093
0,158409030832648
0,163578367585706
0,158580670257581
0,155567486961315
0,155813090999357
0,159342245264745
0,154541793392111
0,158511950291246
0,155926408298034
0,154550081868553
0,150891536784642
0,155115144321617
0,147891360576273
0,15170426869742
0,146378368226144
0,154240995059387
0,150444913719305
0,149376866182867
0,147002408663669
0,149610052663693
0,143313181546918
0,148403801023636
0,144864771757133
0,145297936256341
0,14352798862274
0,14482574771756
0,142818955614086
0,144077652274934
0,141968421401632
0,14389294617427
0,140637210721043
0,142908353127701
0,141875213028645
0,141575070926593
0,138403533552442
0,140693588073538
0,139894431223953
0,140730727257162
0,137132471050384
0,139775847491257
0,136486683057689
0,138552434020171
0,133206623884397
0,13614735705671
0,131356393219852
0,133668228598642
0,134168477339337
0,134694693599251
0,131586595576294
0,134217101254182
0,130789213047903
0,13209378030262
0,131379677726141
0,132254824785175
0,130593021305725
0,133265597059898
0,126032223461125
0,129691869419571
0,129942362048886
0,131076756908945
0,126373219264735
0,127120377932975
0,126798691027185
0,128224581533982
0,12360658526116
0,130591345709202
0,128688863830696
0,125136515116063
0,12291162807689
0,12754926478673
0,123532362731372
0,123191788235531
0,122802022051516
0,126443390714633
0,12478791607531
0,120523531114981
0,121577142416012
0,126214665094093
0,123208487001422
0,122677676457978
0,120619234362315
0,124900235278603
0,121644864691145
0,122662682124162
0,121230506405315
0,122003324677365
0,119805393265614
0,12223662368868
0,119847266238
0,122659772520318
0,117838440249096
0,122228332374189
0,119183266588814
0,122673910231666
0,117468657832296
0,118621141742809
0,118431819183401
0,120070933554218
0,117561796319894
0,120720497904932
0,119064065450529
0,119244384683552
0,113977128521627
0,117915889287867
0,113459080185654
0,11767268427184
0,115774821795549
0,117299782103921
0,114725917991852
0,114849131356956
0,113723496082178
0,114299008893957
0,112735398141553
0,112724954671571
0,109768495248301
0,112942841267285
0,111554929748837
0,112271926022655
0,110168879385161
0,111894766242382
0,107825268815619
0,112827185523277
0,111676162567744
0,111172987525575
0,108652742252922
0,110402336163849
0,111186374584628
0,110801685818109
0,106306441253483
0,109410692131479
0,104124403290961
0,107886870675998
0,107698785766904
0,111801198625328
0,107328841421403
0,10702252496458
0,104690904588412
0,108419861865035
0,105324169303416
0,10764371889463
0,106226693349229
0,106670517276698
0,104181342903705
0,108525028535146
0,106367179409229
0,107301492305865
0,105871899251323
0,106797917718293
0,105439386790061
0,106063048428443
0,100789237263361
0,106370823270581
0,104121402032775
0,104117068354822
0,0996379580163113
0,103480573159062
0,10114092709648
0,101678349085756
0,0995411581828151
0,103768269543405
0,0989708760360929
0,099463037727993
0,099534903712818
0,103636959755336
0,0980286832011617
0,098355578223967
0,0975226410875399
0,102005547669374
0,0980706614132757
0,0964850936339871
0,0946772706476763
0,0986848381347996
0,0938514119279558
0,0971634848309267
0,0948125963101453
0,0956944252945569
0,0945358993890327
0,0942226078729269
0,090351262032878
0,0946823234730991
0,0919722616792642
0,0928356912192301
0,0882582267450595
0,0909865283546434
0,0887981691079362
0,0916630398318832
0,0875710245493703
0,0917199413123604
0,0908996774331123
0,0884656819383129
0,0873919829031493
0,0901675390558656
0,086270985632201
0,0869433753065407
0,0858192350762958
0,0875639566386958
0,0859476460895683
0,0889266293143779
0,0838864844994033
0,0850689756661736
0,0833838749469287
0,0855920375452176
0,0837432402972371
0,0840836253294663
0,0841640675413307
0,0872435247535637
0,0819561909413537
0,0847890211073798
0,0829653224164617
0,0820178792384999
0,081867016811648
0,0854699071000967
0,079829476158364
0,0822437985606283
0,0812705822512126
0,0792844577385503
0,077723945384963
0,0808269693218122
0,0766328410341564
0,0806327127750984
0,0793821325507371
0,0810384916405608
0,0780943092024421
0,078479307438955
0,0762659962412138
0,0792202147073996
0,0764899849638425
0,0813753318147089
0,0786340686092123
0,078152121203959
0,0743497210232921
0,0758918321150643
0,0736901625760054
0,0756226212378384
0,0734411163481137
0,0770035135098245
0,0754549563556318
0,0766117712005984
0,0742374579096838
0,075912827390129
0,0723714364412633
0,0744119887488482
0,0689893658240423
0,0699796511612797
0,0722227921997062
0,0747015576415001
0,0699116206860172
0,0705584765867107
0,0711785521918503
0,0694502420033794
0,0689194027668987
0,0721091718476092
0,0702002511300544
0,0689980254756268
0,070087097098988
0,0721397220595616
0,0673570452713884
0,0715271251912086
0,0701811389849548
0,0712967158327425
0,0705039816633096
0,0710348685339452
0,068716370557738
0,068948699891805
0,0660554763991666
0,0685738078546678
0,0707261586697465
0,071343927454257
0,0673589401954718
0,0701669105646684
0,0679764991486319
0,0704364127713473
0,067981254222342
0,0673864803006677
0,0648782226359387
0,0680045095085358
0,0669118077709679
0,0690017802928627
0,0674963153654751
0,0674251722359998
0,0617176518490826
0,0657665725946679
0,0604986372096186
0,0654965174279373
0,0708163827936357
0,0755631441647554
0,065539072226918
0,0631432081073113
0,0672972983264261
0,0675557358476987
0,0614732696317847
0,0643456668554686
0,0659837521078588
0,063145978237289
0,0611106794458731
0,0711218419440336
0,0639366061941028
0,0707953323918513
0,0649467321336627
0,0669457779275668
0,0621597880281699
0,0685484639719962
0,0662855169493812
0,0679162245057754
0,0629123198416171
0,0653135685607255
0,0643010255396468
0,0657231043249894
0,064475479891473
0,0657957883028242
0,0666790117067545
0,0676441131659396
0,0657668225535469
0,0673584816449989
0,0672114207442515
0,0647948605254526
0,0646698581587099
0,0559846180137233
0,0608959974024167
0,0569527118950922
0,0642831767055066
0,061435529527033
0,0764791517404308
0,057299704718776
0,0711683666614081
0,0499070736782279
0,0671475661383697
0,0585533008112507
0,0832475717279575
0,0523935826331159
0,0700062547680982
0,0449546469185866
0,0849255258522075
0,0506904242286557
0,0777271587360635
0,0475482614025558
0,0822523304572225
0,0535551447029249
0,0699873606373226
0,0548956547138514
0,0739077132491174
0,0586896620549008
0,0653783383714634
0,0684002488173184
0,0599679066348706
0,068515725258149
0,0591372460065278
0,0678843083534694
0,0601183092164957
0,0672053483808064
0,059877763446756
0,0629182313904955
0,0634053302315812
0,0617569831357272
0,0623533424166491
0,0619470873843968
0,0598347522846004
0,0607118647028347
0,0621324761046691
0,0635802166763923
0,060557358349899
0,062180538300798
0,0619448886309238
0,0614764579802593
0,0608052020420886
0,0607935533534971
0,0603182136179722
0,0621961803382132
0,0619742552963358
0,0614169943417691
0,0619818565133725
0,0607324390089085
0,0596702394595019
0,0627950984508846
0,0623466573997282
0,0635226806375185
0,0594430837705167
0,0620867909284205
0,0596413183840071
0,0593473485075912
0,0600611486403159
0,0628724861665687
0,0628858816684967
0,0629911857121817
0,0596167687799792
0,0636748166871773
0,0590468933288451
0,0618074258150371
0,0624645786428995
0,0653379680738701
0,0628735253730263
0,0646073687562968
0,0632097714550301
0,0632814507876544
0,064683354385122
0,0641316333222724
0,0637561084499729
0,0642204121460926
0,0627406018034354
0,0632124177740034
0,0617063076778661
0,0636934009189018
0,0619181233163994
0,0647618575330128
0,0636767015614576
0,0607360200110398
0,0619694657479156
0,0637505529068256
0,0627718459737566
0,0666881278921815
0,0636138784357513
0,0644649163046497
0,0632620264568092
0,0626716973598361
0,061180503876979
0,0639343211064479
0,0643325767276096
0,0647219752821468
0,0633862385475185
0,0640242227501957
0,062516986687446
0,0660716137569449
0,0632230283526638
0,0653572675976079
0,0620028573718905
0,0640829538411607
0,0622550888363067
0,0641736101198416
0,063098845207191
0,0651469391394029
0,0636396650118029
0,0653852948870013
0,0627458261106306
0,0644816977192615
0,0641568817916332
0,0650998551652808
0,0658361986821334
0,0671642727853142
0,0640667829717252
0,0670462871079199
0,0654590176428361
0,0642989914576378
0,0629157214806614
0,0647046646277513
0,0649083786043642
0,0663025491435941
0,0637583991409545
0,0663941676034633
0,0659342465077418
0,068787871668725
0,0676647461233174
0,0690696527314549
0,0662453312609073
0,0670638264792797
0,0674031416334879
0,0667842244571826
0,0675843954725888
0,0683214275647224
0,0673933640990048
0,0680485206474237
0,0654096278075365
0,0703365493202407
0,0712805763248123
0,0702977922081511
0,0695640815590429
0,0700910610393255
0,0688638899730605
0,0700899161275406
0,0692284618989494
0,0681425611109888
0,0668848164682829
0,0692509445939828
0,0665740293570839
0,069675735732066
0,0692603444711218
0,0696818045119621
0,0679040830402206
0,0695836065463699
0,0699779000357948
0,0697980895435948
0,0707140847635268
0,072469292686471
0,0677029064243716
0,0704514403907853
0,0702837267867957
0,0707047536923913
0,0699369466915191
0,0727515282312601
0,0713914316492244
0,0727645085604635
0,0699347768246706
0,0715087114833599
0,0694900122402668
0,0732085844505336
0,0720115000447629
0,0735284158031624
0,0711770170290921
0,0701974723880968
0,0688029320537487
0,0729188778695805
0,0716940485301049
0,0722100412437109
0,0727477614715247
0,0740638872881763
0,0728572264627435
0,0762921461940963
0,0750752149143571
0,0751844342595887
0,0725525916552763
0,0748561843162383
0,0743340997080543
0,0746210527420593
0,073248653696076
0,0750609018053854
0,072864212510524
0,0736393695293866
0,0758406131160427
0,0756397107349533
0,0745980696592763
0,0744713069802307
0,0732655163341988
0,0753269673326847
0,0729124892310639
0,0737111511469243
0,0734071920063458
0,0735335269984142
0,0729076261390929
0,0734703964690597
0,0725365037665899
0,074830757621805
0,0730157173007391
0,0749792020419111
0,071469174392841
0,0739985842106249
0,071218515573517
0,0727283433718896
0,0733640868092368
0,0717392662993504
0,070315139518659
0,0711941121860645
0,0695595813183206
0,0730451479165152
0,0709334574442266
0,0707545670564578
0,0700694415025903
0,0730523259544042
0,0701151604469817
0,0712683637171723
0,0689349798995964
0,071379418694302
0,0705919678702714
0,0723139158920525
0,0719724114404437
0,0704726982034242
0,0714255999046575
0,0704654645786228
0,0707237135996413
0,0712970817832032
0,0698895215899074
0,0709132509466878
0,069317966118633
0,0716943332643171
0,0707294798663619
0,0721278858871915
0,0689669695705711
0,0687037878236093
0,0678719364802207
0,0704710991353581
0,0698181693264003
0,0697443481154808
0,0694892723560588
0,0675479288503961
0,0681484437915318
0,0687142233597233
0,0671411345741691
0,0685965219490428
0,0687378615656991
0,0722871628356226
0,0683057651067912
0,0681314621781947
0,0656484646291175
0,0686380877341828
0,0687569979079955
0,0703979304877781
0,0692536082027321
0,0698001420195456
0,0668228894728711
0,0684906165369187
0,0665012241009809
0,0690450423258376
0,068257020394541
0,0680821351574612
0,065474042626247
0,0711901272220938
0,0686421461597834
0,0684280970703226
0,0695431051728493
0,0672160979027669
0,0668399162656252
0,0699601795469966
0,0675223079998665
0,0674477715168357
0,0677881266346886
0,0692647889231035
0,0665889887687733
0,0702025955234271
0,0680586331406075
0,0668513102312905
0,0665183187796462
0,0685231378735435
0,0675526987660854
0,0666727150984802
0,0668803523072498
0,0679526048301848
0,067533219344548
0,0667290319837652
0,0677479983227508
0,0686117584896982
0,0654595067296626
0,0662892206588888
0,0655048642980618
0,0658375172755019
0,0650162293697424
0,0663804212195984
0,0646400088798832
0,0661024663241267
0,0642285649410067
0,0652038007873815
0,0647417850283705
0,0653853867564744
0,0661302432661807
0,0652318623866063
0,0639969820409352
0,0638338181964767
0,0636677217809846
0,0674952562380693
0,0640303323686989
0,0640805735969558
0,0621007510411474
0,0633911907538434
0,0629180419138103
0,0628363281566166
0,064107978874843
0,0644495140367046
0,06175176873541
0,0634697504691098
0,0633372837727727
0,0603362311510153
0,0605706747187733
0,0630857005220041
0,0603738244733658
0,0599414291533992
0,0607923484323627
0,0622975186954204
0,0596544548843342
0,060848913010892
0,0605408728983836
0,0610830243724132
0,059812867277891
0,0601503279355989
0,0564552620292106
0,0616472832689777
0,0574020218561395
0,0594860196785998
0,0561758073033495
0,0586158464266346
0,0585630112618913
0,0585245893720631
0,0571267136842736
0,0581417326046253
0,0562804544826297
0,0565987885731636
0,0533602187372448
0,0560475990444563
0,0535073353993782
0,0569602020439946
0,0529984851739529
0,0559408794731925
0,0539322747661468
0,0557510447606657
0,0517517517361967
0,0548288901903116
0,0535864326188254
0,0555491136042119
0,0527555238314038
0,0566073872727034
0,0497693714861714
0,0598431415891648
0,058907449097024
0,056670800858213
0,0513205863918859
0,0539245805002035
0,0549611024809998
0,0533872050174343
0,0534831821246973
0,0543170142699542
0,0515219658550984
0,0531372349035462
0,0512358561813383
0,053135291849918
0,051830175133971
0,0516757762320241
0,0524250131451086
0,0536051570931976
0,0522419903601659
0,0546898366574273
0,0526136260101053
0,0540713902646249
0,0537146001823014
0,0533743936947814
0,0524194146036879
0,0550628165958795
0,0505509845349921
0,0521272658267329
0,0543564983690851
0,053057284632969
0,0534102857884213
0,0502462541928883
0,0514742576886238
0,0513162264112594
0,0490632009066981
0,0502419682419345
0,0479094038187054
0,0499380714549124
0,0520683730832353
0,0491519152290613
0,0490670447880207
0,0502528726588879
0,0507808367250768
0,0498525950128512
0,0502054315490428
0,0500882975298981
0,0499559091009499
0,0477834399590502
0,0496431122251818
0,0474038482629732
0,050026610578834
0,0502646727082081
0,0531863844100536
0,0461073885713203
0,0517214898340006
0,0559279984883076
0,0532114816983412
0,049671140947225
0,0481696255062165
0,0473569634958679
0,0456122574447233
0,0489196434953188
0,0464553572742043
0,0481511560836705
0,0470577522055868
0,0512702318490798
0,0451902441887003
0,0483918491915058
0,0460893431267324
0,0486276072221648
0,0470998516637608
0,0492230774506372
0,0469751714445089
0,0488730016247507
0,0458985025912485
0,0505396709418173
0,0546788956005562
0,0520133115050296
0,0509457463811556
0,0468399816070233
0,0442218630502564
0,0628672483495439
0,0478966767381333
0,0560061786309561
0,0441594789283267
0,0507735437939969
0,0444648035284223
0,0516053266184504
0,0407883169297082
0,0490566931485474
0,0478549834375136
0,0518359744477175
0,0508596351832424
0,0500519717147021
0,047347971552613
0,0467933829070971
0,0446805505573948
0,0499458798135488
0,0470794351430537
0,0488254150340639
0,0454931496623688
0,0473794648154056
0,0448546622557109
0,0494813343169533
0,0422765831276481
0,0543232148570978
0,0493952851035795
0,0497969870405215
0,04581913237961
0,051079430822483
0,0396634303821414
0,0534704774050708
0,0537792820938368
0,0516508840941554
0,0481160590124592
0,0472195212262951
0,0474353938153837
0,045420104260964
0,0474789151275796
0,0487619812733087
0,0468254916693926
0,046726482757462
0,0482001059016244
0,0478770714976536
0,0481633450871478
0,0443484029581014
0,0479324581299735
0,0474810404973577
0,0475839977898047
0,0472814187581128
0,0472691919264659
0,0469710753600925
0,0427286273927032
0,0602151983715062
0,0491628571519494
0,0594343101432968
0,0503407606168713
0,0539890216903816
0,0478599379870778
0,0501680917606894
0,0463930551386541
0,0486663092792873
0,0439618526984242
0,0485173174596021
0,0474313991189526
0,0501893750808992
0,0465902581268663
0,0490979680545972
0,0445100376170933
0,0475811752819258
0,0457825602773603
0,0500937888060247
0,0468829006733259
0,0487532882103782
0,0479316466929928
0,0456126459847796
0,0507746999594193
0,0517060630021541
0,0532919048900423
0,0368003687253897
0,064248544887932
0,052112604722027
0,0589549630647375
0,0474481234703433
0,0520741572822833
0,0490685784372553
0,047889864506977
0,0466530702423416
0,0514254328580514
0,0497244708473577
0,0481811551028857
0,0471433246707933
0,0473316823265732
0,049430105824525
0,0422447611402983
0,0565629879076851
0,0630453730434048
0,0540256614943829
0,0562391771783044
0,0411138919068419
0,0587667145378103
0,0635487683965455
0,0495213039374326
0,0526492908596764
0,0484028944627856
0,0552795670224126
0,0504827241815228
0,0515553885829365
0,0489088718522183
0,0567851568821463
0,0500676999771448
0,0548085627908687
0,0510834195240582
0,0522463056977925
0,0492348712407873
0,0490125000706158
0,0552601418355374
0,0574173933058355
0,0512672062808562
0,0562248454539902
0,0515274868736167
0,0554719027147687
0,0489297000894122
0,0563156853333566
0,0479359152828023
0,0603499704580283
0,0556465593019112
0,0556085664971257
0,0583510308174838
0,0599612920564448
0,0531626898600836
0,0567119108922825
0,0561180191040108
0,069623216472791
0,0383864692336677
0,0675880589191183
0,0552467507458137
0,0747281028954726
0,0614911341643608
0,060434934192139
0,0556432198392116
0,0578496590761859
0,054619982662305
0,0496473638062483
0,0668170197317397
0,054919018555587
0,0638009589319605
0,0479320983833947
0,0632122872122756
0,0571491173598724
0,0631795232960585
0,0558156701948297
0,0645204292495723
0,0523670788925138
0,0728983132746688
0,0528401634444293
0,0582864485554748
0,0700846758794612
0,0657058939159281
0,084088327382571
0,0585211208064376
0,0629670186220916
0,0717453140226241
0,0640414855787238
0,0693676329164489
0,0587793113259184
0,0710445339531414
0,0536344592543808
0,0661871787546333
0,0841494398248272
0,0671607698991387
0,0684765220447555
0,0640362656168239
0,0664756614666988
0,0789518003895822
0,0680234418484117
0,0688505501041564
0,0663491758632957
0,0693325217146041
0,0544622404084147
0,109008069792507
0,0651128658582229
0,0899141066647697
0,0721212864712384
0,0923713238871159
0,072883697341708
0,0828577891475366
0,0694026180819426
0,0864832221297439
0,0830541331705209
0,0839913271320721
0,0621484974034971
0,0972434271898754
0,0861600203854184
0,0874913174916784
0,0871593268537986
0,0778500616094717
0,0726877213719581
0,0943844110699324
0,107248652286326
0,114705784258493
0,0892229730220534
0,0930555045088812
0,0982764398114408
0,0948016092474221
0,0959131325782282
0,0926081263223698
0,0964281258171908
0,0936966121350173
0,0966236500141464
0,105122037534862
0,0970911318249571
0,109504065676136
0,0961313180094252
0,107213210442566
0,102018346126443
0,136706077744583
0,117103810990554
0,116793274008108
0,119793154948382
0,11812944155916
0,12671390676342
0,114753278614225
0,11735609185728
0,116728750081161
0,126328341455438
0,123690854218717
0,1187680434505
0,139399676446389
0,121299715965807
0,156808017768295
0,139313853891836
0,149605187668328
0,128022507920409
0,140691837080305
0,246910041554018
0,15686138006678
0,177467174538753
0,138215457469621
0,195366301955326
0,188163319430368
0,18966409478453
0,176195010349945
0,185281032512285
0,180770657658119
0,196873040110471
0,199680947148286
0,210970799013973
0,214564268780661
0,221180197525586
0,209324171742808
0,243465498814956
0,248841122755862
0,296304070568818
0,251232971094508
0,25916791913723
0,261913429021597
0,278937675866921
0,264901559962294
0,293054135795666
0,263817066207901
0,31487945035123
0,314436263552208
0,328529229678735
0,302820057695675
0,323291510922489
0,329435982380263
0,326377934954704
0,375427307730714
0,350037732589371
0,368937321801319
0,348001229249456
0,374567645800555
0,366840659368267
0,378333542890783
0,396797814238202
0,396553005565306
0,408703331797202
0,396430300517516
0,409001008175564
0,410025491092998
0,427227815747561
0,419414076046879
0,427367658889587
0,432893432605458
0,440514629557663
0,561500535195631
0,455853336945441
0,456710486584411
0,429654724600158
0,455730176189611
0,462134641055144
0,441463252417951
0,507444185740084
0,461866921135458
0,462271130658383
0,443134484208094
0,451388862399376
0,452708968209026
0,459189871779524
0,459053580131809
0,44160264836644
0,47554872329909
0,425804824399301
0,502463402519833
0,466122229011964
0,460567835831186
0,441705316363311
0,452543691363504
0,445089046821477
0,454973015761398
0,427526716573064
0,447023914373758
0,446844359208293
0,4441928072641
0,441351572185209
0,414156294401008
0,450451362358375
0,436888291339944
0,429450952941227
0,414733660254145
0,417732208506385
0,416228283907744
0,385302359049086
0,421259344013057
0,425462640669759
0,405803640179037
0,392875455851814
0,385016484954525
0,382780849838496
0,377369343888084
0,37268533933328
0,377373542533967
0,366699743301962
0,373381193629001
0,373635671132595
0,361983289361722
0,361828172420241
0,351183943983156
0,361284892194807
0,361753031563623
0,356480370001073
0,348402559439738
0,359470737385132
0,342896458191459
0,350441996855023
0,352519277407953
0,350423171176925
0,347324479320552
0,350473955286679
0,345254931602985
0,348597756698227
0,342193612783278
0,347907888706431
0,336036896815483
0,343144636824834
0,334920422736717
0,340987171350244
0,337415796942867
0,339013979257627
0,329799998736031
0,343409387515881
0,335493892177357
0,342104047570745
0,328283726419607
0,34078115506911
0,329575644139363
0,319326012567931
0,385906692860108
0,331314582582169
0,337692236089921
0,319557209631797
0,335425082561329
0,317131192495649
0,319364296590271
0,345750985327538
0,330874627587523
0,328938688490462
0,31583908173711
0,308332038535068
0,319250912257049
0,310158985609256
0,312766880910454
0,310897461213821
0,288174992970751
0,342480034645624
0,291291294236209
0,391339978077484
0,319000965922047
0,327208917992849
0,2760223646859
0,321737416864705
0,299085141575738
0,305508625825286
0,293007107371405
0,287619287874733
0,299422442327212
0,290247221736889
0,296125048506472
0,285018231804589
0,278030037059835
0,295203200712434
0,296071373760123
0,276931525282612
0,297073126974115
0,291110297882042
0,285903925079843
0,292349888684744
0,330635270781441
0,292255433567228
0,265577190477837
0,273676947383212
0,253528308854892
0,273714943679777
0,27115585077811
0,265469877830407
0,27009849677683
0,248014085845219
0,252726726968059
0,241152500438772
0,264057205863489
0,235639810956283
0,258956906284209
0,249347334121696
0,239186121429103
0,244297576969326
0,227825958627462
0,275038047485295
0,249285165725699
0,250352085882987
0,214683081278205
0,264163005540621
0,236213762607881
0,243512387074432
0,236140123818309
0,217295333660712
0,229429267911763
0,228907854734723
0,211271889101696
0,224065532095098
0,210443112039189
0,240336913006804
0,213987096890497
0,247546528844822
0,245685700985198
0,217032609877859
0,214321751787664
0,20709426001303
0,209772104603951
0,212014488084099
0,194334999432681
0,244095891214417
0,196268171544077
0,224401033663665
0,215553529265105
0,223832161795474
0,217702787216791
0,220972180174926
0,213999156607321
0,22133377177114
0,230129729300661
0,259469543688353
0,223975392986595
0,243625660840028
0,229725012321646
0,24945447780694
0,233824700251657
0,249195814691508
0,24134402040622
0,253245819421193
0,255259649964153
0,266550522764065
0,261745596138138
0,277067743528797
0,257593775778732
0,31294668237273
0,284243655833151
0,294190870256342
0,301269162835089
0,312812854021448
0,343914549244456
0,3247415209227
0,330746253245038
0,327706245738723
0,337874304149716
0,348318172941425
0,332114569134285
0,363561284972335
0,366689599146265
0,368843911466544
0,365726177546617
0,374818895788445
0,371293469278981
0,372947696471541
0,39712038331192
0,373528257004356
0,440839555341463
0,396932290117662
0,417363601078507
0,393557768452828
0,40141617776267
0,401086101853051
0,406054571363489
0,407902693901435
0,396596005139127
0,413457236412174
0,426444694746578
0,414786564069105
0,420709784616217
0,413301876385971
0,425027008793329
0,422959215242243
0,420443958883586
0,4325011908586
0,426978810128496
0,441728199586326
0,416264555251264
0,441984962996599
0,485793641223831
0,452902826222956
0,452414496931138
0,436420347838033
0,461042241909911
0,450538903490888
0,457443070589253
0,470306756130549
0,472048447053359
0,463781703955904
0,46627535481192
0,478765580649529
0,468667242124165
0,486673623764016
0,487574182547213
0,481909873898784
0,501487657738621
0,467438704768877
0,531734708951373
0,496484712105007
0,520790337933189
0,503082227459351
0,513188408103875
0,492906259197855
0,50106759308515
0,504035890094026
0,507688350708944
0,505854299597389
0,50655038026351
0,51224395156038
0,502848605964058
0,506986580505132
0,501114512730501
0,505512815767625
0,516802610110818
0,510619006404077
0,503715385240717
0,502198184692369
0,502162506584578
0,49211119069667
0,510744512083789
0,504568732818968
0,51145976166647
0,498894584337295
0,503704182398221
0,517525430409608
0,503196128041183
0,493657302261015
0,502932531863064
0,493404489717951
0,506874230123867
0,48849813621678
0,502564220651219
0,505250805164993
0,515288860099132
0,507355941004661
0,507697321826708
0,506503922125661
0,514590376140637
0,510778240721953
0,522679710892511
0,522812843817764
0,524601957152316
0,526538888158178
0,521873934200284
0,523170142531373
0,530699056751061
0,537523437017615
0,540067948730723
0,529815871047208
0,531655241430324
0,519326345454028
0,526292724904414
0,525519847524624
0,528952488731992
0,508316203041152
0,525068550770858
0,501388273232462
0,515923881464423
0,513236553136538
0,507466756186347
0,510415324435225
0,490389355419203
0,494646830191504
0,483943243287127
0,488630337601015
0,481350492693704
0,488575571650991
0,477677746473036
0,474182789012694
0,470437434157668
0,47500421696573
0,469471615119784
0,470370538255959
0,466423347071329
0,464144121414671
0,466544188556553
0,465811313584288
0,464994284180333
0,460516169736605
0,464227475910808
0,458655833836082
0,457289243279123
0,469674869099004
0,462486156962319
0,475420758971638
0,461413168187557
0,472214871180653
0,455901887353087
0,46232203259101
0,458134132319471
0,455517060589662
0,455785123787845
0,459203447577522
0,448909853917535
0,452154209581598
0,450268649412171
0,453375862699448
0,451752489959516
0,451973904002414
0,449288979334217
0,447933253840878
0,448022052333249
0,442016719569412
0,445625601704518
0,442924939779099
0,444490531395153
0,442616009382063
0,448417630302951
0,441174752731787
0,444437800616232
0,439140606600505
0,44248863058935
0,442259533714432
0,439320773469777
0,440125754246951
0,436989585846647
0,440063381288791
0,432758305014044
0,43665877358727
0,442439697944132
0,432702988395524
0,434937183824114
0,430710190208872
0,429853789814343
0,428795035782754
0,422386527666814
0,419111887651343
0,41984663669034
0,413036785269903
0,40947130949607
0,406255834650248
0,404155586050544
0,40070445442812
0,396219153710032
0,393469138237491
0,391571733624597
0,385948914767131
0,386168555348603
0,386669272024215
0,385615568666961
0,383080628654269
0,379676728311641
0,380075959456684
0,378599298640691
0,376284813733121
0,380944528056262
0,377689720627893
0,377432329324584
0,376034521339297
0,377174029289996
0,376565025321136
0,379239873660719
0,382647881104646
0,381876696686714
0,378405555095607
0,38111017158356
0,382252151714037
0,385836828486073
0,386386955633788
0,38974633217821
0,391909543383587
0,391863264607719
0,393832089584128
0,393624055046383
0,399616575905022
0,396482858941007
0,398205288743206
0,39422503613424
0,400820970186012
0,398265559463481
0,400682431080219
0,399497016745456
0,403696271899181
0,398228327340328
0,398965261701503
0,398048774854027
0,399707252262064
0,400426231270041
0,393532893176659
0,395900096034777
0,393159572673189
0,394884383154252
0,392651652566727
0,392047939745682
0,390420860855095
0,389512737370111
0,387850405100063
0,383868881434815
0,383438091718611
0,381423159084528
0,381106584663441
0,383685970447068
0,378816849172543
0,378313119708379
0,373690202231187
0,375004748091384
0,370931097852104
0,373379695110039
0,369891496586147
0,365533029608075
0,364971908307519
0,364846673322619
0,363044541394348
0,362226332254708
0,36050506414397
0,357222807308011
0,357630652448802
0,354588618667413
0,352297718228744
0,34892551467187
0,35013465214788
0,348623967085129
0,347612195739639
0,345901229143588
0,338415033114623
0,335809913354075
0,336171908981004
0,334152266054445
0,329874979128378
0,329091349182558
0,325886354915131
0,322043326922975
0,32026610656601
0,320232327278285
0,318521889169698
0,318452645375976
0,319401042504464
0,316359770427377
0,315005662453926
0,317758293175265
0,315469602150969
0,315117163443914
0,316516990732367
0,312376921183553
0,31202489751231
0,308255807184482
0,307652803746148
0,303363440084301
0,298955438434317
0,298874817154224
0,292461880750344
0,28733445414557
0,284380151477261
0,281455377653238
0,275291286836387
0,271015315438479
0,271204203590173
0,271953736295968
0,272153852516789
0,271367519700677
0,271847795419286
0,274736363986917
0,280240746752759
0,287510577979068
0,292317206608391
0,30031465452395
0,307448785505064
0,319356557300601
0,33254486877127
0,342891900076948
0,355148898344312
0,37126525117733
0,386354936066873
0,39981681514461
0,418837538442836
0,431257211722726
0,449213744097622
0,463308869737073
0,476650220429084
0,497257015985019
0,513122095622349
0,531023347324809
0,546944887047743
0,570343589330501
0,584134844205426
0,601059613176553
0,619671672058632
0,634739012934066
0,646198648594373
0,664251344003028
0,672074664832999
0,691341521047427
0,698650671378384
0,712683324366339
0,715334965523128
0,725821614924437
0,726454103475941
0,729224865899721
0,728637687014153
0,729212006915715
0,727394822981769
0,72745101132752
0,733693907771845
0,724256840688698
0,721731510322299
0,719090951228596
0,712813587984393
0,714099018793555
0,71495408551359
0,709105989353329
0,706485554587217
0,710905662026786
0,707913479422177
0,713788520314402
0,715731615756795
0,720608815241112
0,722620099804024
0,730691662074504
0,732334357918863
0,733922245248264
0,751207097038029
0,751731393768343
0,759963357473557
0,776003584913135
0,784921716669624
0,792607163778534
0,806975836458712
0,816935038283669
0,823453533087429
0,832329549081358
0,835508262743803
0,843376839829394
0,851613745070217
0,856714774291752
0,854297417471617
0,874679134221624
0,863063360671618
0,8681152390173
0,865343453515854
0,857784668928487
0,849533231451132
0,853288141899987
0,858356718689809
0,850795868229413
0,856147213200839
0,858865104770896
0,86461354217935
0,884691807574126
0,882386481961426
0,900529391764835
0,907365882988437
0,914483712681957
0,930716924772902
0,940135355026061
0,945719619951992
0,966497626959637
0,974584642089715
0,986961573087292
0,997801780464521
1,00568505866952
1,01695162564666
1,03109298939158
1,06125304539746
1,06286421714555
1,08124044097534
1,11159947786398
1,11866442983515
1,16792226107683
1,18717795121116
1,18946329661517
1,23917463043725
1,26367013816026
1,2564313461906
1,2755551779437
1,31538939625306
1,34676476576688
1,33821240516996
1,3449756894999
1,38255877550188
1,38176489199305
1,36826875499897
1,3784255917345
1,3770044654372
1,37789923472506
1,3769641384805
1,38856102064068
1,37354470485355
1,40224623144345
1,34020608298446
1,38773600416538
1,34922380264115
1,34699449486024
1,36233895480054
1,36465055192474
1,34052462151025
1,39826645864343
1,36741122679441
1,36088317363632
1,40519004371705
1,42072165977915
1,41101140365022
1,45650010514202
1,43522745683148
1,46613250404555
1,47402182691503
1,52983535799463
1,50446612933355
1,51282300296435
1,51928661175553
1,54093229806742
1,5733318461192
1,61366972593228
1,56975135359716
1,70354001295648
1,60193017110547
1,66764740514377
1,65664775297385
1,66820095430451
1,73898894588661
1,70842920009848
1,7412276900289
1,75528004935799
1,70742123626161
1,77708752421045
1,71240142457326
1,88547731693364
1,77816267476129
1,79468668148203
1,80743000240415
1,94238871172733
1,83274680945642
1,91418205879651
1,94529588351057
1,85454491975618
1,94002433303679
1,85922786509714
1,85076392272957
1,81737219960134
1,94411151364178
1,88779007929558
1,80377947512748
1,81820607343524
1,68033555070792
1,79678404573997
1,69028613652224
1,68061253799642
1,57574049237773
1,55182173209376
1,53302271147782
1,4683903843458
1,39954295010726
1,38417106495743
1,34199893484252
1,32756902413528
1,27716605377434
1,24794638660612
1,23064379475737
1,22461824191881
1,22133014864492
1,21879914318379
1,19757469549249
1,16461685115338
1,17717080752559
1,15319118996326
1,11670809754998
1,10533075759381
1,06222517915915
1,07054377293023
1,01294891427037
1,00078062721524
0,963395221017645
0,94101840244525
0,904109426994018
0,886671814087918
0,837699910376326
0,815580790081772
0,772036095452074
0,752554542035674
0,715027890544281
0,682459430667494
0,654488438739403
0,608913667105239
0,579473898770324
0,559277912341314
0,528171805567647
0,499502570929677
0,478868555886821
0,45070074030884
0,434302481591902
0,416171751801076
0,398952677950598
0,386003667968282
0,375768953188098
0,359343190170722
0,352095499877786
0,344033919402415
0,333234505614884
0,32675013428677
0,318657787403326
0,319710978029971
0,314277752196244
0,30896398209603
0,310365403563471
0,306725378967309
0,304821076298903
0,302872881762749
0,303784074581568
0,303347435157899
0,301057085792321
0,302110136730063
0,301926359303138
0,313462476948789
0,314112319516441
0,313799986508963
0,316523061513173
0,324893771831614
0,323339997659367
0,323613415723811
0,320877328741203
0,328544217076001
0,324042311458708
0,332748398265972
0,325362153669487
0,325859403697036
0,324194553705876
0,325414200366112
0,320432915615691
0,323444328768865
0,322971529867921
0,32832891719642
0,323708016834979
0,332041260339093
0,328350105757428
0,329260706135067
0,326910537504281
0,333232685420455
0,335721153325795
0,340385293120949
0,339260149602909
0,341990484276322
0,337769338527666
0,341146738429814
0,341819482125396
0,34860072648908
0,34850555607049
0,347423379515016
0,34291025398068
0,350171405850264
0,351147848336443
0,345355031846233
0,346720087482263
0,344403029859892
0,347153429212106
0,349160217341019
0,350689232986792
0,348425615670746
0,349721977106228
0,355183925465276
0,358725562467591
0,361880476100991
0,360490350895183
0,375537318296456
0,381830203798057
0,395186642498307
0,391347338447397
0,405894276215967
0,410727271410605
0,423539421645558
0,423657291259735
0,437639618202938
0,444562530559896
0,447983893252166
0,451861108058177
0,452530680183243
0,443881622114052
0,436743877511491
0,43047052185629
0,428761821468748
0,428805484709497
0,421787792799449
0,400223238382258
0,39876248829197
0,408052113602694
0,400596977210066
0,393901946448458
0,400376224824053
0,388863591362286
0,393657244312247
0,396501863324017
0,39794745986449
0,396587942576537
0,39741462931707
0,39813916933686
0,408052257241691
0,395683551443243
0,397527647126095
0,390488522698397
0,393507897942032
0,394220832677863
0,384608454997835
0,376328766730123
0,384021565962869
0,37717732304313
0,387436860054167
0,377333079356163
0,382018432662864
0,37933758327512
0,38658421645052
0,384362928969644
0,376995411794231
0,373712172267107
0,378484089071519
0,374470567044512
0,382968498335215
0,362983648763756
0,376372270359826
0,381330503204349
0,367773318294279
0,364687012769401
0,370577286974029
0,373110272433694
0,377083107968643
0,367733529924226
0,369351242987498
0,370756850272131
0,369622908631076
0,358405327049385
0,375846791181417
0,357203196493121
0,356457635645873
0,363437451695211
0,35828305674852
0,347061815109434
0,347694904069401
0,346855904825581
0,355566895687926
0,345408543141834
0,340237288132397
0,3431745781207
0,342846562657572
0,346626968350817
0,34972349550106
0,335654655997463
0,352325700445472
0,335334135379012
0,341675836033068
0,343118349054242
0,354123374732524
0,348690425202777
0,3556204101299
0,344374349979427
0,359034602984564
0,368996432961874
0,370186692045977
0,356612215839191
0,366533291992086
0,350054458817734
0,371380388536616
0,365122636409633
0,370827627718162
0,370075289168462
0,385509718009284
0,390423232085252
0,394365044129114
0,391579931430562
0,396288992572053
0,405837891174304
0,40604212057081
0,41961310623872
0,411986524570575
0,400593550934293
0,404350933880467
0,433040580154874
0,453589155682947
0,439417496305739
0,446061729496361
0,444700237281826
0,479981252982937
0,480625840555613
0,498796573129863
0,506951335893177
0,529595411992184
0,542454777834495
0,547399892830642
0,527516564294934
0,567326244394952
0,57380927851352
0,58732065625589
0,582180595501901
0,59331563113935
0,585162973318931
0,630422208117019
0,577675573114491
0,586453370345101
0,564895443133792
0,591526664834836
0,5833096001758
0,61429940298703
0,596025107210878
0,592692464347584
0,569834594827013
0,611864177421417
0,5748942665498
0,619507109668237
0,614920987606422
0,581785800145873
0,55786336868885
0,606173097357012
0,569759754871845
0,592570693780579
0,569114678662239
0,59436793140522
0,546238110038487
0,581122532602317
0,555783248149209
0,585641714148144
0,585850362684542
0,552991506132105
0,543283436201174
0,574046793760942
0,545407551231454
0,567493556003046
0,551066415071881
0,574268408949811
0,557756912059261
0,522844706880586
0,526149359232597
0,545622276829843
0,520063237988527
0,539237993964209
0,522800639858298
0,541866608415015
0,55147341310204
0,54463823213858
0,513925534832789
0,607101921099821
0,540918178685951
0,577632751901649
0,567369527068008
0,549935300999758
0,548913375756072
0,563830116758906
0,55085493672928
0,60000392457088
0,536833476639795
0,588458364495642
0,558253648070071
0,674434806139638
0,571503803352516
0,565616591977738
0,542115394235668
0,616592792057711
0,591853583345995
0,544340544266679
0,574688241483414
0,616352695030993
0,582130508805562
0,659804812074244
0,633539961720991
0,677529144056986
0,622136796733506
0,669927448201022
0,626056784183751
0,670505614943987
0,62804064813433
0,746211655855291
0,633435164584818
0,69514670402987
0,691887686823402
0,898258548992176
0,794042462239775
0,695024229660709
0,711893330946214
0,756903884142754
0,644298814760227
0,794648693743726
0,754527459589985
0,925642310869916
0,716931461835362
0,778667078451396
0,63736163972452
0,655165142931175
0,709548354404091
0,771756943010349
0,725086219103478
0,692968835433564
0,666820489433979
0,802858512165147
0,743311664652974
0,933090911945015
0,601444241572877
0,687406582406738
0,632261803644413
0,721594321251459
0,589901408898035
0,82116376217965
0,723208057623706
0,718684580696277
0,617142714441348
0,846870760940719
0,757522860150206
0,874220778087766
0,742589164713941
0,615372004949709
0,766902993005062
1,20687730526166
0,559472033899443
0,689527691123324
0,625901239624135
0,787275366633154
0,703280855152702
0,917776217570036
0,815645475554915
0,894889917327771
0,597608571077621
0,562958028420192
0,816698330551279
0,680734650880364
0,599783862538215
0,917756433071687
0,628079240719453
0,905976510963036
0,612279675892276
0,645748712459478
0,714049471556852
2,16082211683773
0,697658453885183
1,63386031862636
0,483244812718263
0,935426844301136
1,21104371817994
0,768891649900366
0,848548819983274
0,755346025389559
