3596
4000,36533379555
650,420452594757
1
2
2
0,0595670550369154
0,0486343166872598
0,0541127368296909
0,0535240472048089
0,0485529478171677
0,0513619377943025
0,0522535147740894
0,0605079002691657
0,0590229660720872
0,0565873938407195
0,0547098226753202
0,0498345311433484
0,054103962018576
0,0457780281988871
0,0535559100307373
0,0513049225283339
0,0486676802407749
0,0439962983769729
0,0471184439398831
0,0450509832558637
0,0542169126625896
0,0498810829679962
0,0525727465183446
0,0415978394911141
0,0505356940909523
0,0521929933824549
0,0500317300220966
0,0452753592239482
0,0522906870874922
0,0474711786346121
0,0561671578707212
0,0463105073087338
0,052904237335277
0,0512064478065806
0,0509760401429285
0,052348320871582
0,0490190305164418
0,052295900267863
0,0521061608212967
0,0426134386593915
0,0550063301822601
0,0502621843432143
0,0621375042354592
0,0488482831574321
0,0543216195285577
0,0500785515090868
0,0549040260486092
0,0515351129746514
0,0489673216963529
0,0517990892963513
0,0545486210261572
0,0476780493990332
0,0572439842107034
0,0548298423711424
0,044478522081478
0,0542052127755476
0,0556298815910668
0,0473391464435173
0,0500620998841711
0,0452540063193344
0,0547654228421117
0,0781614849711728
0,0511505636857847
0,0525306694586372
0,0512739108925211
0,0501738567160193
0,0456777767451276
0,0425922702598771
0,050476776019237
0,051223454762005
0,0470327987077417
0,0503440190785894
0,0634700768287227
0,0498263039507709
0,063757929700071
0,0432352440103156
0,0482772586623804
0,0433278910537155
0,0463170607961022
0,0505075292178587
0,0567870086350103
0,0519498414274263
0,0605644733569737
0,0458039565927729
0,0523001027504933
0,0552962147165591
0,0453641718454612
0,0387175180550642
0,0617522008250343
0,0476130832220151
0,050565799987848
0,0438194783068397
0,0514952712016173
0,0463993717417637
0,0539879529653919
0,0434709196491766
0,0501778855489715
0,0419143846594442
0,0533625677163625
0,0397342441723352
0,057086171172808
0,0229089582634331
0,090639642323541
0,0427000224592204
0,0707558826430981
0,0716285821872991
0,0285005260385082
0,0798642564222868
0,0526812666663884
0,0527219294219199
0,0496464723604412
0,0448815485854219
0,0423674387693357
0,0493953575921058
0,042278091110572
0,0426721303116019
0,0861641099602428
0,0540348108255544
0,0515888897921945
0,0486981147423051
0,0379625107476747
0,0263714829801181
0,10162461635395
0,0411903500563902
0,0548364897174344
0,0475223635701689
0,0368997411581446
0,0501993330515754
0,0806719990137938
0,0428919369213977
0,0633042303179539
0,0405968113691574
0,0459637694817479
0,0176669946463863
0,065921911326588
0,0553418144027075
0,0449978615328335
0,0300246776658608
0,0401919599025739
0,0876098113256215
0,0672081308648905
0,0510523206078187
0,0454737734880205
0,0199756273507319
0,0818736519788471
0,0546499073994286
0,0372527016278376
0,0509897288112658
0,0710235027146798
0,0365199476604523
0,0474355769514227
0,0351764431430266
0,0531964410063155
0,0488767286677887
0,0158483534428633
0,00155915929744825
0,136802220816039
0,0259777410451566
0,114930901003829
0,0445541037630872
0,0600076041493968
0,0460231032725908
0,0488920117118754
0,0478981118642881
0,045925780533025
0,0447147989033521
0,0382705690581222
0,0739075573647264
0,0480306229735036
0,0323945035812684
0,0684564721969808
0,0548766212632826
0,0186477782048147
0,0876233887206614
0,0770369979846197
0,0197945583939264
0,078797468920792
0,0591198079079551
0,046133343495262
0,0352863338524538
0,0885980128990242
0,0500068783816615
0,048369985205901
0,0422185159066738
0,0463501222213496
0,0524811359432092
0,0626734837910728
0,0435519474339989
0,055984942061127
0,0248373193000431
0,0577117887628069
0,0682439189397481
0,0843556372567898
0,0471731945143449
0,0648135609009572
0,0161556768921775
0,053356990337864
0,0846639639846707
0,0504454633670739
0,0541294711278468
0,0505576764573566
0,0429326995711286
0,05067249358545
0,041609178841969
0,0522642276414947
0,011451919159735
0,0745313688979288
0,0723036784334196
0,0540608821424689
0,0421040904086792
0,0455969104455991
0,0257225673764183
0,0665197226609739
0,0894225238185252
0,0402676349215264
0,0539117864751663
0,0491690616365462
0,0607430436906483
0,0662887354941922
0,0539818548763832
0,0528840632256877
0,0454999236853941
0,0512133018365267
0,0459083996640657
0,0456354863242849
0,0517678855120522
0,051160010400469
0,0454345590699853
0,0513846909936846
0,0464656882280642
0,0587424903835802
0,0606444078454133
0,0511402455098844
0,0489396924434402
0,0495207943975809
0,0403153017180577
0,0780065509706348
0,0491499411978947
0,0648314138744928
0,0496713751091542
0,0539879982444325
0,0484531002867097
0,0591718871382356
0,0428866948003848
0,0564268584890094
0,0268545550173075
0,0815935911075872
0,0639898702439082
0,0575308518077425
0,0446221521065313
0,055081823992488
0,0742472193312212
0,0422999048274694
0,0513695174770835
0,0502106501494103
0,0478370939502153
0,0343616383231207
0,0824469710098906
0,0598919158730829
0,0471321757073199
0,0571906140637676
0,0694611847067445
0,0521213242380079
0,0586935477670726
0,0140029993645502
0,0995727042438274
0,0749913188217291
0,00930677365287377
0,107224025698853
0,081321532503748
0,0609059051402006
0,0575534591645734
-0,00438942071392404
0,129642791803618
0,116223093801012
0,0600037243674804
0,0577533409440938
0,069736861557765
0,0579402496110761
0,0464221850356896
0,0632540066599803
0,0422351872956453
0,0810093043692771
0,0617289620311737
0,117563541395953
0,0413684616386974
0,0628845714345938
0,0989098498909222
0,0566120559521856
0,0616283486816003
0,0592711345814339
0,0607249668256031
0,0578824921833945
0,0817156620029047
0,0613166443247016
0,0742001520422809
0,0521301823679086
0,0841187180958367
0,0704120918534423
0,0608586658276911
0,0614339528528455
0,0818202182638462
0,0652939025763917
0,0669174678389437
0,0623977664894794
0,0681555587733873
0,0646879216952703
0,0318028185875432
0,0983748340859254
0,0821009127812712
0,0529434750134115
0,102690884888309
0,0726278615407754
0,0630319264516977
0,0635319292180912
0,0686606120242739
0,0609897371619965
0,0647586675011303
0,0548126837753485
0,0750874201709995
0,0871087198774334
0,0716187373052974
0,0720136950611384
0,0629889672229889
0,07380403130787
0,0723994231204377
0,0782474363616343
0,0700660775090697
0,0778401775269739
0,0664845655807184
0,077485829566186
0,109991974631691
0,0619141199923088
0,0758032980593737
0,120143105228324
0,0741065995998533
0,0896249218125431
0,0807701002186798
0,0912794664309514
0,0804756140232692
0,0848994384459325
0,0832236660256357
0,0854303459563294
0,0972618798272758
0,106283442704677
0,0827131813248575
0,0867654926980685
0,0997224713850132
0,153314945609042
0,113658865495291
0,105926159743628
0,0852882378079962
0,109887030889877
0,140122441202221
0,107969331781506
0,143573879910177
0,107906863637248
0,11872874551919
0,110598292445727
0,115674502520917
0,117182842364617
0,117118833194859
0,122837022381924
0,119302918792964
0,12517087375
0,12801866965326
0,122439807214445
0,119453632265553
0,171811104943463
0,150948546072524
0,136889247305056
0,145643639895439
0,129018019949045
0,142710052873798
0,161586045242013
0,147996533559074
0,189236766844545
0,145251663474925
0,213324997466574
0,160707804702994
0,167782332895692
0,160364633863686
0,165976103642434
0,173739608758304
0,180106384804586
0,17012480150464
0,1854487707902
0,174912215540325
0,195212637291045
0,177572979124169
0,189233851325138
0,175041047078064
0,210553447822988
0,205935550774193
0,206267897520083
0,201394335420502
0,211055424280396
0,24101016095213
0,247378345993371
0,235088309901286
0,223202596332214
0,225477431545072
0,215977573047492
0,237398473240151
0,228145161073706
0,235983173381226
0,228982691181377
0,262048367756849
0,268092523838159
0,245214303320692
0,266079203666396
0,239819727185177
0,25961902938846
0,267721488334084
0,250122862551413
0,279375888493728
0,287080907905149
0,265171163280731
0,284403142837451
0,312945811448493
0,273521419974039
0,314111019767492
0,294249951812295
0,297424616180013
0,309054749383074
0,306423968147708
0,304212849881332
0,312388529052098
0,312993431623745
0,314856531402257
0,330268166270767
0,335073470205477
0,330862407360969
0,335619894975939
0,352300284526324
0,340349640455106
0,36567537071651
0,338853342755834
0,352394131180088
0,351884886080554
0,37746161419742
0,397286001150061
0,371738551824438
0,397160520816445
0,376756638399245
0,390878677572839
0,394512419258422
0,397461110324822
0,398335889263074
0,399292475291961
0,404994265664453
0,413962727448055
0,407794346254674
0,411310044960935
0,424022460110766
0,418640560856993
0,431275139111482
0,420896612840154
0,441162655222028
0,436789258487548
0,436844277164287
0,447948889210697
0,459619785083769
0,473138336256399
0,459701080615908
0,486957228454734
0,45749770841481
0,483102096991146
0,49920172931268
0,496481466486808
0,482749079064351
0,51262691069208
0,510602517088857
0,509449820771786
0,508490354311825
0,516672169562422
0,505439842277712
0,517458785770894
0,529739532152527
0,533237763497179
0,538331731540622
0,538872627771964
0,54852138168311
0,569588493536355
0,556581344423529
0,536754619020778
0,560941711003767
0,575284543779088
0,58609568587291
0,575149446928618
0,582021512206297
0,597985831113933
0,581013410588305
0,606177189243989
0,604994386584623
0,586957107999743
0,600368063820242
0,612309093161672
0,630633950330493
0,635853734081473
0,624684565892267
0,622369332681795
0,660711868136205
0,660989306396063
0,641856372019156
0,677657754033147
0,645581271140256
0,636341513400434
0,654473217398195
0,649851755332926
0,672377355417224
0,691758755425693
0,684033543163784
0,70471816958479
0,687066562285666
0,7073092349737
0,6897603474432
0,676788494222976
0,71651685094438
0,742028627286345
0,722753569963075
0,713016057432298
0,716839415223042
0,712684307268718
0,751608601250435
0,78264428107288
0,748448305253711
0,756117949197875
0,724905948238763
0,724027814624373
0,776173053917511
0,773897385528192
0,749917901163326
0,781109311781243
0,788065842657371
0,849288192453346
0,794285003686266
0,783164506601441
0,814930425269244
0,815120932852239
0,797622172460664
0,81355381481482
0,826723727606267
0,818568742370765
0,837180677385273
0,861783889949422
0,819642905176498
0,816618652879396
0,852268387426863
0,854640385429809
0,808246003207457
0,878171906148747
0,873633715399242
0,883926531715675
0,912540800017062
0,875942691482445
0,88546114043399
0,866871945437446
0,851585812381359
0,91373745010801
0,898064896015673
0,984919217354517
0,93640517644324
0,889630946556554
0,897994586227637
0,969306814545683
0,916560665163298
0,8783747957984
0,932371080743284
0,966618764469582
0,913138973241417
0,93017614034832
0,99323252723031
1,00096441374301
0,979850352802628
0,982539900976587
0,992129377970137
1,00870273814871
0,975608329653969
1,02650895252839
1,02258873885807
0,976310464046723
0,998660417545274
1,0945659590202
1,02374605183637
0,961527049605447
1,00350482395957
1,04349786163276
0,998943743225758
1,03294087278709
1,07592033413214
1,01693595144056
1,02252395574478
1,06328743801605
1,02968129482215
1,03205678607903
1,0604508516982
1,04133523920735
1,06006618365128
1,07954023484003
1,07528675035923
1,02589103696422
1,00552472547838
1,05605848064968
1,06378823948571
1,06325482822319
1,10119473574701
1,20570493073076
1,13012796045569
1,06840629892878
1,08344650329678
1,08705022798531
1,10344139576261
1,19565130306821
1,23884857120686
1,19064043055954
1,11430508950285
1,10974187922809
1,11582515950458
1,1427589160315
1,15212861374585
1,23247645925233
1,17649233831683
1,15324028624696
1,12949678277442
1,16159151229772
1,19957971522519
1,17683768524649
1,10509491115221
1,16415261599538
1,1847827340984
1,19166667715193
1,20980597297584
1,2257089765286
1,25904102827218
1,23791863082082
1,22544942076337
1,22267365241806
1,16827974846449
1,19735703675706
1,23593763072169
1,28702619420379
1,21483938635428
1,25877714924186
1,29468187395671
1,23071569048047
1,24033520441171
1,32450420852947
1,27914635484328
1,29361191718474
1,24333203065559
1,31937881976717
1,27306335159452
1,31260521599594
1,44345764754856
1,34595129350635
1,20830516581842
1,22452807255887
1,29010585643192
1,327743017638
1,29028244342253
1,30145486734446
1,25757279584091
1,28968165082311
1,32391759616446
1,35867799852495
1,29911794051897
1,28752072068961
1,32296019454724
1,38916367262777
1,30910966375202
1,31960804254786
1,33062491701909
1,30821884313878
1,31637017206267
1,34139211138392
1,27519467017698
1,2611963824047
1,34599590398216
1,36079163794629
1,33740076298916
1,38257577738645
1,37077497470579
1,35397491019236
1,27373586820125
1,29852656192627
1,43287766518546
1,37903000568175
1,30816682491212
1,31319149476604
1,25994450334936
1,3420281093596
1,36915837155922
1,36800412806685
1,43324136438642
1,30677385620068
1,21089746489024
1,36722575226703
1,35476890053616
1,2897836598162
1,33937865646801
1,35712853725276
1,37947301487842
1,40894700833569
1,26043392948978
1,35177895630835
1,47482212551634
1,34602695728622
1,35824999971222
1,36057118260441
1,2980833951255
1,40931814874377
1,4264664610509
1,36275193514803
1,3785243027899
1,34956026721053
1,32419839696874
1,38547887160422
1,38986181959161
1,37693218204783
1,3734278346715
1,39220589580934
1,34142524358092
1,37426532413116
1,3378549215888
1,38719350133097
1,35205608054211
1,35121370871934
1,3486288582697
1,39529109541028
1,41467299599721
1,35211710625828
1,36571397432604
1,3226836924493
1,36236924417195
1,43968641555208
1,30758546222752
1,36581348239502
1,39285745061493
1,25717267811701
1,34106578132095
1,4358218745711
1,28536985852617
1,32743727479889
1,31347620599549
1,35599538708679
1,45338921620058
1,42905348487377
1,38866070339628
1,38904968793819
1,38291543762327
1,4212554894564
1,41289589980148
1,34918672509838
1,41943142902123
1,40021917459651
1,35553398860721
1,3669678865366
1,35177296075404
1,34716534690213
1,36730052829916
1,39580452224953
1,3617222912997
1,44347550354991
1,42784786878047
1,33703626691241
1,40806385209751
1,38119132515173
1,41297765538211
1,45168101573916
1,27193548729296
1,33152154345769
1,36551037791039
1,42712145612998
1,42922948919349
1,37887522359499
1,34323564175128
1,31949189741672
1,4099829978074
1,38923908913317
1,3613241284974
1,32984849669832
1,29354598253909
1,34613767005599
1,32510355674272
1,36783034491403
1,39883721595965
1,36931310411133
1,34913899419458
1,31348335030323
1,3549430094708
1,43282928876607
1,36171163449484
1,38894459480732
1,37776605660199
1,32189335210632
1,30152783399232
1,36764117595252
1,39739150768399
1,35713371499235
1,36697292202072
1,39689978257916
1,36376124832696
1,37967729401508
1,35419793974114
1,30591075419059
1,30582955431466
1,30012805487604
1,32318998860676
1,34687134854814
1,32312730990121
1,30784181041106
1,32533549622844
1,34386757619571
1,2515126618728
1,28190023404734
1,36527543683749
1,27727706514003
1,27358994530768
1,30904656410147
1,27326648651778
1,22699608132104
1,25581567449501
1,33524803010823
1,32015272226886
1,28394724187281
1,2907613076206
1,29126548134726
1,27969772788399
1,31222687890901
1,28329930226524
1,2548077441586
1,30446366898064
1,34869479048895
1,29630875669819
1,31211887494761
1,31352445029403
1,252434127756
1,27459089223999
1,22515552033509
1,21531519140804
1,24424962001251
1,22030529606969
1,2670004432415
1,26798292093547
1,18796672164186
1,21851536390948
1,17712964511705
1,19477425752557
1,2278536042742
1,19197998918688
1,27554273593227
1,24783437489437
1,2184922937322
1,21676803503861
1,19923868280544
1,19511014485234
1,18731060963123
1,17333434438477
1,19532372376923
1,18553478186434
1,16083154087904
1,16943943975618
1,15202819672027
1,13663838856481
1,13641473350574
1,14622782311142
1,14604230337217
1,14498008760952
1,12554039512824
1,156502997201
1,15114577056509
1,13016755691114
1,14098556356432
1,13856820227758
1,12357366786962
1,08516086495236
1,09144399420125
1,12313899495433
1,10631714080813
1,10393860761613
1,081690913377
1,09985489505316
1,09719446411714
1,06051979888434
1,07052532336779
1,07714100160489
1,06181394168277
1,07587058162753
1,06319029647765
1,04342540335296
1,0552526693116
1,03193215304332
1,03129176659209
1,02910005702664
1,03472809198692
1,04374454626038
1,0068488368156
0,998359460666035
1,02959912377075
1,01632970567554
0,990332517086093
1,02096007418017
1,01059769923607
0,992715276352671
0,998065901489009
0,986395417139307
0,984345883413947
0,948891564973771
0,935298887038376
0,973707749913593
0,96849329453437
0,943834977112661
0,945703961850953
0,949283758542145
0,96214424397729
0,940184719691167
0,931035896324028
0,921931181252499
0,902399927871613
0,924159440125413
0,901715653741949
0,906938860837199
0,903671695491657
0,896707009419397
0,889135771020464
0,901527032563338
0,908842885707321
0,89602131073198
0,894681185569977
0,864454949716071
0,861610893886222
0,886156845365723
0,860441821294073
0,863015854441747
0,856221034291238
0,857070563132067
0,860859069388787
0,830754727788402
0,835747758217391
0,828422887474509
0,811402522073463
0,82470739642359
0,812832971871619
0,809928883270981
0,81933534286585
0,807399817191001
0,797715215193923
0,805888409757339
0,805534029874064
0,79403111520255
0,782660507398809
0,788148994042737
0,775162141487584
0,788456570930082
0,7626294420398
0,75725256295551
0,75798887383074
0,759725259859378
0,749205519949431
0,750911511989356
0,757479961053772
0,740916615225221
0,742545761736595
0,735913749618394
0,72828179614637
0,724251212116158
0,719186548771423
0,730427439204331
0,72090373901763
0,715462538436456
0,706919597903812
0,700379864203227
0,678442547672928
0,693059020988863
0,687448300741141
0,685866097943001
0,691073088348833
0,6819124585775
0,685408702576397
0,676917063514628
0,665699427104237
0,670991549525343
0,666836836400373
0,663602734122514
0,648711783251575
0,656615713664375
0,665053743557655
0,648708055954982
0,64694336532374
0,64556855589769
0,642220852745873
0,639870803405439
0,638207969134117
0,636103135417608
0,626020144268636
0,626192675221408
0,6202099923789
0,625716127704529
0,612313359679443
0,605642665594628
0,604036476192169
0,605417469819195
0,59940170450097
0,598116653559996
0,599544676864537
0,591677853968402
0,586206750965323
0,58217392199387
0,572478347884494
0,581830880718443
0,574484254371018
0,569055762693692
0,562064665859399
0,565213487380237
0,566366683586637
0,567282835120606
0,554436294796924
0,549830743299902
0,556293449470082
0,552583422623941
0,542070695814582
0,546299446956549
0,537640853306875
0,538073812482644
0,534078102719402
0,533283594246149
0,517562122908301
0,528188007291704
0,524985764712181
0,524093368100689
0,525339538478742
0,524981491741377
0,51637239836975
0,507824246686073
0,496213469720392
0,50193442014092
0,503631660820442
0,503454062146565
0,496775520587329
0,500913089907718
0,495397700460263
0,49472645513228
0,486321086894246
0,486099342272435
0,471085805404079
0,470004082153776
0,481804376884772
0,477520416545407
0,468521654720553
0,47089391680089
0,467615103075714
0,462176889484425
0,462226075818708
0,460608446481582
0,458613766425859
0,457004734211889
0,451334306072005
0,451681055380802
0,452180039506146
0,447488967142855
0,446589148080918
0,44885740537465
0,446004698614987
0,448513543949504
0,437182991727668
0,437756862409113
0,4311838711414
0,432429267440356
0,431739541304086
0,431803728759677
0,431583471134304
0,433665581458939
0,428558267736996
0,430539092703592
0,42724358210303
0,424322035033523
0,426805676599974
0,428793164905153
0,428834146318472
0,426903079820613
0,418835777092163
0,42504826624303
0,418995165911112
0,423677397948566
0,426170660422068
0,43045446705098
0,424671806608216
0,42780827061071
0,427528146000339
0,422469365832694
0,423061718472616
0,418175535243431
0,416936832209974
0,427583995909471
0,426298087908725
0,431340919890189
0,428604860121742
0,439387501791264
0,425823498459387
0,427380514733454
0,439282502059579
0,438581401701737
0,431553727545048
0,42853120372135
0,427924403330576
0,43410760795332
0,441181755899966
0,439420880090584
0,432106114217388
0,437939197503191
0,438124364826486
0,440935575537826
0,446520771070625
0,454744761470735
0,451131986706651
0,462509367510026
0,452177798564432
0,451721778799305
0,450294474396546
0,452216955736762
0,45768705871987
0,46094837095383
0,461561622422474
0,461133006903613
0,472110491922085
0,476864343506374
0,470786282946729
0,479992312548642
0,480294635332256
0,488779082406813
0,485392887173901
0,489613696233296
0,493669657099972
0,499097943969455
0,496437912151531
0,498680411349952
0,494022086217711
0,508411965786084
0,508478989415051
0,509369283569379
0,516181094310002
0,517564790586913
0,519020503482639
0,523846760161354
0,524324516550755
0,525713641436926
0,510668752672544
0,522292301120617
0,530718997500395
0,530292982929254
0,526594858128655
0,527638600258883
0,525282146093939
0,523039264833328
0,517087969121715
0,520093916782293
0,510962321404706
0,519719777586953
0,513560732981858
0,510502654047044
0,500169646532625
0,500953228244031
0,510158422967477
0,510876188012397
0,500581799669708
0,508011010503372
0,502272408419499
0,499370003469362
0,50056238939293
0,506257272034354
0,496612251045422
0,499895291471423
0,496096150837087
0,491077856820381
0,49112348993886
0,494359027434666
0,49494654286867
0,495042669856685
0,490468620468983
0,495084919632375
0,488947677008155
0,487497177117193
0,488838944219417
0,49730481833326
0,48945148433348
0,49176227976479
0,483881818984728
0,489901831914034
0,491931900263881
0,485453293848904
0,486272594805588
0,486994901763654
0,484280799789519
0,488353738768583
0,480135247106068
0,485502767290265
0,481828559169393
0,480064775499866
0,476749797914313
0,47762796345447
0,471203261405941
0,47709162699102
0,471289175699698
0,471959361187365
0,472940294892943
0,471259853130097
0,46288169662899
0,466782490972126
0,462099268113884
0,453982389387843
0,456596590428897
0,461520093653528
0,448920667692666
0,448743995859526
0,442768630494194
0,439575234010371
0,441818895594599
0,435158284700379
0,436578063993058
0,441762462128976
0,437441200607043
0,434917361658636
0,426201272892417
0,425727962688588
0,416885101914192
0,415666500387232
0,411380797353544
0,420693167224993
0,409144216376607
0,409784026482714
0,406565784849898
0,404637839193618
0,399517633679884
0,39849397022651
0,396581129094791
0,396162034942017
0,388237966145972
0,391093043286952
0,385238597484062
0,378814706648597
0,379049013543263
0,380082172430545
0,376848086425079
0,37711256681288
0,370210042842253
0,373338962370538
0,367999968473701
0,366112760536966
0,363685241248596
0,360382620717898
0,358109235908037
0,359018507547422
0,35492142838217
0,356641287639995
0,351953054337932
0,357713016816871
0,351931356625189
0,346863548686182
0,343455576390658
0,344608785457102
0,341533488760066
0,339718640705726
0,333610637867408
0,337292727344296
0,333841118214859
0,333619876843634
0,333914745291253
0,332956257798443
0,326456516273633
0,328147832652809
0,325366351183668
0,327778462380389
0,322767269466104
0,321957350321282
0,318145929960852
0,323861411712793
0,323340250841804
0,323858068775449
0,317838528221322
0,319331574558404
0,320616077583347
0,312232844983532
0,311330568851723
0,312604502831118
0,30420826172545
0,307794527141473
0,305258409783772
0,30385576694079
0,299464637083547
0,305146489579184
0,301892819614212
0,301544323189366
0,296723413967597
0,298773945645036
0,29976986172351
0,299201159097047
0,296657872196741
0,30007314930058
0,289673535666564
0,291870800420391
0,291908508118989
0,290393248553577
0,289598997027301
0,292459546042863
0,284399679994427
0,290666257752496
0,288644878205319
0,289843463429357
0,283655517769376
0,282954874692886
0,284429422966999
0,28298491253078
0,27840360048054
0,284837626298922
0,282119878009502
0,281386933381398
0,276838541655489
0,28110535565821
0,278205993056094
0,276556247878914
0,275387180544697
0,277639401175248
0,274242374226931
0,276052508560788
0,269099715736602
0,272314778790113
0,274175645395912
0,270287478331855
0,269758324118458
0,273917686717341
0,269425337621231
0,269998703469302
0,267443192877799
0,269203286886138
0,265203132829019
0,269487398984206
0,265215346469954
0,262601437550769
0,259485717217317
0,265563551448042
0,258459512093519
0,260956254733869
0,262957164946141
0,260168433933566
0,259725424345832
0,260517788686148
0,253458625518316
0,255205623992227
0,254271256702679
0,254451039546815
0,254285844907263
0,25795773220579
0,252952735593716
0,254851300686348
0,2506634933515
0,255134896912266
0,252118834353729
0,253994839141505
0,250486661812475
0,252348759224618
0,254414687365915
0,255566071136134
0,249158117781869
0,251542265662532
0,248575126165941
0,249151200075822
0,248979633439557
0,248461999113345
0,252082415900443
0,249589515155817
0,247669301035353
0,252741020875953
0,24496612879804
0,246533999807481
0,246615130035354
0,244220630250972
0,244111848606869
0,248613668578126
0,24148581802399
0,23919633744914
0,239493257683376
0,241305485740973
0,239432486761141
0,240380526794072
0,238239625477733
0,242270394950707
0,237400400367968
0,239807457295412
0,237869753170334
0,238190083211538
0,237453904872019
0,238475485494631
0,233543067912488
0,234631185969525
0,233675289854914
0,234207071168679
0,234746216062673
0,231992953883527
0,225968099180555
0,228679034456445
0,228498003059433
0,23031667186856
0,229046784069848
0,224913366724691
0,221238613249655
0,22706880302114
0,22101175890213
0,22122067325409
0,225571235675001
0,225662809194155
0,221996076888941
0,223643648835702
0,217993290840975
0,221075525777503
0,21610333169795
0,216495202724332
0,216669010735046
0,220415614844037
0,217555439956162
0,217932381484714
0,214414658181299
0,215793965912769
0,21322144959579
0,212433832147812
0,211229884210347
0,213910590787124
0,211020915061788
0,212355212012523
0,211007546996464
0,207107741459729
0,206398059036153
0,207852096526748
0,204836169193875
0,206511871409704
0,205163637283709
0,205900389708742
0,203507108967682
0,204333743658863
0,201015051827306
0,201454364841225
0,197346605930311
0,199171871319452
0,197403026681672
0,196466580404369
0,194784135769339
0,196954402810714
0,194813812876916
0,196641978065603
0,193613063995984
0,19482279998456
0,192470266720333
0,19307961592851
0,193272447979488
0,192977686324352
0,187622856401703
0,187147673661866
0,183228479342403
0,187159917872549
0,184163485404919
0,184960549646853
0,18219317517898
0,184497058908188
0,18276113725855
0,182468004842557
0,179423874593557
0,180345586465318
0,178705638174016
0,179050241198362
0,176051064140535
0,175325559614367
0,175240456156368
0,175882659600105
0,172996541484848
0,173177154652971
0,171034388876886
0,170139107855093
0,170178490348816
0,171441550341376
0,167053301234598
0,167612886236168
0,165684363963333
0,168637348603455
0,167192203554945
0,167024330952889
0,163991282982111
0,166829942110737
0,163770838889727
0,16539843954542
0,162217905955628
0,163559417951404
0,162762514180439
0,164894588135392
0,162557855828103
0,160146232236428
0,159088004960999
0,164016515133811
0,159114684156755
0,160272646549809
0,159193203330757
0,159072667059118
0,158199661393999
0,160468437092635
0,156856913648479
0,154861608341687
0,156137556449133
0,155694616468634
0,154960644385813
0,157380918512873
0,15175523821687
0,154864860951914
0,153100981381756
0,151521095742707
0,152777640523087
0,152521968877707
0,148142722452148
0,151361011611849
0,150746078364541
0,151178990037491
0,151916290185116
0,153214117003755
0,149899258746145
0,151354928856907
0,146977757922565
0,150572299665145
0,150135004870988
0,146044308681932
0,14505702837519
0,149264921306803
0,146415176810715
0,1444728061364
0,142317495675459
0,146555477020941
0,146078972791689
0,146241982623284
0,143571133888204
0,142589107394518
0,141011081757781
0,144078745338209
0,143963551922577
0,142441394916331
0,140897008268897
0,141995697133711
0,141199271868394
0,144655068610795
0,142418256887502
0,142708947211868
0,138621696285528
0,139454592639416
0,137786597001266
0,13973379257937
0,139809147134775
0,141254180658007
0,13960483658864
0,139844097041758
0,138191684921194
0,141482102783317
0,139185122329338
0,14074135951861
0,13920962614274
0,140570648668158
0,136722759696308
0,137945405222485
0,136084467417856
0,136948146193655
0,137181424758007
0,135764407332894
0,133246631086278
0,134497241007458
0,132253982761357
0,133810474403595
0,134137217041584
0,136606940075313
0,133508222908231
0,135098157252973
0,132652169518717
0,132767771307617
0,131585306543693
0,131752495762189
0,132066120580116
0,131391967285216
0,127380870494502
0,130371420376785
0,131376054964619
0,131046780404038
0,126721248893803
0,132042457204222
0,127448708626909
0,125941753085632
0,125771865841249
0,126862018851968
0,126164957777405
0,128331118095615
0,130185466455114
0,127882331246087
0,123828736284837
0,126717429321293
0,124080465263581
0,127440867988612
0,125317811086517
0,126327711229601
0,126133942754458
0,124094917999002
0,122422924380502
0,124096321088538
0,122605085742618
0,124040134957603
0,1227908995056
0,125030407579886
0,121434673477037
0,124436962065657
0,124688577020309
0,122248255176367
0,123530707343016
0,12431755450952
0,122072471122033
0,12580025830667
0,121748957152124
0,120867577267179
0,121609102360442
0,121518007457852
0,1194662962947
0,121585354989003
0,119164908680129
0,117915703557366
0,117306764488157
0,122129969310041
0,118019503025247
0,117281562991326
0,117939890239985
0,119394530742631
0,116506525566969
0,118154021204134
0,115821384615197
0,118364320902754
0,113419596729461
0,113283460411629
0,115031923346485
0,114452833466394
0,112029305428568
0,114369668483463
0,113087743606017
0,111623941598758
0,111062523994732
0,113453776329652
0,109484779806105
0,109683873368963
0,110915920999528
0,109121675231142
0,106097575935308
0,108024695639211
0,106537148054939
0,107381871330664
0,107340888308031
0,109574270229473
0,105781501872465
0,106593344399969
0,10632464166485
0,10757470635705
0,105986382679364
0,105519872314398
0,105573919748825
0,106365922641815
0,104872161897876
0,107358841207451
0,104152582996498
0,10277091517894
0,104662506283703
0,107148984650365
0,103233491547555
0,101326706654332
0,101981279864423
0,103355486020017
0,100308549200892
0,102774225560048
0,101866132474097
0,10132393618798
0,0998343316018499
0,102561944508535
0,101982067004401
0,101233448988484
0,0994606114911002
0,0995816855854855
0,09917865215036
0,0994012586161507
0,095857085047649
0,0983287818953035
0,0971757773599246
0,10122960512439
0,0967772896297715
0,0972658407477402
0,0977727103596913
0,0972786625732872
0,0966779893221204
0,0997609900674012
0,0990401983531035
0,0962299299255914
0,0932060208717368
0,0943413943383154
0,0931214309133097
0,0925345540520539
0,0922368803183266
0,0965344075298841
0,0949736271793033
0,0946619805903172
0,0936248958084422
0,0949141394238811
0,0912769914073807
0,0933572424585609
0,0922600571051735
0,090820645128804
0,0921394894451073
0,0936056215790187
0,0897560440312606
0,092038149442684
0,0906408649997304
0,0911748784718658
0,088979967461539
0,0906532799293983
0,0892583590238133
0,0873235102405398
0,0898611935400125
0,0914121643575269
0,0889249602507981
0,0915037045371673
0,0902219623374117
0,0890369360269893
0,0883357666573755
0,0904135245765504
0,0910365618182098
0,090464773740002
0,0869709441384702
0,0913610899127315
0,0911988783495479
0,0899769129226638
0,0883102803403152
0,0915696013170999
0,0917649201985352
0,0911034279247827
0,0879816841283903
0,0882110607164813
0,0864027984716578
0,0878323430338507
0,0867382498749127
0,0895970065936786
0,0869738129848108
0,088024708867938
0,0859236849103294
0,0863382485437644
0,0807924280738331
0,0830638712388073
0,093228752915039
0,0977929506457493
0,0870457808319601
0,0821534902693422
0,0842290432745339
0,0917980652461826
0,0830993757226622
0,085998102149886
0,0853517914814813
0,0838818661239918
0,088832488223281
0,0930049662576492
0,0867890537100997
0,0920183623545743
0,0843986613077246
0,0869911238127803
0,0831290391872401
0,0888829862986065
0,0915382692896468
0,0916211906275188
0,0846126638734271
0,0853039267718358
0,0861653423360168
0,0876915346949601
0,087770798550156
0,0902098197130749
0,0873457900834885
0,0868997680093962
0,0880910285566921
0,0891340678355175
0,0902872788817485
0,0926638655587405
0,0862561354766887
0,0793972307345989
0,0794669973332224
0,080528919313041
0,0830482866091661
0,0868394157323307
0,0953543253900291
0,0849673552651845
0,0902319546687802
0,0768477877242151
0,0849548897391603
0,087187972277209
0,101917904112398
0,0834887114813715
0,089212724915121
0,0766945294666342
0,098146121552252
0,0823349066096709
0,0906847759717026
0,0789308863681174
0,0976987896927143
0,0843958278243658
0,0885997480724009
0,0846546867565763
0,0927556171277107
0,0850810702514787
0,0887895801813087
0,0889569809070168
0,085362537938333
0,0887840359590355
0,0853819844224994
0,0867762729583325
0,0868910309878564
0,088674670223524
0,0862883158614835
0,0878878677078441
0,0880980487264915
0,0846681245543555
0,0855128424574229
0,0862146735845354
0,0867314234153961
0,0868466937800935
0,0850349240951981
0,0871734762122326
0,085766637057467
0,0867422395807743
0,0868093671416773
0,0850640787639685
0,0858585435249422
0,0851736246742829
0,0852677952693846
0,0877881114270234
0,0880071567339179
0,0869645265013037
0,0860479853612247
0,0873843437286255
0,0838240829422887
0,0851886570359269
0,0872367817580957
0,0878956839826992
0,0856744114303398
0,0888725607999021
0,0861061792060464
0,0851271616310606
0,0857505740214171
0,0883377474674179
0,0895237611954884
0,0867548058564879
0,0832063569442534
0,0895847747483388
0,0861090481763236
0,0859439966074126
0,0877078576176948
0,0890464990780635
0,0884828242536399
0,0895731993639608
0,0888699027857099
0,0889392341239629
0,0901962176307152
0,0908357125437806
0,0903586938660573
0,0909182175400702
0,0910670479408847
0,0900154858161989
0,0886462929610527
0,0894483378613232
0,0893929085270538
0,0893535246029256
0,0891352934446468
0,0886802045687561
0,0891380992017419
0,0917728639397341
0,0913039654386628
0,0941364661647454
0,0916757512612175
0,090782005189786
0,0907751922499666
0,0903057223067435
0,0893103110141374
0,0928092439189215
0,0929401959988516
0,0908655867284698
0,0904290398503772
0,0922004170454817
0,0919308450199602
0,0918947736694063
0,0922874113888208
0,0917107523760388
0,0881077983821594
0,0918900632346593
0,0902687962667329
0,0930072954410225
0,0953434478858271
0,0938910050435664
0,0923982817801706
0,093456290004034
0,0919223371501771
0,0913839537047024
0,0901508807569677
0,0938529859969358
0,0961786837684799
0,0937226327416989
0,0926774844453696
0,0957947813273176
0,0945644891085326
0,0946632608361811
0,0953411770274189
0,0966928640176165
0,0948121544716409
0,0964811229032454
0,0962762257840312
0,0939358850284582
0,093999446250077
0,0993429120767986
0,0988774704795045
0,097328459999612
0,0955736558591394
0,099775548805848
0,0983861268282085
0,0966388780120944
0,0968856483264244
0,099234173305603
0,0982552567402761
0,0985942340147197
0,0971706993863926
0,100301596287707
0,0997988929221774
0,101062337388867
0,0993471430897825
0,102382188667716
0,101016848445896
0,100642418670191
0,101665385263292
0,101319454877509
0,100540926227178
0,100094617731645
0,0975932437136145
0,101655121285163
0,101366358643703
0,102552881191858
0,102120390853938
0,101863990203056
0,101603686358046
0,101839814056656
0,102002776418182
0,10359463578075
0,102542612734141
0,10284679412599
0,101241220095036
0,102759639750208
0,102607285352301
0,104512181502799
0,10447718577855
0,104867787004295
0,102569967596249
0,102654699393246
0,101423876161571
0,103285163347243
0,105159604771074
0,104787363047262
0,103757936577971
0,103365627082882
0,101763370585391
0,106322195714387
0,106392705094744
0,104549878394801
0,106383356863541
0,106144442107873
0,103865734289228
0,10602396206178
0,104410520023961
0,107996364608211
0,108210013692879
0,108443146945422
0,107763247830446
0,107968614476194
0,106584889532364
0,107178802662436
0,105620147313412
0,108244435415938
0,10900710402817
0,108658261279518
0,106508724427453
0,107923087050006
0,107142957808257
0,107873141098146
0,107754784656899
0,107362896144274
0,106935406020245
0,107577197490057
0,106492472418102
0,106267725019506
0,105974269386811
0,109848287016856
0,107828054238732
0,107620004480853
0,105477124997702
0,106824304148155
0,106699285928088
0,107552204129119
0,107239333462016
0,107530963672961
0,105556448295871
0,104336778136724
0,104218728483689
0,105633603637842
0,104857727097944
0,104648501504375
0,103954516830649
0,104840533390069
0,103847339774622
0,104835239756939
0,103864246307822
0,105504627673007
0,10516157740017
0,105111260689105
0,104684284964301
0,105661823522016
0,105851081098132
0,105005298531431
0,103393148258867
0,103782651889848
0,102448261870856
0,106277924338842
0,105036538647364
0,105326473662334
0,104949297868994
0,105912732295432
0,103411219700148
0,103455508447764
0,103418515696919
0,106899033186187
0,105499962887545
0,103610220413257
0,101490369760703
0,10381171548517
0,101587105254322
0,102328933736482
0,10294776566289
0,103513498988404
0,10451788482908
0,104303173284637
0,101735880417738
0,101006115517002
0,0994472479171967
0,101502417755302
0,102605874604433
0,103299031685011
0,101767967828312
0,103017230796509
0,101165154636631
0,101292851808015
0,0997923891037815
0,101825822409435
0,101426797594035
0,100955838056119
0,0980528177797109
0,103169355847396
0,101688617263684
0,102873359274367
0,10172766540578
0,0997782452336477
0,099536826042094
0,102761487739543
0,0989883651146435
0,101318391976869
0,0998169101956785
0,100697556328811
0,100982683325438
0,102347007425746
0,100334589335089
0,0998622707275592
0,0987822103801417
0,0999663959970807
0,0997180565604825
0,0991262435621115
0,0977391826073577
0,0985292395129107
0,0981623678218746
0,0985216402459607
0,0981631562027681
0,0997650990322937
0,0962636508819428
0,0977146293474483
0,0964963750021628
0,0974295582422
0,0979410479867201
0,0989660675618953
0,0955125775270418
0,0953305141666119
0,0949798609067649
0,0957754540921616
0,0953799486051657
0,0968215417071295
0,0958868579616096
0,0974118799319428
0,0950447834237845
0,0949194140705428
0,0952823083119749
0,0950788994011944
0,0932759327409387
0,094514374436939
0,0945360276050653
0,0920912847742018
0,0925141553584854
0,0935164842535028
0,0927637938861702
0,0926674808623499
0,0937030316248808
0,0906596705232634
0,0905990386417618
0,0914530266792482
0,0909990793258225
0,0917580540862925
0,089345320912638
0,0893943715539578
0,0913046158778333
0,0907809603399872
0,0884382991858619
0,08795220532083
0,089631515214819
0,0887998314850421
0,0877457103776906
0,0868247773285934
0,0856751943453345
0,0899639028927071
0,0867833126940449
0,0869979551912645
0,0852217049943572
0,0835912677516628
0,084753597498306
0,0879815140667041
0,0855061112215766
0,0861989476016893
0,0824827359189212
0,083246122131252
0,0808489813183108
0,0824360526105344
0,0804601022829081
0,0828657095508361
0,0804475830896675
0,0824420617494677
0,0816918316214317
0,0806742451801962
0,0777636781455989
0,0823672589881952
0,0803731310256507
0,0818939522741337
0,0798732061621363
0,0824497629355729
0,0762539077039219
0,0841191184022935
0,0832783945977525
0,0813900862021301
0,0775455707135131
0,0797308465038293
0,0781617719249626
0,0790831429200482
0,0788135693357781
0,0795243983347915
0,076856855497399
0,0788740736105768
0,0772514090756526
0,078766435154733
0,0774260100802528
0,0773187651498272
0,0770873344117839
0,0767406966275878
0,0767443216460538
0,0782333077351818
0,0774725010782495
0,0775185723611679
0,0751460607543687
0,0777057173709993
0,077372967567048
0,0772980350198171
0,075568793676369
0,0753475309508633
0,0799322799559885
0,0784144147881052
0,0764045207054305
0,0757914354335717
0,0737122188337498
0,0735831592978889
0,0731748882467502
0,0726541991475451
0,0744148223381569
0,0744668092705081
0,0753687421805958
0,0730103996059083
0,0715836902099201
0,0741249306650797
0,07383764788173
0,0724878006082838
0,0725656329262801
0,0734614546898918
0,0722992778810875
0,0698141126803367
0,0727173986600213
0,0717520674529814
0,0736096356405287
0,0727566530661846
0,0766141616199014
0,0683482030548772
0,0747340257582343
0,0789085181192692
0,0747484429163068
0,0713684654440023
0,0713305380220479
0,0731592304161317
0,0701110182661889
0,0719639368523456
0,0677687577622431
0,0720179047063422
0,0724521413218313
0,0734037059212586
0,0713695362376206
0,0710300046819068
0,0688999683509265
0,0712504076492094
0,0703539617225669
0,0709802641467438
0,0719953207223806
0,0714032892644129
0,0689699854200968
0,0709517111405394
0,0762855921264708
0,0726143521009522
0,0729743042258894
0,0690370222186832
0,0673539203167583
0,0833319039247092
0,0738571968451752
0,0749152226942435
0,0684883640898345
0,0733853652264202
0,0666738717790866
0,0726351097627748
0,0649722127282494
0,0702781286939723
0,0681557697884208
0,073899885936381
0,0712994759429074
0,0733580523120916
0,0687536118466004
0,0674188184866183
0,0682992149505537
0,0716101013271923
0,0680678506025639
0,0705379686811861
0,0682527057373205
0,06922982467472
0,0659253006757494
0,0701414501658994
0,0647037870501576
0,0733421232514119
0,0704269664578257
0,0703089291815777
0,0657109964636914
0,0728157966952003
0,062042988969818
0,0739068761527698
0,0754463879759726
0,0735294559555704
0,0692271173620297
0,0700052046151201
0,0693602529603756
0,0690454626024782
0,0710787938248501
0,0708947893833468
0,0691268685221657
0,0685476661960574
0,0694315929768115
0,0689639010315459
0,0687836801752769
0,0667582584402241
0,0704446685505056
0,0696376198570333
0,0707632794112448
0,0687062320011575
0,0673832491540068
0,0697628660557829
0,0667245789820245
0,0819211144035308
0,0738117579507174
0,0803527260771046
0,0733974334176268
0,0755372437671115
0,0711282011066792
0,0735828717746282
0,0667621844096614
0,0714813919998627
0,0668757325322713
0,0707552071402699
0,066658567214548
0,0709945272165779
0,0690874120100071
0,0731069719874026
0,0665287686847522
0,0700654389507142
0,0679702247227556
0,0729850893480701
0,0690806751299621
0,071105509339583
0,0696909329848571
0,0692703997413155
0,0713929401982505
0,072975367437874
0,0726933757529981
0,0602858530793265
0,0865933794146909
0,0775269381218092
0,0809390458997131
0,0693989341436694
0,0757412263528724
0,0712232399274159
0,0712534344301545
0,0715257262833624
0,0742989929469007
0,0728172976411906
0,0715306550367499
0,0701608830631864
0,0723220031912485
0,0722210363003704
0,0660912256844473
0,0783773424913707
0,0902004034057366
0,080573720300618
0,0776677685304483
0,0661881632633877
0,0800630255395615
0,0883224385840081
0,0755334891428781
0,075277567229779
0,0739504896939302
0,0767508942664128
0,0733914716729443
0,0750601415524676
0,0727574410258501
0,0813011515298548
0,0739242372944447
0,0774006016094927
0,0737691664019413
0,0750128218340657
0,0759764488130194
0,0738251643460157
0,0798131908228619
0,0830725399280016
0,0766466319160029
0,080825259123262
0,0791271726251508
0,0800868614495038
0,0750477638099623
0,0802132326342225
0,0744370276530645
0,0836667361198449
0,0799159602793366
0,0809982801108619
0,0828946917621418
0,0873900741031431
0,0797563001289151
0,0810241233959296
0,0834722034373167
0,0911150812472427
0,0654362096000322
0,0903232280225889
0,0820707958147306
0,102882391968789
0,0870545060468354
0,0894007654997532
0,0804735294643119
0,084542803322395
0,0776565872300473
0,0806075093276001
0,0908060396527072
0,0844156739635283
0,0885774473671139
0,0768923204914701
0,0898940735025272
0,0866904403713257
0,0909002249421309
0,0814444803946514
0,0920836444148526
0,0817947366640436
0,0991271040267678
0,08198141772033
0,0864228528628364
0,100004034114656
0,0983468699469335
0,113406576802693
0,0903696081505972
0,09324831081361
0,0997640757784753
0,0982775707844002
0,0972295334664761
0,0889854524801891
0,100922819011042
0,0856933913983485
0,0968094090975833
0,1184370586983
0,100429198261047
0,0989756156404181
0,0954148033333602
0,100119702755807
0,114641557378009
0,104226965625085
0,101714731563185
0,102775004872841
0,101947606918311
0,093377082558709
0,137368719965507
0,107800696055584
0,125726699950954
0,111366352988534
0,129587394451826
0,114951079775314
0,121310300083359
0,10734068177595
0,123874289406325
0,123290745293329
0,126429461103544
0,103757345260355
0,13331997762162
0,126070576038287
0,126890946666971
0,121595812190437
0,119847549123798
0,112361375055513
0,13258644826905
0,150354682329705
0,154127483497077
0,127257466250959
0,129137741333038
0,137432434944279
0,135232181572951
0,133126493711884
0,131530150345811
0,134241185469752
0,133060676517432
0,136117218366588
0,142055156738781
0,135853081120726
0,149408305337301
0,134652957918974
0,144657700367307
0,142469137911519
0,18573039653743
0,159611535343905
0,155692074841352
0,160580296644618
0,170554062504351
0,170971641663964
0,161319653415498
0,164514321311135
0,163023050165197
0,172861833226736
0,171354132630701
0,164781063574373
0,184797785822715
0,170428637607615
0,205687231077737
0,190254605145466
0,203430049821285
0,176926350287883
0,196418513430973
0,289049959306633
0,22524635414092
0,228074350056523
0,193467120819948
0,243931519030192
0,25086861108003
0,254615320597223
0,235249582557311
0,245636589129793
0,242202328880916
0,259585654429243
0,259030122935441
0,271453177971987
0,277321936285884
0,284702834588903
0,271578802276373
0,292899917251026
0,322794458606774
0,364864078778077
0,321388178268803
0,328907634318285
0,329536943449319
0,341790832692677
0,334040356222829
0,359671618892158
0,331389247038627
0,378248212050499
0,387012867891158
0,400644636176653
0,376219962214205
0,398679490616913
0,405353430849788
0,405296675294749
0,44331234080369
0,436778412227355
0,446498777952488
0,427847173299322
0,455517399237586
0,446228074842851
0,457428470167375
0,475318220379143
0,481553695394257
0,497280171782677
0,488669245291152
0,490147231783326
0,496180982037779
0,512510932858799
0,504168687360788
0,516807628482666
0,514740607440043
0,501790008204799
0,654111188014502
0,554057274117709
0,550626650166794
0,526606279086175
0,541581846171151
0,557673238228465
0,541919009613375
0,580294870330064
0,573427415585492
0,560719068979172
0,546893439079636
0,556612302550554
0,550071100481531
0,562125916506717
0,557025940620813
0,548062504617316
0,572238329999542
0,536352846407848
0,605112842759822
0,599895636438226
0,579356568022922
0,54666575124925
0,554983424363093
0,543723685695415
0,552024484852209
0,52542232166787
0,533595612831594
0,540554693408975
0,546135914968867
0,518837021831142
0,503851076964364
0,52639631487519
0,527647302629686
0,524931359261213
0,502788216273746
0,497036828475974
0,493752838509504
0,465141032631645
0,497988709191725
0,498145678507788
0,476780333956328
0,464943139016074
0,448378892988409
0,451619853711989
0,4419891767489
0,430802984488073
0,436825285708733
0,42951360990049
0,423772586099803
0,42910983568767
0,42379036663631
0,422031047086753
0,406769259809756
0,409019834030851
0,400900037210919
0,405313223604056
0,394843856708512
0,399759929662424
0,388592992115242
0,390591731116821
0,386985856973659
0,388422223025649
0,387175048897361
0,388070412917379
0,37584488999054
0,378929842773315
0,377631599600629
0,380018164094759
0,376136745920392
0,373875911799386
0,368441580760327
0,373217535456675
0,367550143945724
0,36958857371545
0,364007368759635
0,373008070171497
0,366302483908748
0,367312975918499
0,356709822213304
0,370237975422047
0,353602395373548
0,344641298213024
0,40622930713514
0,372796055369518
0,369824647170184
0,344189728259629
0,366255270837309
0,348355650050179
0,349541801823
0,372609091759037
0,364707321770609
0,357935748910388
0,347166758453512
0,347711452825056
0,354634491545864
0,348285960731047
0,351456266366449
0,338003943367203
0,320590756901329
0,362006600876203
0,342639167160899
0,423427836588192
0,370001995101043
0,372417343186652
0,316303053536326
0,358577300791913
0,339675966770365
0,347462779688138
0,326781354282845
0,322806380282937
0,331943468193633
0,334744897677347
0,330619801116927
0,322362312608182
0,313699732549246
0,326896874857722
0,334296547571435
0,314260776765574
0,330679398247465
0,31915370843134
0,325940259567816
0,324666715161411
0,373047988624814
0,331362292024174
0,299281997317764
0,304289962199205
0,286350523140304
0,3062664163344
0,307914965069308
0,299048373735254
0,304248798550301
0,282755310783691
0,290110785779511
0,280046723138597
0,308198023539399
0,273008667072407
0,295226355505063
0,283584620262644
0,27849920151615
0,276418240276609
0,274776191077418
0,306645860952221
0,298145579334542
0,291047295285621
0,252413903474589
0,292148260633121
0,275596315798157
0,279992395374833
0,26954647235906
0,253138274421371
0,262352755474
0,268464018179481
0,249544360378982
0,263899615570446
0,254211366826681
0,274825964974071
0,260293104704354
0,299511142014904
0,28754463973125
0,256723359947808
0,248639699474918
0,240073095376028
0,248067523474222
0,242907938335049
0,230557794114867
0,269321491480431
0,233712548960225
0,25913039077126
0,256573705517706
0,263265589287014
0,246282432368862
0,250001051746323
0,243417558044043
0,253885108493384
0,263617909100754
0,288355760800347
0,255313087904122
0,272151010435998
0,259915685407507
0,280178289913623
0,264181163750002
0,277275769788695
0,265848783276183
0,276659876036922
0,277724809688715
0,289816136501889
0,286124368587643
0,300043952090638
0,282526216439607
0,333329791953921
0,310864741133541
0,321376470199758
0,314442628616012
0,339738036547216
0,361128636622579
0,347650489677149
0,354972061072606
0,346153487835043
0,357292082190062
0,36650120508725
0,356451006417046
0,383852695584882
0,3844752251398
0,389584278550639
0,379743243995538
0,392250066482869
0,38854938901209
0,395402627912961
0,412381141319106
0,398418384316553
0,464826164788507
0,425420733224745
0,442138886878593
0,414273820012049
0,418638969080628
0,416812526617789
0,42128692145985
0,420244716639295
0,411234727981179
0,429552807299546
0,431161039261985
0,428098101171345
0,427118140267895
0,421417748999956
0,432771722646707
0,429358251051461
0,433887398864572
0,436605818344688
0,436514617018508
0,443297996998734
0,429929769066662
0,444892877147024
0,481467216835797
0,460591520991434
0,452681837268598
0,45357868784821
0,465547903074956
0,455385235709396
0,46429631194614
0,472520099402857
0,472560581805092
0,468194326154511
0,468017618214018
0,474038024554013
0,463573215045824
0,493165823798248
0,480798847039353
0,48660977949553
0,491570100287031
0,467699302211619
0,520270378430738
0,501667072237116
0,519426673090575
0,492506879353528
0,509508168598938
0,491137259542541
0,503645872497373
0,493174822343959
0,504666210597409
0,50243441948473
0,507023016665104
0,499214359553046
0,498258787685609
0,503658223750073
0,491025760346163
0,500355946761191
0,507678161561752
0,502089099153743
0,49448647950212
0,496314460731977
0,495072310552674
0,489770090947357
0,504558715513071
0,498652395118017
0,501950251432184
0,477291531255808
0,49433504332461
0,50676444128915
0,499336228992956
0,490217347645742
0,491143078317198
0,4809728990717
0,497855400989255
0,482436463404114
0,492847586575666
0,495192635241567
0,511763020616761
0,499758879963111
0,506597935620023
0,494605567867531
0,505772613742082
0,50268166437788
0,514608637989396
0,5136765905073
0,513809800454983
0,518795926184627
0,519422939281
0,530318738287762
0,524672938867297
0,536686388225476
0,532781326648112
0,525694754371484
0,528535691508083
0,522530531296067
0,531971973520761
0,52606463904482
0,526602131425632
0,516346652253056
0,524129792891961
0,507366942647147
0,521651456656942
0,521806199719808
0,514754101207847
0,521183711496782
0,501834526925279
0,506414734216237
0,497590432105544
0,500468284830839
0,496113141761473
0,491780420651637
0,492654098884061
0,49266070793004
0,484118516074863
0,482076326591588
0,481821908496359
0,484494017688194
0,480119288897296
0,478460710670556
0,476829061293254
0,473443371770257
0,482765516203737
0,47629805709416
0,476209411821242
0,470750325650232
0,473512553750063
0,480398833141448
0,480706318441274
0,485546672351138
0,471766253720619
0,480356506392872
0,473556316474444
0,473082907022507
0,463976259010631
0,47386104935712
0,464655680259945
0,469690401622083
0,467555132424966
0,469180873925296
0,460483910244802
0,463793338325315
0,460276034999449
0,460701615234843
0,456846556161862
0,455472493918351
0,456480572161313
0,453806569081408
0,450462399623025
0,448418025131655
0,452849577612493
0,448143345309328
0,449622198842793
0,446414920889815
0,446901723919436
0,445988810471198
0,445553448674106
0,447169929024003
0,443313521458614
0,437573541851218
0,445075297812302
0,4405627014171
0,437777513057628
0,440843773988182
0,435691430374152
0,436891149193595
0,436074283046969
0,434500808849563
0,431752242562865
0,43250694780038
0,427966760644453
0,427221366353512
0,423691030778049
0,417645609422677
0,418439108436971
0,415014746001611
0,413432922407313
0,408349131308017
0,40879574054085
0,402940066970452
0,400331647803988
0,396384057435179
0,398899894890539
0,399469737032096
0,395986032719469
0,392866509078815
0,394654023421228
0,397035237381629
0,391782273227191
0,390175008012014
0,389651560117922
0,38739433643243
0,389700211103798
0,390037737423901
0,389491529059192
0,388264833196082
0,390894042820372
0,391565296855478
0,390389250571402
0,388680764617401
0,39210737274588
0,392840590677254
0,395940951208652
0,397341458229837
0,397820355879279
0,39735029436358
0,400078835366379
0,400523026133898
0,404838407214449
0,404847428843356
0,405659328586847
0,406187358165083
0,408794682010163
0,407756139116395
0,405628478678342
0,407044464790438
0,40928600895855
0,407220650609509
0,406250269878109
0,40776538593621
0,403301537177133
0,404072799658206
0,408899967008919
0,401328437144679
0,401438910997306
0,398852664980748
0,398946403663526
0,398900118652416
0,395480044799163
0,396624109972532
0,397026883169842
0,397273549401732
0,393958123652845
0,394288043460414
0,392836719844513
0,389389586154892
0,389013561089825
0,38899288401678
0,388458746322427
0,383383333576114
0,382325386401101
0,38379226711029
0,379870096792054
0,381316673180846
0,378490078815913
0,374252222764051
0,377575639395039
0,373093296039799
0,372184294816313
0,372117626398993
0,366160947422591
0,365563399836616
0,363706108181997
0,360783299941966
0,35827317829479
0,356592782188715
0,353203922232187
0,353757420519839
0,349404893127889
0,347199419846938
0,346902993559977
0,34654618275713
0,338745470248365
0,339987705533997
0,339541122692187
0,337408182078205
0,334807174437941
0,332866069860395
0,333113922437663
0,331361621105346
0,330437789190218
0,33226796458424
0,329191631375629
0,330674907615271
0,330774917466056
0,329914336802689
0,325457077430868
0,327794204256044
0,32387380583786
0,323044662882184
0,320463129358438
0,31596724408719
0,315122218106021
0,312307156815985
0,30894321358459
0,302857124644517
0,29942842103662
0,29373250125733
0,290669274429539
0,287892892158583
0,284518428498239
0,282579963505658
0,28358112931109
0,281446330763181
0,281760884816741
0,28093123610392
0,287483806063004
0,289582412209178
0,293702135866674
0,297741485456655
0,303891616541832
0,309476477602436
0,320918771381278
0,329475834035656
0,339714777965673
0,35208155234636
0,364260749109115
0,37748859118178
0,391017180866455
0,40645293956762
0,418005476297553
0,43327783582993
0,449002082415438
0,465306021848491
0,483491480408223
0,503006354436167
0,524264692835158
0,543872694026874
0,561384590127936
0,582721658605486
0,603993140509917
0,61908087840025
0,637808371109839
0,653577702510332
0,670644269749826
0,692635511666946
0,702279780091275
0,713067593263722
0,724030453588593
0,734076907027065
0,742895104601476
0,745754381676874
0,746721280444838
0,747445808000322
0,743546106969136
0,743690784557097
0,746460047692549
0,739081812507998
0,724714504116476
0,725938631842135
0,715485309022594
0,709538188500706
0,705112878806931
0,705999599027115
0,700618520512804
0,693758743204748
0,695948918252548
0,6909303470735
0,688268296240408
0,694753700911155
0,696353393113304
0,698787061035905
0,700290602675198
0,70601764963817
0,710529927542224
0,714840332283231
0,731156693666329
0,735036730714563
0,74390285860856
0,758140582540721
0,766942256715264
0,775040677174527
0,783695752522803
0,792655025856352
0,801285395155099
0,80342757890828
0,810798155416564
0,815566993183526
0,817039452158631
0,830404353715504
0,826998818025038
0,821394450353099
0,827341773353894
0,826833973509661
0,826634438876045
0,821080744455973
0,818143376926272
0,8168568624795
0,827067357024972
0,821161542760122
0,828205543632331
0,830682555145276
0,850858779188112
0,855350464892185
0,866039185034161
0,865047315398269
0,879603115836702
0,880958047171318
0,893262253595646
0,891228039643461
0,909494267685643
0,911939618392763
0,928197222442762
0,9311711070037
0,944778164825601
0,947890914255415
0,96232736396806
0,986257456271113
1,00226381562468
1,01784216452344
1,03563844593482
1,05996053679974
1,08964587459942
1,12235012874121
1,13797132758963
1,17066779591931
1,2040520035173
1,20123330503603
1,24759903671215
1,24796364896816
1,25493090598114
1,26095203293936
1,2963607315857
1,26399288542566
1,27968204222858
1,27697110377145
1,27850577788272
1,27385294473625
1,28934166381285
1,25010828929753
1,24479477994276
1,26149146576473
1,24357331119741
1,25091331759355
1,25106466774332
1,22845316293123
1,22705924970765
1,21794684047647
1,24336830440761
1,2170830505627
1,27328091721357
1,2499956635747
1,27664694312318
1,30556785743694
1,29862557236758
1,31772996059089
1,31687103982462
1,332911990709
1,36128594659581
1,38384632178806
1,39265913289241
1,38835349719923
1,4301718787357
1,40712197431691
1,46825986415465
1,46383614704405
1,48995971544597
1,47949229347926
1,5639717741747
1,51103180057307
1,60524550963537
1,55389772279482
1,60481951836474
1,54600179467507
1,64108642742564
1,60403831332731
1,65981525370241
1,65982909590233
1,67105986940441
1,63886435504152
1,67399901924538
1,64659401410398
1,77456299841933
1,77621266100034
1,71766084469556
1,72031507928408
1,70903828480261
1,83689667381072
1,78764216313657
1,82323990692719
1,76519391992936
1,77464971533598
1,84528435096162
1,7148102135541
1,76638484124368
1,67024588499979
1,7994805032476
1,68402127839391
1,69854909974004
1,60771233853346
1,60802674928207
1,53652174378825
1,55317624495318
1,46801009884498
1,50006281844079
1,46367496591537
1,42605553369955
1,40441151249261
1,38014567263914
1,32953570101061
1,3544739947792
1,32317220393303
1,32549223136009
1,28138425746901
1,30356918478137
1,2574957883449
1,27353243643895
1,24339772572317
1,20143789949264
1,21322286024988
1,20363941087076
1,17143319631456
1,16100585480797
1,1295419930466
1,11027085548258
1,08027978453479
1,06402582663988
1,0291959007939
0,987042242103225
0,946808130509065
0,92361636868329
0,87434354466628
0,845157880198555
0,823803091704834
0,793699175432763
0,742302753467047
0,717528176732334
0,690995947937723
0,666811087945995
0,631534225941696
0,615217154151502
0,582332491126182
0,570401282050347
0,544201923591835
0,532044307993898
0,519586034270481
0,506629645133433
0,492984616502944
0,478989985265393
0,468981099074478
0,462159999441516
0,448170363281419
0,44360765172319
0,440599300504178
0,428679635516504
0,42393663753256
0,424113232272733
0,414963842299565
0,420542497724887
0,421670921294591
0,416206897931172
0,413192705529462
0,414271878254724
0,408783840081986
0,411579997203177
0,412068199625878
0,415957234558916
0,408639637552718
0,421907109744796
0,424154324169609
0,425558979737072
0,426586717800741
0,429378451363824
0,428801642677055
0,431777421148597
0,43502569810057
0,436666683012363
0,431319371546167
0,432986934956312
0,436375877291207
0,446787527425689
0,438385598047629
0,44154957476757
0,443075393326276
0,439865176858811
0,437650305802472
0,448673691837705
0,444720435285451
0,452562500278583
0,44475652339941
0,451831582060883
0,451666710867102
0,456071624516413
0,453469871315665
0,458997931662418
0,452989098907161
0,465051083645314
0,449875179320281
0,463294913746028
0,4651068351305
0,459214044527795
0,457740947921792
0,468868858204053
0,454612117039386
0,450308140642231
0,450119661031733
0,456829790141716
0,448987246584337
0,451558452750752
0,452769238622551
0,448459664609025
0,451982924136943
0,462181666983214
0,460364710227789
0,465814443022961
0,45652037501969
0,471818377635867
0,477560655810758
0,484268029706425
0,478565122142029
0,48716708122137
0,500038160914292
0,51446897369213
0,5139482712922
0,527784177975245
0,528013708066519
0,534328488022393
0,532368288337738
0,529171137715252
0,519182281057745
0,536710656448635
0,511742374590756
0,51272903912831
0,515043296146405
0,518965771141599
0,502656087019288
0,497996467224864
0,496867203936667
0,497622015785193
0,496583133211244
0,499635557838908
0,510233965746682
0,512316310542075
0,493616553115044
0,506724087216422
0,501545297598011
0,512424696713396
0,501251654602719
0,512021446060241
0,518005319832972
0,520565828827375
0,496753957175386
0,514005492004999
0,509378406651831
0,516589965614258
0,507177373181072
0,533787610182753
0,51761030548523
0,522920319803929
0,519210109384179
0,524078034001727
0,515679217443097
0,526748237712252
0,518552054500552
0,523302870171928
0,515251184572599
0,523974104016076
0,528335037040887
0,532329320673396
0,514026498079066
0,532350035709099
0,533638781251985
0,54191991802324
0,527810315112121
0,537327217050608
0,532808502673463
0,542405303555521
0,519014652779721
0,53790070723279
0,537178932521769
0,522963462969963
0,544271357062266
0,551864294660956
0,526654612054431
0,525950590834226
0,523169121385343
0,542053755214799
0,538111271541879
0,519983033667183
0,537404378409135
0,549472459449196
0,543348518565156
0,531079069615831
0,522259848406321
0,522904982191701
0,529389250980404
0,530009316917606
0,519143825131729
0,531542664364933
0,521741316380068
0,541225208745052
0,543239339230054
0,552798744419712
0,542807453708234
0,544288897023266
0,543385462242199
0,557035798466798
0,541759793211199
0,559677379492225
0,528263413306669
0,564730807643305
0,549363110629821
0,576736541999365
0,568814437464929
0,571932873371038
0,557538155373126
0,56703504723344
0,576500974121676
0,593294133498273
0,587958529626754
0,594121427036187
0,597022092899973
0,575256277095196
0,588061808682479
0,63226778998406
0,592776937949641
0,603200206694293
0,606439792136046
0,645837238097201
0,643756013844756
0,644753738891316
0,640917853169175
0,675740278662243
0,66344928985511
0,710550512078191
0,672549201171279
0,71784723946691
0,692043459460616
0,72787571593015
0,731705063665842
0,750897069650224
0,724563851203877
0,726891654461297
0,757391157772161
0,763276644866077
0,752831693941674
0,789153857594642
0,731014650890444
0,820135925852775
0,816484323119182
0,755169079911668
0,697889456942605
0,766623526402586
0,756640408888878
0,807158432741524
0,785553087554047
0,793921951892767
0,797093777243744
0,816146899612785
0,737446320091011
0,784674542907928
0,755831526793442
0,810552091539992
0,758664196216148
0,814828401785335
0,746248709538157
0,833011346266597
0,791188486963594
0,822776647504114
0,769788616466418
0,840985707256075
0,787128405116272
0,824509063321118
0,794058038797344
0,834439255177021
0,787583802293366
0,826293528959352
0,79163457355339
0,786572889154754
0,75884437472353
0,797768451867158
0,782207800530319
0,828047927451472
0,782633427517769
0,854654742573582
0,751486664384108
0,87088211591386
0,790385866014762
0,780220812076736
0,786902780721283
0,811336994639842
0,755250700032029
0,8308460122179
0,769673559134402
0,827382305275302
0,808318412136368
0,912921005985667
0,84059505815855
0,862158846303665
0,723504273002936
0,876990495981892
0,843541401342224
0,872135878187281
0,741236592638298
0,84525792119865
0,767877776598458
0,923594350676706
0,805224421796829
0,89746838027267
0,864375128035435
1,01633615792893
0,894278355287551
0,946785486418228
0,799537961339345
0,993104832341707
0,921351090335485
0,898230496048866
0,910519452466794
0,900835794017267
0,819150413696397
1,15846627072668
0,897347633539776
0,95471323971277
0,919469911373941
0,882779433777474
0,884858041687624
1,13378676449695
1,02326115602026
1,1502799395728
0,849016947366235
0,954916826594658
0,833322795280623
1,30683384192912
0,940719853676009
1,39105950625272
0,908476571212531
1,09771298314107
0,920545507539884
1,24139004238566
1,03398270221057
0,934660441085014
0,820059089838941
1,02547778675472
0,843379634725287
1,21649528935188
0,8426761660534
1,51702522161791
1,01519324695363
1,23955227580291
0,98240360351248
1,00493282441435
0,875801014494983
1,37323985770216
0,989045417844532
0,873329746392545
1,08979346579155
1,12529616865641
0,893195622275148
0,933539290350598
0,832578373401775
1,38573463069598
0,743636964838295
1,0842677622629
0,884142110921344
5
1,17889027168331
3,11644621403278
0,944940249742611
1,51982985095416
1,05147088851121
1,03569986133966
0,733235837549077
0,919406644548589
1,9014459604107
5
0,968001682283705
5
0,652607129103435
1,82698224696819
0,683906813511083
0,597299904021328
2,43525449209305
5
0,879589709355937
1,7999029214948
1,30881487055262
0,312801797590864
0,718841901645197
5
