3596
4000,36533379555
650,420452594757
1
2
2
0,0539017877636616
0,0496325021414215
0,0524810680138788
0,054445437368613
0,0486198368028981
0,0562260517141575
0,0530556021019908
0,0505610791742105
0,0568824265877421
0,0570153046503492
0,0560527692035713
0,0604822106148727
0,0532971586668985
0,0529642229644545
0,0517861362274624
0,0493220270847245
0,0502287931224215
0,0518861685192092
0,0474517039227374
0,0522913228702226
0,0516291297938687
0,0521838674320986
0,0529951047379178
0,049043103575851
0,0541520645061522
0,0559320415165675
0,0464403295481527
0,0456593720139743
0,0547628798101939
0,055597935361264
0,0563136903649164
0,0563164170411803
0,0488085855507699
0,049752140428247
0,0496068586297614
0,0583038793184275
0,0497721872992632
0,053887636664276
0,0503784244427147
0,0430011513569062
0,0560159270598453
0,0520862441718783
0,0598052476389749
0,0565572668190436
0,0560968753434413
0,0585751394749556
0,0582753966215405
0,0552952660976348
0,0539246414097878
0,0548182475576785
0,0561068956347368
0,0499460882529056
0,0527408136020258
0,0605836096394974
0,0530273110764272
0,0566255262634041
0,0482222438220453
0,0540376295378174
0,053558314514881
0,0511973791301449
0,0545974659787471
0,078068005689379
0,0500445691684423
0,0601699453399242
0,0489025053708329
0,0519689713556763
0,0416892580277516
0,0541698059785158
0,046566289120794
0,0667253401785127
0,0428265968214604
0,0632560376758687
0,0636021664409789
0,0538306076339235
0,0593548482940787
0,0469535475264042
0,048371602635147
0,0516622002157134
0,0438514278910534
0,0527452456121717
0,0571034479594819
0,0550002034690748
0,0559371928784582
0,0458055905478081
0,0480988186704033
0,0642913315510087
0,0442859581933416
0,0479759424771416
0,0648522202529141
0,0571001646744959
0,0549534636342704
0,0493728520919161
0,0515870699004249
0,0513676055476831
0,0484851159404176
0,0529487980643982
0,0501492582869047
0,0458238899523974
0,0499109492611737
0,0440495932386875
0,0596913249645644
0,031618556009389
0,093904149304975
0,0395372745442402
0,0778608151338094
0,078605671552872
0,0342096581835017
0,0993644584832887
0,0540990034777316
0,060423247192249
0,0465811443075135
0,0507439630979476
0,0435073685979619
0,0594699846273086
0,0368670517693615
0,0520101534004662
0,0805671361325116
0,0529070518508916
0,0490033779657018
0,0554097867709562
0,0300522696655671
0,0380338240210613
0,0979136262483832
0,041473941396487
0,0628883645224348
0,0540276535906543
0,0278306224204467
0,0682715771735807
0,0885420541990388
0,0541147233453922
0,0601525092260712
0,0449359921430345
0,044493777528319
0,0256237614666284
0,0827628168168944
0,0544039443415554
0,052568799092148
0,0339405591830936
0,0444191844291418
0,099007219096023
0,0696931750933783
0,0555694326206932
0,0422283555068545
0,0271919111931567
0,0775983709279166
0,0610831762842802
0,0414817377999407
0,0652819386047222
0,069207559457338
0,0408550562945741
0,0468993837321048
0,0389446048373557
0,0566114411566939
0,0599205028868493
0,00566195717858909
0,024447966301424
0,128969229914534
0,01843028668762
0,125936688443054
0,0419828055326428
0,0642543850173319
0,0439830491672421
0,0485283565043928
0,0421422949002281
0,0470133954416656
0,0380995413477738
0,0385830478546792
0,076195756238625
0,0440578391030425
0,0366548810615663
0,0752576141996337
0,0621097787793941
-8,48301740027242E-05
0,101107396068379
0,0756953965931418
0,0252904557208513
0,0870960344937314
0,065998835510549
0,0447788907684562
0,0409119613649894
0,0817944793332912
0,0531265361957043
0,0518752503097718
0,0378891058263168
0,0485564701962412
0,0524708009222449
0,0606672302959219
0,0413143202012747
0,0624141262260465
0,016760541419092
0,0493114021889011
0,0761007066629714
0,0860944096803623
0,0418156962947197
0,0622226840305626
0,00889900498028295
0,0649419202907296
0,0919631342747432
0,0497465761632891
0,0522387477824757
0,0489085386028198
0,0442900364379326
0,0428368127859845
0,0422368750728017
0,0531310337013713
0,00709514265937313
0,0837567587926007
0,07033906680384
0,0510392639268067
0,0375025327504681
0,0378190868686998
0,0275073416309281
0,0799912094248671
0,0956804033034037
0,0462310815744023
0,0559908864733624
0,0361438464149525
0,0635642187629502
0,0656830505710719
0,0526708634116448
0,0492717179935702
0,0435741345850178
0,0459421238176648
0,0476823650528126
0,0399243366438913
0,0479427774361949
0,049966676371281
0,0410428802465689
0,0502539054927297
0,0459324586758902
0,060941749224503
0,0588201159443995
0,0450562822180968
0,0464269314003544
0,0398154451688436
0,0362952782435234
0,0751781087251318
0,0441346673506997
0,056178582386008
0,0428364699746965
0,0492077556063008
0,0445280660086796
0,0545690997296568
0,0399930064312196
0,0528134911577826
0,025050702656507
0,0830832556015636
0,0518833998763444
0,0571238994859422
0,0373075036715159
0,0542896876520954
0,0679048869034056
0,044567522352504
0,0502536900600939
0,0476399656480086
0,0425613812003064
0,036737969251637
0,0824996518211434
0,0595099411180548
0,0415732300096753
0,0556613190970949
0,0713038128714349
0,0428060103961032
0,053949443376206
0,00913923289197865
0,113802251056322
0,0715393362106247
0,00402978677794683
0,11000672845896
0,0822140220622531
0,0548216545329593
0,0503250452198348
-0,0213078583870125
0,129253512526825
0,123936598518784
0,0609829873774224
0,0475841108844049
0,0728243330873676
0,0505513433617256
0,0511345995839982
0,05609499497278
0,0372746411835506
0,0759985277522123
0,0611276976796886
0,121545559906735
0,0348105101657109
0,0688929073445472
0,0888625244108869
0,0514345112381838
0,058892231267341
0,0532545529466022
0,0470025954458438
0,0592165933774307
0,0764994973639591
0,0599819141952337
0,078470592252045
0,0367974607172668
0,085802062630243
0,0652945312548971
0,0589358296915957
0,0566839475620897
0,083146633853558
0,053497818116778
0,0656110043975744
0,0511454787699476
0,0692663589174187
0,0597784569983691
0,0249203715266691
0,100076023651822
0,0828145388899617
0,0373591953349888
0,0940735469323108
0,0676265205153358
0,0654585625897506
0,0595491971407914
0,0707890962699691
0,0543051059395742
0,0623099970045023
0,0432193303354277
0,0806304969596045
0,0801418531270982
0,0702266630936619
0,0674659853098366
0,0659268830716203
0,0695354210770711
0,0676373204023907
0,0733791157170162
0,0737391271769104
0,0703941609168278
0,0611948355590472
0,0755320546185216
0,122152999846354
0,0513906485406891
0,0781050361407571
0,120253448452215
0,0841562558408766
0,088839387681942
0,0756810504519874
0,0932388620927929
0,0842640951566946
0,086784676659502
0,0823076732887209
0,0884330893274971
0,100670601321666
0,104123368037722
0,0856010906831579
0,0855273349119553
0,111963209680608
0,172354341589045
0,123153303385143
0,115898270264711
0,0819428340745517
0,113245125191025
0,149976865831268
0,114966830644407
0,163207951778985
0,109106100428957
0,130471098184752
0,121461327477928
0,136723166716153
0,122405500019681
0,134001924508379
0,133227492631413
0,140402111125161
0,140865874266777
0,151821017101041
0,133064730244271
0,126922854911481
0,183196947360666
0,173119607111
0,151793398774339
0,170334199327859
0,149331971260377
0,177274101963644
0,17976772027364
0,188123612344515
0,213476694125398
0,174831049290195
0,245048255012778
0,182346575212701
0,192908633609288
0,182151828393747
0,197779103323137
0,203501045106752
0,200825378923339
0,201169223316718
0,208035440901638
0,201576378581901
0,221077458962751
0,212595030498257
0,224803281935763
0,20580353580074
0,248516535032516
0,232290252287505
0,242788027984125
0,232645016760284
0,235315039827556
0,266338777528558
0,292564140696326
0,273428836678023
0,255597494255055
0,268358024487988
0,245425653548078
0,275711968135879
0,264354179375381
0,270763845223296
0,264370561097081
0,319415015513
0,300436312145126
0,305137487180187
0,315141536339954
0,290941122523762
0,305791532255088
0,309992748511743
0,303702218477872
0,347433961379254
0,325458584103274
0,302573365585539
0,327299186255155
0,354794940369664
0,323824437377846
0,36992553679521
0,333385888895228
0,348316512138164
0,34397317727577
0,351324987130486
0,354030555146542
0,370251946738624
0,353045257031549
0,364919375188844
0,373956416426632
0,385193427154574
0,368782466020707
0,402002112969095
0,402271964050294
0,389707571060188
0,414398277134446
0,390779740924397
0,40310780206069
0,394137597165564
0,424378989972877
0,429167784808895
0,400984084942892
0,46611316964902
0,42548954953508
0,445615706101092
0,427932341897837
0,43969930933462
0,434122631335249
0,452950088350885
0,446770969827689
0,472664805953998
0,459811493747302
0,464471705996696
0,463868642697144
0,479142853364131
0,473103632297021
0,487309444987377
0,485529908186784
0,504659092736136
0,48761557481811
0,499662617795371
0,515268885573343
0,518112503980521
0,51075521384766
0,569680456513248
0,50427747851651
0,538842586129357
0,535435552539224
0,54434469579416
0,506543125112163
0,561362113079715
0,535454234923114
0,565597703368324
0,568870141252655
0,567664209893003
0,563297903301031
0,579390292125923
0,567452413829031
0,595616402596104
0,584769446436095
0,608845106170484
0,595290702876192
0,61666886822022
0,582017359075001
0,638786011143069
0,597597532530089
0,604803183568523
0,605588695529617
0,626022768895054
0,622643101645253
0,656962442460302
0,632495644974897
0,645068128051839
0,650692801458861
0,663695665326741
0,648958996674021
0,672000532663044
0,689756017629579
0,699009418998244
0,638698163124596
0,685448277482957
0,663018505092051
0,682376188886623
0,686792755211335
0,704431873619067
0,690232140809841
0,695932557616585
0,708196336827953
0,734013572970143
0,67141384249673
0,752111243211516
0,713414278170673
0,710665645329242
0,703944982014249
0,733260300938257
0,727516866701938
0,76521232368473
0,767106792640721
0,771135013861406
0,729001118720641
0,76258517449883
0,78991425159576
0,828016256364262
0,758551746970026
0,806361450977187
0,776418027392714
0,783058563173383
0,78957041806728
0,817421921507205
0,795756561980269
0,820858958428336
0,795512483994359
0,824198197738648
0,800689780296515
0,851368510096364
0,80365092514447
0,861178064166939
0,822080490400011
0,884261510276901
0,840586941940833
0,881162128519848
0,854026016039062
0,90347425878027
0,83840134797728
0,90341130900322
0,877924143488037
0,866320281530988
0,853949725973602
0,894204743232058
0,847894989220022
0,893267737002797
0,833916210423855
0,916844452871437
0,893903687300286
0,924392960790176
0,923749288161241
0,945886545605317
0,911761166576821
0,93411079165937
0,923240922137981
0,963497739812025
0,918583427749346
0,965115118620231
0,880998801852848
0,980008514998003
0,94643378570444
0,966324180901658
0,90490117802827
0,962277659625024
0,930789783806716
0,985374977574397
0,958538923407157
1,02507000852794
0,95272855279822
1,03929773269
1,02301242589121
1,01274779989905
1,01768850788486
0,9959975681483
0,97527694073749
1,04445660872125
1,03122012683408
1,08253689240455
1,04621037333869
1,06599582591389
0,977403686787038
1,0898540508212
1,05718942587655
1,09053648566707
1,08366411952425
1,0764857074807
1,02389770379982
1,08124573422418
1,07408935286376
1,078282131791
1,03007263659693
1,12773868429607
1,13221685723421
1,21482387069666
1,0395369182959
1,10166831853226
1,0641248436146
1,09322434057544
1,08725849966637
1,10769960320005
1,06469886610294
1,11177903911726
1,15017479419776
1,19346954466631
1,05936269392754
1,20225491411266
1,13938416345495
1,14214113195184
1,15079221561227
1,17423906334088
1,10451443604749
1,28273396197839
1,20806365379786
1,19097474474451
1,12087511301059
1,31360029390686
1,21409950606771
1,29685829592554
1,13650628146364
1,24517177532493
1,12817725910343
1,1913065818785
1,13031965222159
1,15470361014061
1,19725477962007
1,32236717625252
1,17878053527711
1,20926267878593
1,22544891068225
1,27401802137152
1,22285737620582
1,32601660080474
1,21806151883916
1,24885653372921
1,15456906522479
1,22011994324947
1,19043056962277
1,20153551146042
1,25599178996785
1,39000739960929
1,29115851884969
1,30644056563115
1,21144367182294
1,29328135348074
1,21919576458366
1,26383012763396
1,25228496245758
1,38809525617035
1,24504314531364
1,38881565896659
1,26015918753671
1,26085827852117
1,30134522298814
1,26069952805942
1,26524691044828
1,46689095186391
1,26411579387691
1,32120263123591
1,23691402030207
1,51752334518856
1,36388971281254
1,36264390485514
1,21672408909452
1,35699743419957
1,25126254017343
1,28976241967755
1,28891543778008
1,39661180846537
1,31814004574347
1,34158764146794
1,23376889858328
1,34430343218817
1,35357820460663
1,37797590563489
1,2907402986622
1,33019631324606
1,27793999603593
1,27145094491652
1,30164135284267
1,45942717685069
1,30828226854672
1,4528799335579
1,429232728485
1,48682252685635
1,3726445020115
1,4137975826488
1,3712801330402
1,44528077943121
1,28841346355284
1,34466433884057
1,2479356493589
1,37785236877101
1,31856649023086
1,37607721268063
1,29256756853233
1,38200374515915
1,28118226643504
1,39996579502673
1,32084266167864
1,43562935099803
1,40776110848364
1,35321532845286
1,33002142397132
1,35958030136713
1,32148639713096
1,37876911424596
1,26512537071283
1,39646652357441
1,35170216093033
1,36616441123793
1,35026399166481
1,32584573181248
1,22598710774894
1,3840751992883
1,35173436158494
1,44031464595951
1,36736048303727
1,41815678727874
1,36260560944649
1,3745598583362
1,30842261811268
1,39504188477959
1,31583886532233
1,40440441151091
1,41365244651159
1,41571907913749
1,32910452899786
1,5142302264353
1,34774946295991
1,35222536261188
1,34526321425949
1,43315249807836
1,36038011376958
1,38146768412026
1,3619370099319
1,40644226199127
1,34294853503772
1,43739131521396
1,38963344398556
1,41997938949648
1,35311211365437
1,43487671815052
1,40114304705444
1,39997101497685
1,2963647238071
1,3993557090505
1,42906485474122
1,5076851638059
1,33531427054374
1,42278138976775
1,36872644063568
1,35393150793471
1,3590481148866
1,3392152150896
1,33118251052267
1,47102721073106
1,35509158358455
1,383552896768
1,42182556316591
1,4254282349609
1,36546411617526
1,3644712056157
1,37551076064601
1,49019114805636
1,38809525028974
1,39601310770806
1,33752424235185
1,36886701281714
1,30185230780538
1,33695252165376
1,41488705710259
1,37827166355038
1,31535014594373
1,46059532572802
1,26615710656754
1,3043909827832
1,37625377771707
1,46746388402424
1,31013298404306
1,37711921775435
1,43415259659637
1,43847265174016
1,37586416343257
1,35606346059753
1,24219408401257
1,35758726872288
1,31017654456267
1,40193977134276
1,39783318042752
1,39807545169869
1,39794606402731
1,40607852560537
1,37787595945738
1,41130824632012
1,32262999032012
1,37475100563738
1,32519374062708
1,40621152620252
1,31402259912266
1,31583232029667
1,31787932577836
1,39299499273017
1,34716661399226
1,37696232317036
1,27931720016576
1,3417747501816
1,30087645514131
1,35746974220859
1,34531898027739
1,33258526384945
1,36724250618183
1,35976079750199
1,32630855401284
1,40884231384692
1,25256473108529
1,33194699361953
1,26624700095222
1,37471922682634
1,34928645617956
1,34132053749749
1,22665684701646
1,24618680207125
1,30778624579796
1,34905361143487
1,25129687898256
1,32917528532492
1,33321541483087
1,28152837261764
1,28730546285891
1,33547625614321
1,27191392088996
1,29789718052012
1,29298205732837
1,31242001928443
1,21879350220638
1,27766263729878
1,2910212644986
1,29110080272663
1,24351687182414
1,26755252200101
1,23251067224901
1,28159975821049
1,22884215798415
1,26536717410914
1,23459975437526
1,25011112940827
1,25063130843296
1,28106353171754
1,26227568029707
1,26589008226694
1,21134293895259
1,24866828321877
1,20055221505634
1,23699780341622
1,17030742845381
1,19843627140687
1,20744911379265
1,24368688911401
1,14515620280863
1,20787940835986
1,18734270863125
1,19416952535389
1,16237333121663
1,18973489300282
1,1760442156785
1,16946793498337
1,11976171493176
1,16020758692472
1,16364111350771
1,19839089632128
1,13309422076469
1,15457293848857
1,1311611286623
1,16625640318174
1,09820382190177
1,14193725768584
1,11722069178513
1,10234096535202
1,08297114765321
1,11670546192499
1,0873722250102
1,10530186800942
1,10958388678536
1,0575195366713
1,04092096992475
1,06426926256931
1,07935310498884
1,09640537688588
1,04926642403016
1,09149489578536
1,01602481741271
1,04216901261667
1,04581640744203
1,03908136058908
1,04177637513548
1,04720698987705
1,02880066505818
1,04393902522948
1,03028206964728
1,03351061919485
0,996478316711367
1,00775135163045
0,964700626938068
1,00855752063033
0,975850600047331
0,984649155888263
0,957093992578074
1,00122700674375
0,961830703204671
0,935608146826418
0,964732384041087
0,96942871493165
0,943542259715812
0,969071094002069
0,938192016779168
0,930562210291958
0,927622126719877
0,914829378807728
0,901508915640541
0,940031527755256
0,905252045397424
0,921441441710569
0,936454393437204
0,908139754004124
0,894080100835852
0,893712765754015
0,892734854004382
0,890895391488841
0,876185830736595
0,862525371116295
0,845654167971962
0,867034045701989
0,859115823312071
0,835343878451734
0,840751647684081
0,848182564351219
0,814666598205531
0,830096389165893
0,83834375908066
0,826479277628599
0,805105189038531
0,837625120896734
0,806676487328908
0,807947363197032
0,791479629752798
0,803759377478859
0,791407323285291
0,793820007248054
0,787308274015035
0,766182801082306
0,756713086054224
0,769743548484561
0,764761585763852
0,776688341132099
0,757698977190758
0,751511550387488
0,733316510812939
0,752523749504535
0,730685988230371
0,722719649629013
0,724488243267539
0,73328811873644
0,72563944880175
0,717711823795101
0,714361157394064
0,726764330561387
0,701893369583955
0,698350779715704
0,693370934920069
0,703931087092225
0,692264408821062
0,693880209145135
0,671885754827773
0,676330003266388
0,687382553585604
0,665823987342993
0,665979775461649
0,678212140464311
0,661463144640578
0,662782419773586
0,637500249431187
0,645254624824312
0,643982720061217
0,647984798836556
0,642351360168584
0,643479789649481
0,628300141915313
0,633925548813514
0,629967931784417
0,619060706098072
0,616982660755405
0,613310053934859
0,608183378535998
0,602855594647754
0,589541106740686
0,608484805631757
0,595561467202685
0,590767074986767
0,590699888919378
0,580489320813065
0,578485161112023
0,579750841846605
0,570424213927307
0,565609911993433
0,567288997640581
0,564882184693047
0,557547482234762
0,552814298980966
0,549352235012573
0,551861756549297
0,548734328977423
0,540451048174703
0,537814513417178
0,540156131408804
0,531592675173577
0,532082646788908
0,526782470354015
0,519089677531018
0,52155671930539
0,521208640299737
0,504248509384066
0,501467139097693
0,504543904490594
0,508808441979804
0,507123245237323
0,506348211993067
0,498791754178169
0,498696588706678
0,483384035758424
0,476369122402945
0,487196483671285
0,487158619974488
0,477487289222698
0,477162793012779
0,472797013650194
0,464353278685798
0,460636301735034
0,463460574375799
0,460382158343413
0,45933441443402
0,452287476346051
0,448620496617355
0,451940651452175
0,456594552345796
0,443600940473351
0,439719221368322
0,439186677005122
0,443887616802831
0,433847422606243
0,430301717095682
0,43388653545657
0,434337410062294
0,417939436604012
0,424480193444944
0,425492591298953
0,416438541093722
0,419305791212976
0,416149844578853
0,41162492149089
0,418657240446071
0,412141631748188
0,408620283461763
0,405971648856202
0,405992501612393
0,402863776505418
0,403515125691532
0,399499451891953
0,400639348186685
0,398780935982066
0,396100607066246
0,390612172730188
0,394645836426863
0,388327780453474
0,390650196543476
0,388633778020826
0,391600519143956
0,389722658178847
0,389876934131705
0,385463719629268
0,390863310894484
0,388685444123359
0,386717316392196
0,385695154928828
0,390550125447947
0,389273427776503
0,378935591347565
0,383513056436744
0,388572201388979
0,387044852187469
0,386685070268535
0,384400796445646
0,392337218962164
0,390544672666701
0,387254123910707
0,392193782005217
0,386828452828193
0,38084393284206
0,393698077294682
0,392909168921433
0,38962171704218
0,38148138954581
0,391264382793037
0,394999276487954
0,391172123357789
0,387199563246879
0,391395433855161
0,390564778055998
0,392491636884994
0,396971125364062
0,403249864763501
0,399009527998524
0,399907858024677
0,400352597093673
0,400533769497217
0,398790524735548
0,4105522525612
0,410517367325479
0,404827327898192
0,406655328365711
0,415390879335877
0,411095501010016
0,417541404507635
0,422507598497041
0,418890396810141
0,422202028144758
0,423471751046298
0,419807668016156
0,434615334737967
0,4361635951339
0,435489021764532
0,438525531951311
0,439952693978568
0,443812130162145
0,449822723385267
0,442761351961747
0,446802988550938
0,442072610323344
0,449624688108111
0,448226229636604
0,444768932511802
0,447361471777174
0,450085859398648
0,445596832754457
0,449244179383804
0,447857668757312
0,441622492868
0,444614933588925
0,441618418561512
0,441684096466638
0,450605887534978
0,436069192741762
0,434226690248123
0,437866588363441
0,433800965952638
0,431747490541944
0,433110581093956
0,423660596672084
0,434428306657169
0,418729993008325
0,41744338721179
0,426472607214948
0,41830074050065
0,415898725322394
0,41598460238306
0,414332055700799
0,419025491944373
0,411536336992523
0,410439855781093
0,411126488163738
0,410793463800998
0,406900665188539
0,406459427399025
0,40603017740946
0,40681953569339
0,40567984296889
0,405262102345599
0,396122831802452
0,392919271480255
0,405931895709225
0,402852241739864
0,393531757278564
0,403612088021316
0,400781794542526
0,396279305417807
0,399953687139081
0,40280667682655
0,401474543650317
0,398500685372312
0,398577292405345
0,397972917602868
0,391533441206891
0,390426379944689
0,390194373553558
0,385971400406654
0,386401564426869
0,38644326889225
0,383330989347668
0,385715113408392
0,380571748041104
0,376584427413382
0,380764738859423
0,374553686544841
0,370554924846118
0,373464587741336
0,365997718984745
0,365868461968458
0,363536180734997
0,364123547590632
0,356030412668993
0,358890263884387
0,35539034405416
0,351956384590594
0,350310156813694
0,343792284334256
0,339747897233585
0,346971486778838
0,346271676371929
0,341159015541777
0,343282115039909
0,334729284284234
0,32975972822198
0,326098930985865
0,327487815458857
0,329288345609578
0,317510359845035
0,321278831636229
0,319654579939282
0,310823473327511
0,307524273667414
0,309886208572895
0,307378060439833
0,306401668604299
0,304740390923569
0,301630838832856
0,299193648445712
0,295880392881062
0,291090234198099
0,29523596054383
0,29120026585938
0,289240660867364
0,286945727263284
0,287672314636759
0,282646218681693
0,283463848481604
0,277363671690996
0,276330700160713
0,280372269095499
0,276638643503815
0,278833618712724
0,274150442078825
0,270324226805186
0,273829948028124
0,270767129130317
0,263805081442765
0,264848004105908
0,265490359777836
0,261774674033214
0,26119057635338
0,262134660721406
0,257598000353193
0,254900501855645
0,251988431898662
0,251296252463767
0,254406041777179
0,253317926456801
0,256147370055001
0,25186822424323
0,24775806469601
0,242494696560203
0,241849999245554
0,243173657328774
0,245580242002003
0,243644997554932
0,242174412253828
0,236862643497402
0,236766324673265
0,234844352327744
0,23303189920899
0,236498949175867
0,233312946438969
0,231923054487471
0,229242615102494
0,227625235956082
0,229163024983111
0,223854664038726
0,223196618743043
0,223889230492394
0,222749410178995
0,224519981496689
0,222362774028861
0,221426517758984
0,221543099348268
0,217970006431325
0,214690056404371
0,21674773338501
0,218371955367357
0,215285178683978
0,216474319332655
0,215821276592504
0,213857207306655
0,21090972370823
0,214224563230306
0,213846317129999
0,210806865712925
0,212128387329985
0,212176550652334
0,211581178825142
0,207238848949567
0,210033646255
0,210692136669844
0,207885276885755
0,20593790886245
0,20790935360429
0,207684213262344
0,204419397532005
0,201875482375705
0,203376289220037
0,202378332165616
0,204169489170008
0,201556991809096
0,204391807280316
0,202367749639322
0,199160627556344
0,200816727808049
0,201285416082136
0,198653130915917
0,196480435332814
0,198280851424764
0,196042832700097
0,194157942577127
0,197993007622006
0,199170091374795
0,19355284639201
0,190013886319241
0,189722157782002
0,18975125773886
0,193970434508402
0,193684251787552
0,190512460653092
0,191543632627674
0,190379523825627
0,187647294078251
0,190988858942504
0,189628438153655
0,185404958475409
0,18449709528893
0,184318344550626
0,185413632426598
0,187083996700885
0,183964569124314
0,18427647578638
0,182859279848647
0,182637180401758
0,1841959043128
0,181279147251079
0,180781815222242
0,181230559561717
0,181939545751868
0,182061679072322
0,182136612855186
0,181147767061265
0,176725548391525
0,176679882242146
0,177777970873378
0,177196817526902
0,177359708788321
0,177402550429981
0,177438727913846
0,175026812653418
0,177332721531276
0,178657636243488
0,178572640798842
0,177512461519215
0,174534980301336
0,172307002421602
0,169643799480624
0,171235550654429
0,172839680497705
0,170129514084693
0,171627314040858
0,170237786888563
0,170508929335658
0,171714193238657
0,17129830831701
0,171239492239567
0,171620271608831
0,172456387174462
0,168092937474626
0,165671984305378
0,164409772371116
0,164389901901925
0,164425291241967
0,161633111834798
0,162487309797139
0,161922660561094
0,162590698848981
0,161068410113778
0,163549544840238
0,162156257288749
0,157426880427045
0,159157722068829
0,157794159784518
0,158316962833332
0,160750097489265
0,159477494656049
0,15631327484076
0,15783752916122
0,156785132045644
0,152186060296058
0,152731771589807
0,153860021173787
0,150763553645192
0,154019675746846
0,152720019857193
0,150018228718505
0,150330426622812
0,15031634998613
0,151284275663852
0,146340590655754
0,148397054239549
0,149274934947186
0,147766575754152
0,147078732213618
0,148254394565812
0,147453093241639
0,145008687363986
0,142921044615241
0,143801638709371
0,143423517123859
0,142938018054375
0,143865388991203
0,142181231763735
0,140965764783226
0,140866693146213
0,139312594478241
0,138151260177598
0,138578037327205
0,136706672502422
0,138051126822666
0,138665066655482
0,137820395738546
0,136401724252775
0,1320555773082
0,135554707472486
0,135388766476552
0,133159475108609
0,134549936813298
0,133636605974716
0,132226852896198
0,12882492553789
0,129774987570354
0,130050212708959
0,132720476443264
0,130148468859631
0,130604683559025
0,130029940851886
0,125623427190505
0,130154280234343
0,12774652218533
0,123422945373097
0,12192069211415
0,12151043147002
0,122108915225781
0,120373242445984
0,120431579529603
0,120041351716541
0,120540504941106
0,121505712979463
0,117920967329255
0,116495040910132
0,115706659669398
0,117657356086444
0,120138325638982
0,115882971525174
0,116734070797127
0,114842652678661
0,114279560499658
0,114811453764528
0,115835500442331
0,11580394002599
0,113979420722607
0,112607387170754
0,114716006852974
0,114390512229574
0,111092457138109
0,113918364444602
0,113086538497196
0,112915098210342
0,113432125820843
0,112207293832844
0,112186939016866
0,109422824100633
0,111720947614671
0,113163750397943
0,114557323193131
0,11302767569254
0,109509120314976
0,108596026403123
0,109165267925144
0,110154491496575
0,10765708547158
0,107699215353695
0,108027745587668
0,106777920088562
0,105701954698724
0,106317443181673
0,105689937416304
0,107298886719358
0,106794233569274
0,10642944520003
0,105783317578727
0,104304529360889
0,105544137449513
0,106025136784778
0,10540449323156
0,104341132259676
0,105947829028678
0,103100206760996
0,106108333720241
0,105016139560909
0,103556841981873
0,103782682524529
0,102884907480346
0,104455526929739
0,10451308307188
0,102690585719652
0,101187562720175
0,101974122964548
0,103343838979486
0,0999469969818811
0,100695887077851
0,100772788809248
0,0986254989634305
0,0999114629969804
0,100850351297053
0,101494502650686
0,0982461568254531
0,0978447151447081
0,102577708391448
0,104121764018533
0,101463158595698
0,0996379262265646
0,101981396047043
0,0996160966683653
0,0980657826632585
0,0988141656604053
0,0964551793303248
0,100352002577204
0,0997341113418039
0,0982213790362966
0,101912564926276
0,0998046683039307
0,100954093936547
0,100159279666477
0,0994737932753059
0,0973631502992619
0,0966577131941636
0,0987025695120591
0,0984444337204705
0,0979319105872773
0,0978276780762695
0,0976190838317629
0,0981172168332294
0,0965506426039715
0,097550993450001
0,096901396016788
0,0972598462641537
0,0971252398990374
0,0972521708376095
0,098179851319067
0,0934837447108972
0,0939327984813724
0,0945285749384451
0,0958368517790022
0,0962465077904861
0,0930383581811009
0,0928996372369754
0,0932297890358634
0,095654401204474
0,0955574747828448
0,0945711003956624
0,0914182636490689
0,0922185041106539
0,0935601009857834
0,0904482175736656
0,0924873598765866
0,0937155808124735
0,0929372850589491
0,0907824946944241
0,0891530898981823
0,0903000449162369
0,0912085946797651
0,0922782222884371
0,091693369566541
0,0911491194074941
0,0907255012660882
0,0918547228817122
0,0892390921298673
0,0892989325038673
0,0907460785313901
0,0906357615573647
0,0921965003789929
0,0909769546348738
0,0888927513598152
0,0893032937458095
0,0913170562377335
0,0911312507927586
0,0910321373319006
0,0922965143093892
0,0935749994457559
0,0936412816906336
0,088401879048523
0,0892521108687793
0,0917517141536167
0,0879839170066912
0,0892791959455871
0,0897164398554454
0,0888001929959314
0,0871427648714255
0,0867420022498663
0,0910222766513516
0,0883346668103783
0,0865083225554475
0,0884567782652809
0,0891443126462814
0,0868916633066451
0,0871122975397774
0,0865729315074518
0,0899626035219795
0,0891672736466844
0,0858015932183858
0,0864463880146007
0,0855495127440936
0,0849351671843145
0,0859564290710439
0,0850734694931001
0,0861488662719057
0,0870231208386579
0,0844772133988236
0,0826035377843383
0,0837774592584004
0,0860435376958258
0,0847770787240561
0,0826882219229954
0,0821876973895407
0,0823629315342335
0,0819035474650131
0,0817656544536507
0,0827541873093323
0,0830078891584566
0,0824412588231759
0,0834230548226548
0,0834660069355276
0,0827043162947673
0,0811937777654948
0,081354541565702
0,081013523659396
0,0811881240983046
0,0809563537876087
0,0807794566440743
0,0817993192877889
0,0813430117448949
0,0812423727695467
0,0800418802061399
0,0797072383152634
0,0800258112376327
0,0801152895855548
0,0802592588346519
0,0801177373933981
0,0824378762364527
0,0796438005874113
0,077481764070838
0,0787329499077922
0,0798736408813698
0,079656420108023
0,078901779897082
0,078389835730747
0,0766146729317869
0,0779363001340779
0,0784093033967123
0,0799908622102825
0,0799172519515305
0,0788686324678832
0,079644645328258
0,0774713143610978
0,0774621395514703
0,0791153652698467
0,0779311026731472
0,0790485547020957
0,0808339681083507
0,0781344873696536
0,0754439924912514
0,0748130227320504
0,0760726618821982
0,0758022042097073
0,075593912553605
0,0775290302212777
0,0763753504908709
0,0756610364046529
0,0750226346253887
0,0771044884579462
0,0749183675558938
0,0747387534931874
0,0744951832777479
0,0736098122723917
0,0770354018594003
0,0755080359022737
0,0723327999799368
0,0739356515297228
0,0754288801082959
0,0745578057191501
0,0747360185857986
0,0770521634017936
0,0759394180002417
0,0718964050846376
0,0754488348717213
0,0772694245769209
0,0744150367057283
0,0741878752320963
0,0739627437461471
0,074038607655946
0,074647946220959
0,0745060679876418
0,0751238395595451
0,0731649003376175
0,0744130793385665
0,0761434415781542
0,0776971350589091
0,0748071703896161
0,0726650433219914
0,0782095143733107
0,0776194906704228
0,0742313129108282
0,0735464440632811
0,0733306412711685
0,0760614146482367
0,0760616468336951
0,0764097212623697
0,076627531211595
0,076649414386263
0,078162513516453
0,0742198073569791
0,0734910699314568
0,07223526063883
0,069672048009962
0,0789068431342559
0,0840783250874785
0,0763675839648832
0,0666508136969304
0,0725742443288463
0,0782456953254839
0,0747817617110999
0,0748096735415698
0,0784548596398663
0,0726590660138314
0,0742658754820676
0,080415268873651
0,0765530652757044
0,0775848956188295
0,0741266686751989
0,0766091730741451
0,0770871657018329
0,0758075809323013
0,0817265163171228
0,0803722290277307
0,0762070678948864
0,0728033306222409
0,079889940012474
0,0764467831763726
0,0774309751171673
0,0769481157386861
0,0764216483601299
0,0750613093665669
0,0777992912340111
0,0797724456026328
0,0833971549451328
0,0792088302700885
0,0780276080848336
0,0716030388153307
0,071810962620105
0,0702227845318467
0,0713974868668714
0,071710251916848
0,0826636404832607
0,0787070797448852
0,0800574022560255
0,0735033616693225
0,0746913770473433
0,0787762781602111
0,0873938630202365
0,0804136005184735
0,0761958395829874
0,0732134279984002
0,0822763775849592
0,0851211769233663
0,0775560756313104
0,0773711048093183
0,0807637918917584
0,0864308913670147
0,0707641905165781
0,0811938329316307
0,0780142083268578
0,0826870235796316
0,0763449606910191
0,0867223183881716
0,0749580578294533
0,0800867120145137
0,0789964440988866
0,0784092004473259
0,0815746329953853
0,0782426024973193
0,078186929014414
0,0780395925279664
0,0792552632033754
0,0765812421417282
0,0782184953431395
0,0794998505876962
0,0769062831686176
0,0791639861448831
0,077894004186669
0,0799553670235565
0,0791086074635791
0,0779805497371961
0,0788296577221544
0,0792615918684422
0,0763653525184726
0,0769454469543561
0,0785165880392212
0,0805756488247485
0,0794642694736265
0,0799016657031238
0,0806394999732136
0,0814983568359184
0,0781237580906331
0,0784172640827497
0,0813339494071297
0,0809022344151106
0,0803614476621411
0,0814894837355619
0,078003771888119
0,0792274571371839
0,0786579688173863
0,0821107923103812
0,0829838748954472
0,0810689568006134
0,0806103677627939
0,081750685259189
0,0797134136187618
0,0786727725208184
0,0807439571185097
0,0838237597816743
0,0811571239031727
0,083054412209239
0,0831906248262856
0,0816093018839287
0,0840809771015168
0,084909654468121
0,0822590949041899
0,0833753183108494
0,0836800186676108
0,0832731458161704
0,0837887825078405
0,0844520471749756
0,0839870629893945
0,0846201762285523
0,0835666198738044
0,082150000047551
0,0844108863578788
0,0849093183779642
0,0842907163439005
0,0854191551252068
0,0851855508212629
0,0873044111908476
0,0866823124453811
0,0865077467050944
0,0855552908666087
0,0863675998938222
0,0857485950655934
0,0865346251237505
0,0843297788785477
0,0852472545099671
0,087859510847935
0,0873456566120542
0,0875013008646575
0,0875318020490843
0,0861857131118018
0,0859520761522955
0,08568887930493
0,0875522408205722
0,0881011893256673
0,0882233805180957
0,0880023949474029
0,0876667595352637
0,0859738222170173
0,0878413270589451
0,0899599436873571
0,0893807462510218
0,088592765986423
0,0903719594696156
0,0895306264748718
0,0899370246415716
0,0891248428896062
0,0906232328666203
0,0904868848756326
0,0904367579912914
0,0905552698155622
0,0914191633739707
0,0897212014905858
0,0887445940796789
0,0916532767071352
0,0927419256118729
0,0905852027146456
0,0922022302507168
0,0924637586984707
0,0932179928508821
0,0929840073192611
0,0926293165801704
0,0928229601637101
0,0944440233314588
0,0933161518178262
0,0932377709116557
0,092197203261004
0,0944146806923868
0,095718602402358
0,094375454899095
0,0951598251306953
0,095811029914931
0,0948671138456328
0,0968363396820475
0,0962658404662373
0,0959418208880813
0,0957063342149714
0,0939922243405694
0,0933766210946693
0,0958843793048732
0,0959626203808714
0,0964462482668956
0,0962873920684995
0,0959145368144948
0,0960454886839138
0,0973738827683835
0,0977675649053882
0,0991093306356911
0,0987192266055437
0,0976584875809865
0,0967941416482022
0,0979615141472774
0,0979714503164798
0,0983323185932735
0,0986966022786967
0,0997119364771695
0,0978168833027648
0,0981056763108534
0,0962767509452123
0,0987361139963968
0,100358769076526
0,100367782229613
0,0998759319146353
0,0980060059403522
0,0974365901395527
0,0999188939896536
0,100200784529708
0,0990165468630458
0,100956704949881
0,10054102665073
0,101410684953684
0,10351108850632
0,102608738855557
0,104350733249025
0,100900047455685
0,101440125477431
0,102541645837943
0,101373130074304
0,102280862912727
0,104618223307814
0,100767584331653
0,102497076604558
0,105071870517896
0,101626974136156
0,101846416779724
0,102286820831691
0,102568185202597
0,103458402810769
0,101912212221676
0,101642742185456
0,103379717392537
0,103517172529727
0,102801089081786
0,105669007337073
0,103977579870997
0,103528817037024
0,103530191913261
0,102694906840923
0,099191088118863
0,101620428320025
0,102317809346284
0,104068422881541
0,10291636626229
0,101688900027297
0,101618567481099
0,100464571326012
0,100534158026167
0,101922944017915
0,101898770106606
0,102551133870219
0,101869513519967
0,100615795509298
0,100994474221623
0,0992926826644051
0,0991506867021486
0,102634420824885
0,100944235690785
0,10193892390197
0,101287019412516
0,0998851801618342
0,101481025469801
0,101389848037634
0,100189280762362
0,101431191565286
0,100875092224536
0,101250574093541
0,100591056125889
0,100819597938037
0,101478541481383
0,103730734561082
0,101740535598899
0,0999021760151777
0,0999808593260307
0,101733966759192
0,101976667207414
0,100779179647377
0,099576234572464
0,100113313853429
0,0996497565275638
0,0994325004775467
0,0997810645294857
0,0995283970748315
0,0989500496080979
0,100891590646395
0,0998656068231214
0,100176829480612
0,0971804408482247
0,0974390582068332
0,101772925658494
0,101767328921449
0,0991586995987877
0,0980772850031052
0,099921520366263
0,098762568307615
0,0976536473152235
0,0994016565012833
0,0999381513141943
0,0987463990606906
0,0968858121853077
0,0998544646480293
0,0989767128404694
0,0974871778150871
0,0982862421554639
0,0984406269396826
0,0964427479613129
0,0966907358905735
0,0969329776273719
0,09583141181939
0,0971866937741009
0,0978370717423982
0,0963002507449192
0,0979934019702862
0,0970626448984019
0,0964923886651254
0,0973014166652485
0,0975647444129651
0,0959165159902326
0,0955186971985486
0,0950827657091574
0,094762836193
0,09554001228045
0,0960060123714048
0,0973693807430246
0,0967254944830211
0,0944390860664111
0,0939236895139913
0,0934729154254655
0,0930827266317242
0,0938461214094226
0,0959190381454903
0,0919904185321648
0,0939456918160897
0,0932610289730894
0,0916528280224017
0,0926523582529945
0,092458508244192
0,0930576684243793
0,0938150266234245
0,091321883360047
0,0904273186298692
0,0911653277058541
0,0949030270004818
0,0912522820959779
0,0884147065809626
0,0882080833161056
0,0900823328065944
0,0913155920134873
0,0906069062418405
0,0897299681830085
0,0891531890706351
0,0888515460086591
0,0898036091245482
0,0888930056303116
0,0873214454100329
0,0881300600557246
0,0879043356265708
0,0868408063510285
0,0880262443890775
0,0864739731138494
0,0851362678319635
0,087356197741918
0,0877094642532437
0,0862704456801289
0,0854423993165739
0,0850379705680613
0,0847181774433529
0,0820020096027628
0,0882721506308303
0,0847713409988557
0,0841797693806387
0,0837706328711373
0,0829620475393799
0,0831727308466121
0,0845342561618543
0,0816960619971757
0,0817575396762578
0,0829712430065627
0,0816035794458673
0,0801632682659451
0,0792706950741857
0,0783026104519721
0,0822942435614413
0,0796835885138235
0,0809543740669422
0,080166609879636
0,0794429529967303
0,0774101993359572
0,0797828447859139
0,0803099548261069
0,0783830415758347
0,0776043363781425
0,0800819102600233
0,0759307298522856
0,0816638732210105
0,085670432580034
0,0823959789400185
0,0777154332975655
0,0778341751945295
0,0784256069914595
0,0778308181116769
0,0777695751551577
0,0788749602979771
0,0744891731509312
0,0772315543340374
0,0763144562434084
0,0772096203693959
0,077441302553405
0,0744310041316782
0,0751964871547801
0,0767167873039104
0,0761081519021732
0,0755217521606848
0,0755703578912193
0,0759954979570968
0,0738555953791241
0,0758200066859497
0,0759889461612923
0,076505150175513
0,0729350652815602
0,0731481841958195
0,0784515584562673
0,0794885179479463
0,0751116035305712
0,0733759908787257
0,0727556766192914
0,0725267090361604
0,0721896055188566
0,072485611715023
0,0707323865641723
0,0729342237735087
0,0743966181441687
0,0730599230593822
0,0707199128137444
0,0715611677153141
0,0715121126190652
0,0702112959286492
0,071838847311703
0,0709573802922872
0,0702154166895045
0,0709934974397631
0,0722469999399835
0,0697821680282958
0,0709569044604428
0,0721293810044758
0,0728507733247543
0,0673600968969409
0,0739334247437411
0,0789678354737814
0,0754758551962923
0,0703920474001453
0,071647233146248
0,0697429113211446
0,0689781283563672
0,0688421405758363
0,0694335740772793
0,0703878621569505
0,068355047159382
0,0714833657640301
0,0700302335187522
0,069142556824097
0,067701969989152
0,0685901963663769
0,0705815175291342
0,0683436727569251
0,0700724470776526
0,069989435499159
0,067399696225034
0,0676689884836593
0,0767645033059473
0,0723020577290652
0,0710687696534461
0,0672488929321931
0,065365313180761
0,0805503826823745
0,0748434166416792
0,0715649726445122
0,0674114690238845
0,0704068148729298
0,0663652200769262
0,0694612294092623
0,0620748779956309
0,0676476844033048
0,0686973653358406
0,0716505175383435
0,0680806641587354
0,0701497266777091
0,0671570154689241
0,0681847907910104
0,0671525212817426
0,0691093349620059
0,067265596335672
0,0685066523977577
0,0656041176582593
0,0672076067492524
0,0664778966849813
0,067144044774275
0,0620992179732602
0,0687973909762455
0,0687309499663694
0,0691730790824273
0,0653361365447732
0,069781864881666
0,0606226811702422
0,0708727127047938
0,0746217866624834
0,0718431588326285
0,0659091373009833
0,0676159259509681
0,0662310933231083
0,0657435154764988
0,0685385795105845
0,0682241856719816
0,0649804936020858
0,0657308267199625
0,0667356167007618
0,0652813694884513
0,0656475514492988
0,0656974027179946
0,0668515269192042
0,0660314451301616
0,0666922391596084
0,0654754446505291
0,0671689241682217
0,0676716998530153
0,0632396155766331
0,0779992721926156
0,0758984141867325
0,0772743780289686
0,0721157332983419
0,0727963241532541
0,0674549209296624
0,0697194524233677
0,0652503090097117
0,0672642557317557
0,0635472207406956
0,0674647413630115
0,0665326050099666
0,0702568732375144
0,0669001741935306
0,067678789768179
0,0628520429123566
0,0663498930665268
0,0638344948044878
0,0686908892744803
0,0645607677308062
0,068403468097611
0,0663092569290551
0,0663974353252083
0,0671532732532761
0,0723074974944223
0,0683204011670748
0,0594549939557972
0,0792353444198063
0,0796427966362926
0,0772755647671928
0,0677414148949922
0,0706974009569027
0,0674017471065195
0,0679385681877954
0,0661743943789566
0,0734797250505877
0,0681722742504189
0,0683146315318848
0,0671996380346005
0,066819781590701
0,0680740849573001
0,0632304576992665
0,0747741604105353
0,0884288837541655
0,0768602181386222
0,0756539594174864
0,0634224363057856
0,0765701512822507
0,0859470999251226
0,0746368387653603
0,0689359492577824
0,0678292062954597
0,073245221711461
0,0695703449724029
0,0680403467914063
0,0685723976159454
0,0759143323726106
0,0707544667903566
0,0721674406034058
0,0709765075766694
0,0707061139829238
0,0682631328556648
0,0678019202620967
0,0733294830057384
0,0773261392407036
0,0730714484332102
0,0766170458443567
0,07479988862248
0,0733823360428919
0,0723159607430855
0,074023319667209
0,0692931014804944
0,079375147712361
0,0764841829973154
0,0761062802593151
0,0788491832961568
0,0810157689841621
0,0733312285084829
0,0755024295286533
0,0795166630951127
0,085122691873322
0,0628316779856297
0,082767717096201
0,0821290937141198
0,0979595091052328
0,0815162373701276
0,0847609573658719
0,0746892263557247
0,0809245773363543
0,0717234838646694
0,073591888836497
0,0839184721327079
0,0813908996155216
0,079103918444835
0,0753531817791962
0,082799692192251
0,0808253945069817
0,0844343461891485
0,0782564249547349
0,0833260268249746
0,0754206617033643
0,0916188470927822
0,078668077065051
0,0791169263804425
0,0928039761350077
0,0959564489313816
0,104308483917795
0,0861548500425016
0,0883813043317194
0,0939665316124356
0,0939979115520592
0,0900630598237783
0,0846515026580897
0,092431916270362
0,0797516759726666
0,0893684762185776
0,111594584988345
0,0983341000965947
0,0902748844873198
0,0896109380264777
0,095869179385475
0,105176151663465
0,0979721810879946
0,092905504147432
0,0962656556608232
0,0947437506181638
0,086540957166186
0,127308163422447
0,107300605831634
0,114008315843245
0,106280804758724
0,119099807865423
0,10726320524695
0,112437487896949
0,0995289716546002
0,114388307880284
0,114340064214479
0,115953103547437
0,0970009997026805
0,122933726739251
0,120119526820736
0,1194762517806
0,112044745320941
0,111620987275687
0,0977410566929672
0,122479023551809
0,149227532114562
0,147794509050462
0,119368000555569
0,124222233830159
0,12885411914574
0,127015205778892
0,123891766663728
0,128651386502787
0,127812947071346
0,125478262633546
0,131162274288356
0,139931030627604
0,132806093286197
0,140807872196471
0,133088582866623
0,139362734313942
0,137619948023588
0,181735296470941
0,161195857400628
0,158763155945838
0,152847667781012
0,16832223063604
0,166994970104719
0,159110701885882
0,162076446937719
0,164409953129147
0,173254335684241
0,171035116455252
0,16863903859863
0,186762301502612
0,175388323716145
0,208027757112586
0,196353122309616
0,206355776088075
0,176301491764919
0,199359045957815
0,283548049519602
0,243537317656218
0,229190264042397
0,207018956823213
0,248200880822966
0,265318558966203
0,258767767214464
0,24077095442865
0,25158463658264
0,244967268559664
0,258102695219323
0,267397712869163
0,277842292446668
0,285507194460165
0,289247131285481
0,276777883883042
0,299837996502241
0,34186428303842
0,372917931568858
0,32988468919355
0,327989148316315
0,334709287874054
0,351599805244051
0,339106944844074
0,359274559486842
0,340821181083569
0,37857987194217
0,395846506566949
0,403190027052377
0,371338977446495
0,406020764866926
0,409326840335163
0,411054359228558
0,434604729832059
0,443914276956798
0,438615078430145
0,42695615760341
0,44883641932312
0,441892689593422
0,453901262173854
0,468236263067905
0,487972840930627
0,484755450489806
0,476408610599995
0,490112816637548
0,4898482057921
0,502271878655821
0,498257358192773
0,507901909546561
0,517793655614181
0,544220087723008
0,676149977629906
0,554562692930793
0,543498675610749
0,525997143710138
0,543267558249167
0,546438382413015
0,555508399881567
0,588442193491074
0,566007120292391
0,557518300140527
0,542891234719904
0,552377325803167
0,550915120925785
0,565213114508779
0,552652799205016
0,556594517654028
0,572900104598256
0,538206958840659
0,600870294109077
0,601794854125651
0,569351030480585
0,538738321197705
0,54704805905735
0,528587766381665
0,549109461378786
0,523519327314258
0,536691176266308
0,525337430615452
0,534671091851217
0,513069327038909
0,499735248729724
0,520158495066904
0,520694199975454
0,500929602466084
0,484897991560158
0,477017325483287
0,476205920681262
0,457858950999979
0,473208395866362
0,4924824636797
0,470178363628966
0,437220859882292
0,441267365855962
0,428946535919499
0,418566103312071
0,413093093425427
0,413820898569172
0,402250127041264
0,405881334902298
0,401305407651245
0,391462012266388
0,379283363031441
0,377608925018457
0,380083732349813
0,370528946023645
0,369915736897329
0,363140209031221
0,357531426840803
0,352923426542608
0,349479281947346
0,350648888493199
0,352671849260048
0,345291715783478
0,347041075334076
0,338341266197823
0,336791301850605
0,333603163812348
0,332233449378759
0,331521489001247
0,327950697492213
0,321747929031778
0,324723513213729
0,32074104654523
0,321639108798777
0,309890525944319
0,320193546110188
0,313243494255384
0,312886101487657
0,30761256737523
0,317642447129632
0,304737115598127
0,300204267606391
0,338554197151256
0,325623146683946
0,319718433807825
0,299707188488181
0,31238095858352
0,294191454488226
0,2969356635628
0,309690292143271
0,320492231725446
0,306474130256992
0,294367335317612
0,290349195415552
0,302022315998758
0,29298482270223
0,297004421180814
0,288686317265517
0,275054026431885
0,305693730884524
0,302453929842753
0,369153688524403
0,337901235472328
0,318082944952786
0,267878241173421
0,308949685321116
0,295793262627409
0,294820025938517
0,27067148251731
0,278372150652805
0,284489208669689
0,280994029075727
0,282052502256987
0,272577359333827
0,262362554363716
0,277405666544585
0,287739966265153
0,269906183271916
0,279826910991091
0,268562077354519
0,272417912380211
0,277699137405894
0,337496225637104
0,28132945217949
0,255490594328045
0,258757663815281
0,243377144277929
0,264858878815859
0,272847127637805
0,262508265269124
0,260894485689053
0,243886488395475
0,245121458734706
0,238247859026434
0,266781741752944
0,234507232551864
0,255834204244282
0,246150827840453
0,246783696555352
0,234463291723981
0,242959270865267
0,270387200586571
0,267560918484278
0,249658848532964
0,219600356234809
0,253412100191341
0,244588121662758
0,247850764443932
0,233174889940535
0,21857307768131
0,227460671915477
0,233413318618423
0,220516994776549
0,227395041038426
0,228186024601657
0,23798210997562
0,225438887957001
0,26424612871961
0,257310655972196
0,229733902563552
0,219246152030572
0,208748222796069
0,218983400851306
0,210565091689069
0,20340815902685
0,231361401169385
0,207362149349435
0,223771422729567
0,222606260290556
0,231343747618688
0,21775678563287
0,218117893313624
0,212527588407404
0,219694105173094
0,232233579629986
0,259294196193022
0,223246494928338
0,236735320990339
0,224170023777842
0,241520921757939
0,220839546631906
0,235053897736763
0,225852055425316
0,237325632311802
0,236489444569165
0,248338593734763
0,241607816477819
0,253148926407966
0,235039979035251
0,286902175176468
0,265467872997075
0,275922328365827
0,265210624746604
0,294481859061289
0,304881419636072
0,299150751716704
0,29773182441615
0,291277468523592
0,301233071334521
0,30584930154056
0,298366080249511
0,322136303331703
0,322660046820925
0,334150449046392
0,320851058804009
0,331239919755364
0,322860150615591
0,334457971669493
0,346160974352627
0,343104974656557
0,385729370065262
0,355618525601862
0,366000036232551
0,342375995811281
0,348592710651588
0,346019769872951
0,347141628945582
0,350429835747543
0,335994034480301
0,349249383092143
0,360226803227995
0,357400261590196
0,349521214088341
0,353931733960634
0,355898175336374
0,353648093841115
0,351793071861985
0,354197260676124
0,352782487685878
0,367781083323602
0,349269178995663
0,367445089300177
0,405448406541107
0,386777503728716
0,368439149645874
0,364137145790047
0,377079420774934
0,368659028344503
0,373354542152729
0,385614439370217
0,386349487387786
0,377837470607014
0,38000493340737
0,388506333218634
0,374117043605903
0,400617413441122
0,395830118390947
0,394789741329243
0,389625797565151
0,373854183018091
0,421962797156349
0,405047140620604
0,418969691913668
0,399790465269862
0,411147421089237
0,391715211137355
0,402699593701128
0,392556338402206
0,399824157000007
0,397225159352705
0,401496967848181
0,40011251073326
0,392786487113771
0,39654992925134
0,386980725766726
0,395887047267287
0,402060593321801
0,398710031853522
0,389626041269788
0,387758317604679
0,387550411609705
0,384521617433781
0,403032718091583
0,394118650323041
0,394387858705679
0,377839385513129
0,391911095528246
0,40215624606532
0,393323310635369
0,384293961064252
0,381202921537626
0,375809624779467
0,391114051299609
0,373447589860866
0,388050227316484
0,389174015949731
0,40669428513833
0,391048069307065
0,398163867379152
0,3906660462323
0,401949411352744
0,395325981656007
0,401444221245071
0,396879917622036
0,411236050888072
0,412910568688025
0,411768073956467
0,411550383292544
0,413121531921541
0,421779273027209
0,423363504963686
0,420809545006756
0,419830825870256
0,408591391957531
0,417647436624275
0,412385277583595
0,41724201262216
0,407804563858394
0,422998939974108
0,40300107600754
0,42171436564726
0,418777774889171
0,41553604888091
0,414191819372035
0,403259058215265
0,402755414252102
0,399548224607016
0,402073547420817
0,392800947700427
0,395065448380708
0,396888368447373
0,39221475205597
0,388295024575541
0,39029239022283
0,388578549882385
0,388884531221384
0,38497896616706
0,379225366466393
0,384662513786345
0,380649235135852
0,379488696672782
0,377273651610905
0,382119264104328
0,37872352783697
0,376918958466047
0,387089873772352
0,383789942102314
0,388796572991633
0,380509833217714
0,386286782513936
0,374066054948932
0,380847780265081
0,369562557568426
0,373217204144037
0,370933030704702
0,373489587132661
0,369712503967003
0,365202466807547
0,365432072361868
0,367491059005879
0,36227256776349
0,361952178915669
0,361684442269068
0,357148759847803
0,356340467288751
0,355972517809861
0,353882101959363
0,352349476719254
0,35347926965871
0,348885132349104
0,351041949940427
0,347332954316281
0,349966600105627
0,34122745168242
0,349130135653685
0,349367959146497
0,342954008378954
0,342773958781561
0,342353473233268
0,342799090217955
0,343468629482175
0,343298421095506
0,342677036489774
0,341467229414686
0,339635031332902
0,33818340340062
0,336233312641766
0,335313828444144
0,33359036901575
0,329385582507706
0,33016107450013
0,327678116178493
0,326208622141867
0,327260363678467
0,317905105116806
0,315897367869391
0,316517628121946
0,314604538132271
0,313095794008
0,31229973470571
0,311038001603392
0,310566597788478
0,310710704293448
0,307932605740214
0,308127686206609
0,308712236308767
0,306943064371889
0,305771853127953
0,307524029732177
0,304038867370341
0,303103059604089
0,304367534973582
0,305379713338718
0,303816021874538
0,305400325386402
0,306048647028479
0,306133853483061
0,304040174038796
0,308787768789612
0,308133617547299
0,309692395484983
0,311195765153729
0,309963369453688
0,311065425579382
0,311213682701178
0,313678936276414
0,314804471702958
0,313900868640305
0,314490381961053
0,316541414541858
0,315162035816502
0,315423023981583
0,315222500007319
0,318399749073143
0,314771905223154
0,316947841940578
0,315368622319844
0,316595285938014
0,315322474035269
0,315112671157536
0,314392988917698
0,315292912728508
0,313616760188539
0,31349894054314
0,311526688607184
0,310078153919014
0,309170952812246
0,311347476130431
0,310492926283754
0,308180194646606
0,30692436159131
0,306787272398281
0,30736241043237
0,305440990059968
0,302975893440894
0,304533571273255
0,303079282692994
0,300161244737505
0,297603482458912
0,297725190317007
0,29845317652425
0,295837144264719
0,294057014968535
0,292567095445434
0,292875526141346
0,290692987937175
0,286611881517624
0,286261762873515
0,285508355453174
0,283466698353315
0,281882122961899
0,281393762166343
0,278649089434667
0,277061721056082
0,27601410729318
0,274851557589683
0,271284890512498
0,269431073465132
0,269227891880212
0,267359597429876
0,268763493958732
0,264756514251837
0,267851699336945
0,265322028827396
0,265712677973382
0,263667443700021
0,26460088121973
0,26430249950894
0,264880756227473
0,265533056400636
0,26294929746264
0,263364393850148
0,263206606370359
0,262569679605438
0,263553186740727
0,263098408283937
0,259197550469142
0,256821064549255
0,255084609308069
0,251080466212287
0,249814778616335
0,247621509317463
0,246339523844392
0,241441259156369
0,239117024474401
0,236277812794071
0,234599805520647
0,232350906141029
0,230418357603105
0,228435584053503
0,229332693726097
0,227765516141565
0,230257896305788
0,229341735605466
0,231965901434589
0,235530327697351
0,237803643441728
0,240896953562872
0,245587336825642
0,250461308700452
0,256402088830264
0,262075702001329
0,271063230745925
0,280616431526917
0,289008510837257
0,297899878082846
0,307685063894223
0,320130181769596
0,331269030961418
0,346397357789414
0,360688859200202
0,372840566869694
0,391647697681625
0,410120118568383
0,426492941032584
0,443218357354818
0,465589579922127
0,483680618178048
0,502411779928602
0,519522484390931
0,538217444265916
0,553246131555892
0,571960579476693
0,588306379646201
0,599232543861975
0,607902791698595
0,62069413259528
0,631284236739868
0,632412946969512
0,633056764675233
0,635852761344465
0,631744203250198
0,631463452117078
0,625577531204537
0,623506573756927
0,617417100423795
0,608197329661134
0,597600584121246
0,595274011135827
0,585372594425406
0,579355146911866
0,567571106266006
0,561833859190385
0,556648297249867
0,554533754615937
0,54726514018348
0,553729318053713
0,549862337300088
0,554903476383311
0,55264645712022
0,556974105948943
0,560448824873533
0,563936992029942
0,569679593797117
0,580831786517312
0,585256686923544
0,589640635584258
0,598293159742199
0,605179664038455
0,615920035619633
0,619794506938468
0,623916693391092
0,630331240660709
0,636771460497472
0,638278343157256
0,647640377578926
0,6456807103862
0,64467228019564
0,65217267633223
0,654050212197552
0,660624854829479
0,656708747261042
0,655928298790183
0,655017937064757
0,664413352291229
0,662678346269592
0,661160577212785
0,664540073217184
0,673016108925653
0,670678974646802
0,680866405299579
0,683308367326679
0,688645969672958
0,690877749752015
0,699210655509366
0,698306782724162
0,704168501263856
0,70596676899217
0,712441280765395
0,716933923287055
0,717906638964987
0,720296156150589
0,748652059124967
0,752829403516803
0,770353997018749
0,778469188611125
0,795104510596579
0,815711767117441
0,841111456881904
0,858623519945987
0,882024251945695
0,897589175623101
0,927817437810438
0,942726705907662
0,961112964337735
0,987413573995231
0,997816233664515
1,02403625419062
1,02305489387857
1,02295105688575
1,01834005917742
1,00942561350124
1,00820903323202
1,00110666267186
0,991471457446634
0,981618169917367
0,961007984488966
0,956033700293667
0,964387404271599
0,952904566473794
0,929664952266964
0,930654012584274
0,935220828142805
0,937765003846695
0,94186726487583
0,9482899045011
0,959202073356671
0,966916864018043
0,978776251098091
0,990942766299879
0,991662936659439
1,01164194077043
1,02171094186598
1,03201833456143
1,05349937130051
1,05598826259931
1,08572148869497
1,07891038500025
1,0897862209346
1,1247301734947
1,12546288379367
1,15230108831192
1,16312746463706
1,18570310757593
1,21188415448063
1,21456597613133
1,24885806029835
1,23820418216041
1,25299700819315
1,26490665906353
1,28219649863374
1,27154843811466
1,3035011144527
1,31163472596816
1,32824234227375
1,3313836524345
1,34231978008511
1,38112304656039
1,38307280047247
1,40193727307033
1,40358450798155
1,43372623063037
1,42198711916446
1,39707317716158
1,43187566795397
1,47282914096612
1,43053248037239
1,43006484702852
1,48494383562733
1,45326481790344
1,48708768359598
1,4138271245395
1,42115501859722
1,35999834284978
1,35229130863149
1,29199929593945
1,26662180101197
1,24132294517889
1,20312932457234
1,17555600467748
1,16680718063528
1,10328426688032
1,07942799334814
1,03352043693375
1,02260030725673
1,00454733004649
1,00011893299362
0,966004628455741
0,959877469063245
0,950831032865302
0,935034471877619
0,92403475762706
0,912228894911306
0,905513433347723
0,881832718055747
0,861039845035437
0,85055422087533
0,831438709506865
0,823406709982917
0,80294137619234
0,779758705869401
0,747438970138311
0,734789653915167
0,70027599511651
0,683116932659812
0,640813891255126
0,621985257817337
0,592612467382027
0,565409169872241
0,534965149217914
0,519103771735615
0,492727962500671
0,471594952173916
0,453374907930773
0,43535292377752
0,421984415639101
0,40436126185603
0,390999134887165
0,377341014977927
0,359977437652349
0,355184008151465
0,350293653358084
0,337836888391111
0,328115875374991
0,327075282740072
0,321896000950815
0,310263965302196
0,305302165568426
0,306541136500785
0,303269788552881
0,299281297822877
0,295866674065909
0,295210713097685
0,29712231246179
0,293049875191683
0,289143444882333
0,28999817097153
0,290352504310399
0,289997951063806
0,292952245266419
0,289007804477594
0,287643028672635
0,291027003564007
0,290418747488388
0,297662349526036
0,299659243506991
0,305296195937426
0,305598480356347
0,307788209377738
0,30845455178745
0,312050291585621
0,310126152745332
0,31601330886222
0,317601655570965
0,326490757123494
0,322567034551474
0,330353692868313
0,331902665950639
0,340512819865684
0,334141360337892
0,335073345016793
0,337532409525319
0,340705738401631
0,339540406046418
0,345099828934754
0,347520466734924
0,347950722155096
0,344482499006087
0,351835203647229
0,351503697503365
0,361320242079415
0,351779698285293
0,356772623565027
0,355607098152881
0,357814845515258
0,357541954566227
0,360194463700809
0,359391182094426
0,36146714242399
0,354042713523616
0,360013199940429
0,353597086758849
0,354137038085731
0,351740655809778
0,35090940582363
0,355352451269506
0,352570558992856
0,34966284354178
0,356907456656218
0,360636799886723
0,362965790476793
0,358636934213169
0,360520200843141
0,365073601106639
0,369329334962725
0,363844911172909
0,376919228839644
0,375630771159582
0,38010019715661
0,39296733976823
0,392027997418714
0,396761303313753
0,397147997449042
0,400012528202118
0,404517771157742
0,406249408136461
0,402690133631229
0,395639574629908
0,400814168466141
0,39968056033259
0,400598894042509
0,396086683616836
0,396433867992712
0,384063172150199
0,392039838076495
0,403825989910704
0,395697497591582
0,38842279426848
0,399283735753049
0,404794606603703
0,398795291499428
0,394367403876017
0,401688463599572
0,407594247060156
0,407070126026105
0,405681801867928
0,418304564121198
0,418714403202712
0,420397396052896
0,416133937116252
0,422639288966257
0,41972033958978
0,428732146417202
0,431235452423047
0,436231481814885
0,437943378452988
0,437177816627266
0,441958841613033
0,446335332776848
0,451807649422988
0,454530758671831
0,444790485806719
0,452888203343446
0,452626192084849
0,456608556120954
0,452782979535493
0,46821605032911
0,459839871572791
0,471004551806667
0,473961423318855
0,465104235670611
0,467315324825262
0,468474171469231
0,477115614149267
0,477755857127556
0,467134605697565
0,484551148704345
0,466645788255631
0,485577759111561
0,488411167203336
0,491361510904572
0,486261477060089
0,487116000063777
0,47517973527303
0,499454569840442
0,485662843864421
0,484284279674205
0,481785277006461
0,492241516898179
0,479614091378349
0,492868443455872
0,490584431932236
0,499120349184238
0,481346105398555
0,485478144964116
0,472968576020538
0,496896871248058
0,489711182896547
0,501754190298785
0,483898511159359
0,523206842665576
0,506876291139069
0,510566212294838
0,501075526003005
0,520409375164689
0,511774786409181
0,537408730797112
0,509075807482411
0,525959498978688
0,519157278871721
0,545423421800823
0,536737671809436
0,558905570939502
0,530960213312962
0,553188284520333
0,543018752363251
0,56051184153388
0,555103168156707
0,560460952977407
0,552864661844412
0,557046781225628
0,572041967306005
0,573109028485538
0,558871149299026
0,574158699562391
0,578942578664438
0,606414388733591
0,589961200626029
0,594521789169364
0,601550415073064
0,628676713037574
0,632628926213595
0,637588802319445
0,631309453379165
0,644400065243939
0,639078844873403
0,657565785355118
0,645498113767697
0,700713122482739
0,673970607216756
0,690451976219984
0,689164194757195
0,705898430543573
0,674325448694441
0,676072842794427
0,646252720714293
0,712832438289587
0,687360527828002
0,701406173852744
0,660778990100995
0,732276794275785
0,67668593862663
0,69563893175697
0,717449556444665
0,71698303201627
0,694845592929257
0,707827837038569
0,707326099442255
0,733688310419079
0,727061481539699
0,735614348088224
0,706313193294666
0,760715401388555
0,726571974621258
0,831562338122122
0,717881420993279
0,741641330422473
0,738752195762453
0,80151603467951
0,717692099072674
0,758171923670139
0,732077480743541
0,776577688605372
0,699087638989762
0,763527710093815
0,75299580935643
0,737251772520933
0,761433268235385
0,750938911677927
0,783087975034965
0,817606226796294
0,730457661131691
0,763408845856781
0,704729730706005
0,779462494290833
0,734616365961083
0,838890827092071
0,735926358329707
0,788575705855359
0,744956306856819
0,777478127068078
0,778953771307435
0,81477818566567
0,763888104813015
0,84538792996288
0,722583263475459
0,784189883064621
0,771481593160722
0,797959690006667
0,725906189443852
0,850095152364267
0,83465129444342
0,815890981594869
0,777447770520475
0,791572687697726
0,747891901130821
0,754651220945066
0,804015369862671
0,835195741802145
0,775437578792744
0,996606883633273
0,77613907208023
0,862652465126699
0,794607885985667
0,949543257054647
0,916182417650672
0,971367572659543
0,751442511945064
1,09309789506273
0,914454908283615
0,958918025462423
0,832647361069081
0,917644363384733
0,838487992846035
0,906353806844834
0,953995656258218
0,930374596951134
0,932589063589528
0,999978131136683
0,884858486145471
0,963012392993358
0,965746312313527
1,0588651171389
0,952337811848681
0,868480053499923
0,808761479614589
0,972552416218672
0,862552657215806
0,973000438015478
0,909707345215539
1,0855748345026
0,968277165000018
1,02311938455608
0,997377028726014
1,04657107160323
1,04073063559248
1,05323373464443
0,70636508073451
1,12592298989303
0,872144008043439
1,21284160901751
0,851071999892752
0,997587961953538
0,822560169438754
1,21449132113761
0,827500684716454
1,51151102729652
0,694123391615064
1,11578904022615
1,07752213493752
0,997685493035297
0,797804549967862
1,26955354823004
0,920908236143488
1,16616870526903
0,822282713822525
1,79581516409243
5
1,12854087493204
1,0493188418634
1,01005759098015
0,693947179069391
0,960625101354148
0,985102936374476
0,971026624135443
0,643189388207504
1,2633772197364
0,818206056602357
1,33293435414411
0,707364525827351
2,61286703915518
0,836338322638372
5
0,72430601091801
1,17987432782891
0,987641192552953
0,846554141658359
