3596
4000,36533379555
650,420452594757
1
2
2
0,0376429266226163
0,023880758973461
0,0360984343820665
0,0278283288556734
0,0290390811715204
0,0288284001460907
0,0354391014191375
0,0329427364088421
0,0405205664679011
0,0277135570674691
0,0338704182659981
0,030624291065064
0,0377251468717997
0,0210101970786231
0,0367035023556017
0,0284330400203509
0,0384917734713452
0,0254768631266865
0,0360458535013663
0,024222830186402
0,0362547464064239
0,0262131462081996
0,037316053735891
0,0245498121244124
0,0440856161040903
0,0326932673859461
0,0314900151011644
0,0150636995125983
0,0407388207029994
0,0281107788056705
0,0389000963665454
0,0250968352375591
0,0314692863375813
0,0295533158830301
0,0351383523534651
0,0260317966569029
0,0278033934772205
0,0280525001430946
0,0414611840410856
0,0221436224539517
0,0371266604789309
0,0259458374085316
0,0389802752145845
0,0256331618202739
0,0413383467951111
0,0324792421770232
0,0428714679130424
0,034366954428856
0,0323634855994246
0,030968123207488
0,0412391641978881
0,0284374642290709
0,0352570825216518
0,0319439100277829
0,0319205862575262
0,0237460524494485
0,0341277922873936
0,0262092972776602
0,0305578812878782
0,0280987498937018
0,0293093836633034
0,0363189928527772
0,0328194829591292
0,0298815920520956
0,0353104080509872
0,0229394228778621
0,0254770829483777
0,0292766254081475
0,0356685099473055
0,032851161239989
0,0400390527780218
0,0227573077958984
0,036804338134579
0,0215698121377962
0,0413070041626872
0,0194903356301301
0,0357427291756019
0,0246727671051898
0,0315019840281871
0,0196302339610761
0,0362275479027044
0,0266139023132654
0,0366359855200359
0,0294339195834838
0,03871942719202
0,0245609649666777
0,0332376093900603
0,0205404973004382
0,041163845568936
0,0284204675338301
0,0389844777641175
0,0225261911059841
0,0385782607711709
0,0269545646200699
0,0360737054024586
0,022611692704673
0,0366561774162137
0,0203030934215268
0,0345703287320573
0,0150766585648357
0,0467455536905378
0,0067278686749863
0,0530602355857764
0,0207187862087152
0,0302794263172193
0,0369153863032688
0,0179748771210682
0,0412282754783326
0,0340190326611619
0,0298700045094677
0,0301922350386851
0,0198297086312973
0,0270196280824634
0,0232516478004609
0,0371149953804148
0,015516763929609
0,0394249469041238
0,0260356336708261
0,0334815195354732
0,0219456657825437
0,0366153558745225
0,00485918959854662
0,0610949985209856
0,024326615971574
0,0374054329438999
0,0245210744054128
0,0278587357713626
0,0194629611874178
0,0479592448147599
0,019509013854467
0,0417004797924706
0,0203516497559712
0,0358078898809145
0,00668652062200262
0,0409083332959053
0,0275109328380999
0,0347347891293957
0,0203350737809452
0,0257228811562938
0,0417059412258237
0,045635807091382
0,0276927923334153
0,0332035514341617
0,0100641993772786
0,0428363560834948
0,0205250152750896
0,0306115295630481
0,0258663690462468
0,0394514030424269
0,0131867143233344
0,0325587573282776
0,0204836837361004
0,0346365410922995
0,0286383738140991
0,0295197751717915
-0,0326471204464381
0,0678846864616995
-0,00714530567533174
0,0680057200819915
0,0129225727833227
0,0387187570527176
0,021121302957437
0,0358369043889683
0,0261221585984604
0,0253338618433525
0,0271404066631179
0,0215653779706835
0,0377056488135466
0,0353725988323924
0,0145407921541003
0,0343629352588621
0,0298794489425959
0,0194786231560123
0,0323985698434592
0,0482148348384613
0,00696484367845813
0,050901072934099
0,0287986355576206
0,0365532768638768
0,0192327411388933
0,0530339573435343
0,0259653978183662
0,0323801441234477
0,016344474332887
0,0347034385047176
0,0254601136343788
0,0386160695841997
0,016194165709298
0,0374720679231804
0,0138130670233533
0,0431260892904721
0,0188013788255779
0,0522544427997824
0,0166595920402314
0,0420544945510608
0,00977805116723928
0,0339102316218989
0,0358308501441911
0,0272969569432546
0,0277376374213904
0,0334902637586557
0,0186118525929214
0,0337281986722057
0,0204471490648176
0,0408906153597433
0,00700155973723947
0,0470912036228434
0,0294506976204993
0,032998912864816
0,0219770534816654
0,0281763577351671
0,0155589384255972
0,034624997632185
0,0443895954740703
0,0219735889693749
0,0283773708710219
0,0359997680588077
0,0327830978206293
0,0349290969601069
0,0261159733019534
0,0336267487063106
0,0250127136299201
0,0313069732846981
0,0219788704097051
0,0258151834672657
0,0294030888344255
0,0337374217727959
0,0209330747157091
0,0387482231370512
0,0287713558656166
0,0370937624482793
0,0331285688670148
0,0333399553921089
0,02454996149848
0,0318643505306576
0,0194478272724601
0,0495065579756186
0,023301207114261
0,0380423030270658
0,0185680622121628
0,0353634425988974
0,0237438846463846
0,0393992528217089
0,0158972338008533
0,038283680304223
0,00745590051375957
0,0445898700824773
0,0244121667944206
0,0346655501805927
0,0282015559923935
0,0345814760627973
0,0415234963172219
0,0296929085233808
0,0290757431144134
0,029629982014087
0,028156342040404
0,0225247271564047
0,0396611595630253
0,0361856706823107
0,0265152231168726
0,0323060235924389
0,0378168637460101
0,0277533693126455
0,0342970318141014
0,0128147703588303
0,0439079121955789
0,0497819820700351
-0,00415343610434157
0,0547230509101605
0,0376361049548657
0,0287606243275895
0,0303362377049327
-0,00831067951357354
0,0349340190900927
0,060946531584016
0,0360834721891707
0,0318683901076166
0,0301119152725897
0,0328055504394212
0,0195103801670766
0,0444885778553257
0,0146675124199733
0,0577160434734513
0,0217047202509735
0,0624364606608744
0,0269708932867218
0,0349936624221345
0,0445098779437215
0,0312820819641134
0,0364435311925292
0,0400223835782271
0,0323632764390094
0,0340788539442572
0,0482729511560437
0,0324484123927026
0,0399605144904627
0,0359208034034735
0,0392425049243742
0,035222085405459
0,0340929169255274
0,0406335236845722
0,0495898014402912
0,0383766155679998
0,037693652732276
0,0387847774315302
0,0410405473512188
0,050447543365965
0,0194044952765429
0,0587334623390933
0,0441715303270467
0,0332272197354976
0,0552978435629688
0,0438151063677345
0,0373693034718887
0,0417022053475513
0,0447922519962261
0,0424660004802341
0,0399717582216873
0,039370015478555
0,0400628429069576
0,0529987292807904
0,0448337288125253
0,0515593979994281
0,0413144101511266
0,051362909022167
0,0435869537208786
0,0553863390431044
0,0418059113953351
0,0538146768216885
0,0503761543303303
0,0477815551252897
0,0615442124777156
0,0500526507937607
0,0342988779324743
0,0754320082931029
0,0449160201079401
0,0610447572945282
0,0483406198489447
0,0612162039559598
0,0549316042407447
0,0608571016322256
0,0532279252507344
0,0636062344718019
0,0626112697517461
0,072490256656368
0,0495885239170381
0,0679161712671392
0,0542625481856008
0,0963778037822577
0,0678677659248768
0,0754629230692787
0,0594686097335609
0,0773639973981596
0,0891254995510982
0,0631017941283686
0,0903828723871656
0,0762061067900057
0,0796001354465419
0,0854243668634475
0,0791500406363012
0,0842265546316265
0,080962774539706
0,088233826539472
0,083893160584034
0,0899861387589703
0,0881392805765193
0,0984545207672554
0,0845992509153164
0,117862624028174
0,0996065853555265
0,106261435628451
0,11091354782177
0,104147326563621
0,105756420649334
0,115035061139514
0,0976972406860043
0,143031773443168
0,0913291548073152
0,152940224147722
0,112154729227321
0,129333248741011
0,116915574821124
0,132047788719658
0,127205347751509
0,137450203884756
0,124863850995423
0,144635764193226
0,123814477606231
0,147511598429775
0,135399791069576
0,150406640781288
0,132313757685827
0,164087768320341
0,148293953380866
0,161353759561782
0,148654246017497
0,163467019565425
0,164498696594287
0,189935299157187
0,174288979459394
0,169568677279156
0,1716719473099
0,167812296778321
0,17826654286394
0,181547700931554
0,18680171200021
0,192206747826776
0,195092509231951
0,212079479519557
0,181142813742508
0,218236933649622
0,199802787093302
0,212351402662732
0,201044604444974
0,208863481476656
0,216006635180962
0,230563242520715
0,206906821066725
0,221639202678394
0,244805824487015
0,228464303924411
0,242103776591426
0,23855529415389
0,240337858980682
0,250039242203213
0,247261418948174
0,254269240331053
0,241069806310852
0,258037287667033
0,251616266299521
0,269567657328676
0,264564775270339
0,270790497466785
0,26453889067172
0,286497052531379
0,255966069807211
0,297443913795454
0,276552085449357
0,286984148606888
0,282707568477698
0,304659809941492
0,306713929919622
0,305733172953904
0,32122350132143
0,30544633831494
0,322173638865028
0,321440035383624
0,315377964644535
0,333054364469154
0,320738774759432
0,344681583019135
0,337261264259717
0,355415950657458
0,337271350474925
0,354498243094251
0,346025118837329
0,357599240490643
0,346520060182405
0,391016817117111
0,363883759846767
0,364715683557096
0,377891871474368
0,395644230078186
0,382496778763046
0,39607243169787
0,405539168045144
0,403680080123333
0,385202911069078
0,393610178783785
0,40314608863916
0,418150697478955
0,409087762992503
0,433604293717286
0,431597817034688
0,450858620854132
0,435536303653271
0,437244169181039
0,435747858769339
0,46936402887822
0,456747474206468
0,472370081586661
0,457489698301002
0,474978153146614
0,466186568565198
0,477791245617858
0,463691753976478
0,478162697124643
0,469908728946553
0,484780322669559
0,480373515988529
0,498883043533652
0,492539836495974
0,518756214862206
0,503015189671776
0,531086618654033
0,517649352603207
0,517143706155333
0,507675168436357
0,564168982148748
0,5431534408599
0,547356488279825
0,538790153948536
0,564186579977828
0,567786790818541
0,5755168189613
0,551198395229666
0,568957878073766
0,536800612731066
0,581803066564887
0,589204325983294
0,602301804037465
0,59805259010334
0,580367591619558
0,586766312814593
0,648291019071045
0,607108980535422
0,611737759686351
0,621201961305469
0,631497905245279
0,621393067363019
0,633945695305647
0,596249893339915
0,654630897389542
0,627781231152017
0,669796731431368
0,648302416052591
0,668064840991956
0,650261333536879
0,681201205779394
0,681885628963133
0,6964239408452
0,637272871546226
0,677649007958009
0,677233844423752
0,676687171568121
0,659776540491761
0,717791396613653
0,708871919762003
0,717117452964714
0,71078119483767
0,716920132649456
0,70181310517717
0,744139901777758
0,73021721791706
0,76282598217563
0,721677034392222
0,752283939412635
0,758470384005482
0,765082866792856
0,761912502739631
0,762380639771547
0,744176631675263
0,791946713394281
0,784491177822391
0,790509119671179
0,7897719966968
0,791753343543043
0,783397376827641
0,819333870065487
0,76384335181196
0,804943172383354
0,805198436218531
0,829959794388331
0,815714609435168
0,817795889452624
0,778246647184448
0,815501739753927
0,7742898507693
0,825440068321641
0,81941210557772
0,887886328740172
0,878750598096475
0,873933901333352
0,837772789976892
0,880514269646128
0,817355557949926
0,929773424852078
0,886269755953598
0,898156029241756
0,909186873347345
0,910744057999823
0,871756318935128
0,985020860283369
0,925463346756168
0,927347873769906
0,89645315077983
0,937717656755622
0,925900384011101
0,949986273432058
0,873755575782795
0,934667752645479
0,896032994970451
0,937089063056502
0,899475051079637
0,923369678557302
0,905194516625047
0,93418959745245
0,95158692675636
0,982896381172889
0,915568773598265
0,964637398408517
0,937942991452534
0,965255350016437
0,979803503612385
1,03149791786744
0,917406737564506
0,991604360790341
1,02151562098736
1,0419410538696
1,00744179570065
1,02315862733183
0,97482568505366
1,03552774844797
1,00692079260342
1,09526209229634
1,04438546507804
1,04383979568234
1,00633704195498
1,02282526743616
1,02658155159901
1,04627703369273
1,07110644454941
1,1504019288294
1,02564488023166
1,09101703417051
1,05875431243239
1,11646744141085
1,04910361199972
1,07813323853975
1,08932442311602
1,12847917620472
1,04754837027646
1,07190628976224
1,12212154435053
1,10224134399358
1,04139012727144
1,1287549061259
1,06128394087961
1,13894482987394
1,07108438754836
1,05778918316365
1,05697968500465
1,14262036522046
1,08485318076308
1,18849005662929
1,17744366635083
1,15183196680544
1,11709345673701
1,16867824590335
1,06373701289783
1,15714917739793
1,18382800848496
1,20014875701489
1,11573207895718
1,20605571778062
1,17549222829952
1,18900086208103
1,16708874876345
1,12840243283234
1,13436216784344
1,19358707858734
1,18830522668522
1,20672217425523
1,17799306577211
1,22199060410442
1,13550730689901
1,23132640805328
1,11938868980469
1,14903684712155
1,17396654032551
1,19195012818592
1,16915116917158
1,18545688351701
1,13334061007899
1,19698940162626
1,1261561260177
1,24212372782082
1,1318425601549
1,19211105079193
1,16374643269813
1,24316858505007
1,22740390396239
1,25460037624319
1,18550982391509
1,25766485312356
1,22720128731213
1,25630661986256
1,21191793381844
1,25090262865042
1,12823143308875
1,18780334724458
1,21697273239982
1,20040280071691
1,16302925223946
1,22033071830566
1,20038016938932
1,27121379780645
1,21414183397747
1,24316217197716
1,21103047163958
1,23472620192582
1,20601021727318
1,24443057918298
1,23087047709359
1,24168188055625
1,20722309108292
1,29285395621328
1,26126677620655
1,21705140572043
1,16325189527996
1,23778671750698
1,22672080786377
1,2871479419385
1,21501532217466
1,25435601325186
1,19706499715668
1,29205173035626
1,25097198177965
1,29584514457138
1,21181475422028
1,2211111327701
1,20626870443965
1,25407018492502
1,24432860372516
1,2897066142871
1,17805315595417
1,26690926422297
1,2302459738089
1,2491391355444
1,23061233213762
1,27664037543777
1,21134004562317
1,27818165356596
1,21859048344522
1,25069412376603
1,21412990425721
1,23306965635073
1,22963507306949
1,23008287417478
1,20430723181637
1,20862845289049
1,1507463187056
1,20328333197577
1,23002910580355
1,23033955610282
1,20122888317473
1,2925788809123
1,17849163091213
1,22967024666458
1,2054411831229
1,22175778402108
1,22163834049646
1,31441115429528
1,21830358652141
1,23321312648365
1,2412978354442
1,28715583147278
1,17539587311059
1,21396078457251
1,2479386294915
1,22325908929556
1,16246340781546
1,21482196182945
1,19411539058951
1,25204346164443
1,21888242208546
1,22181130754984
1,26394891517076
1,25790767666966
1,22968369462951
1,25354818248117
1,20892137594326
1,25571180760491
1,28940671435297
1,28050888479399
1,15612818490614
1,2011660857239
1,19188699103965
1,2165060310762
1,20253185691927
1,20200001554854
1,20484484764028
1,176172301315
1,16143439427379
1,19226643074816
1,17052657716867
1,20606838766837
1,16596378905389
1,2289969553654
1,23904307070638
1,27655660817562
1,20086569397818
1,26562485604715
1,17111206356555
1,18289968001003
1,16696851026916
1,18340313112329
1,19422957209936
1,24084169182659
1,17077373813502
1,19846198529522
1,19577016251106
1,2395238470095
1,14429878203806
1,21117051820823
1,15515000685146
1,17668602906972
1,18061829070626
1,18340991207876
1,14092623587825
1,2055613805769
1,13189581387572
1,20145406252277
1,10911431402622
1,14247896689259
1,13929667328826
1,12723391460778
1,12973446385109
1,12484351647949
1,12505059351759
1,17386072509522
1,11203171483342
1,17411042854625
1,12894860726864
1,12039016008364
1,14395755646103
1,11796933940169
1,06798696311741
1,13623534059757
1,1229238506317
1,13000595870776
1,05803413160986
1,11260728676737
1,12044884066349
1,08257212394873
1,07112522584409
1,14219913157864
1,13934618571959
1,1210537834703
1,08050777634594
1,07141746952826
1,07534578839933
1,09256332277032
1,08157279139458
1,07149818337741
1,07820449449781
1,04456756677339
1,06839503791284
1,08098829124824
1,02237218375596
1,03233270378301
1,01787639753801
1,0606319617567
1,04148670071431
1,06892218304882
1,00055124373583
1,06021233920799
1,03200022590014
1,04810597643337
0,98978325532737
1,04196523085301
1,01902884325675
1,03726268055295
0,985831259368965
1,01844598887476
0,971301906613494
1,00245951165385
1,00629701810608
1,00213652196152
1,00526118259044
1,03229929203489
0,968539077142043
0,972819578166343
0,966356516743783
0,959663464638578
0,960546296618067
0,955807897101025
0,92916545152887
0,959024023173536
0,939073029245074
0,93332046023565
0,931068159573473
0,938819894643417
0,923216169006471
0,957875789316395
0,924482249127803
0,916900489939285
0,889329301282363
0,912396732967572
0,893805566608566
0,902596516219398
0,884880447165882
0,915642833248329
0,89977708176977
0,893811042051891
0,882742308875517
0,902420729765225
0,858814715626319
0,866017590776995
0,867673534466699
0,876503003650095
0,867596242664905
0,888833126251491
0,854704676866481
0,842055602650385
0,846014827246099
0,84446813362503
0,83857432906393
0,832568177455192
0,813145387197195
0,839101187697242
0,828425024452396
0,823263536355141
0,791945255919077
0,81844131908662
0,787914728645628
0,826839069524661
0,798223600178313
0,79951538037518
0,778741860718482
0,81082360854438
0,795040231946539
0,788205422386775
0,77541714991453
0,787665100959759
0,768477224987326
0,77662318752659
0,747780088202612
0,77068750690402
0,780310621888026
0,765508635956465
0,725079972772691
0,743727161093475
0,738016808763043
0,73204419267896
0,730924149762369
0,728035224299131
0,704255375592938
0,729936297392076
0,7114306413974
0,724868133817971
0,704023577752293
0,69643173916674
0,702043521218328
0,696084932680066
0,680584742779548
0,703034984257703
0,705501520158956
0,689674894062491
0,679010700646922
0,681494869762087
0,67787122262069
0,669274328464952
0,656940054806668
0,662844965119552
0,641850200201965
0,660809029950534
0,654985717272165
0,662467618387165
0,64415633577143
0,656459536019744
0,630082765392015
0,630855870722946
0,628424923929381
0,632406439568005
0,616684207828627
0,63346728304467
0,614471050163274
0,621342775517421
0,600874605923941
0,61946657723302
0,605116173921258
0,59925676691991
0,591523067996061
0,598248548886904
0,582937915816826
0,589568741553991
0,588495378823455
0,585297976420228
0,575869215962996
0,585895897474779
0,568967292879109
0,577643451489095
0,573617352169357
0,571328070604356
0,565055258033813
0,564066409857786
0,552923294727904
0,566630076725392
0,557746169918257
0,555404728818937
0,55265955997781
0,544475167760767
0,539448863801224
0,542604711295028
0,51818480970566
0,533561329882437
0,527701459059959
0,527552109209771
0,531744049430534
0,521942434490022
0,529460134421491
0,52733981030931
0,507083956053785
0,50979888203368
0,502457932163014
0,509100991090325
0,497710897016719
0,50396704883624
0,488838309286441
0,504186424922721
0,492135778027046
0,496860364512424
0,486526120388737
0,488908145654182
0,484654157788046
0,482722043783359
0,468857831846116
0,479717473758855
0,471623077958933
0,470526826203084
0,460891204265159
0,463301792022218
0,456345504834765
0,460817673153527
0,449711339437899
0,4563912738913
0,445465779986914
0,456048161402198
0,442994466152877
0,451859748265131
0,439856948073222
0,440368624587832
0,436100980025396
0,43734386427415
0,429158962230202
0,436082712064669
0,422994189366439
0,423462429319027
0,415695026674105
0,419189077102265
0,412512517770962
0,413102510930731
0,421876915172423
0,418273086343341
0,410788467124369
0,410586177032088
0,405230906198261
0,40316884009182
0,396946086657748
0,408835520365291
0,397677003061611
0,392107221978929
0,398984340501923
0,392476642543478
0,387282654744636
0,388138450780648
0,379528518966069
0,3819849762804
0,382567152318191
0,377861906303724
0,372624583993783
0,370409435399746
0,371326690434374
0,379809617951827
0,369188563617616
0,376206628306646
0,366536188698817
0,36358952272066
0,362181780583902
0,367466902578737
0,360107002971474
0,367486393690863
0,362159105988886
0,364389447914825
0,357746857281653
0,356833688520065
0,352301884908293
0,361867715969533
0,353598420832177
0,356832799937432
0,350590020240288
0,358217430876024
0,350903128818123
0,357650821368565
0,352285176968483
0,356573812172279
0,345960980953922
0,35120459144998
0,353373354269644
0,360469402587199
0,354140974555654
0,362654389819776
0,349109268845827
0,362790427816085
0,354610744050103
0,355669431786744
0,358661222910559
0,364259046609343
0,354827866039002
0,35764164426308
0,360348162664167
0,366082813529297
0,361264039487117
0,359229303524101
0,357897307168692
0,363846750391408
0,365199290140552
0,374647151793433
0,36399637415449
0,368858367745964
0,364964087587362
0,377705934448373
0,371883688567917
0,379684768812594
0,377103030294362
0,38237278421304
0,370739509040512
0,382387884646468
0,377173945020003
0,38367006940905
0,381361528080769
0,387860556029355
0,381704714309704
0,391410902430571
0,390439010205517
0,389567873754197
0,391810977917238
0,400067695327807
0,398146477092237
0,394343444849236
0,398247942598399
0,407816198854444
0,395397443014578
0,408808543318405
0,407434659882606
0,419898502679699
0,405058150041574
0,416941289212032
0,41479611985483
0,419930608216133
0,416197274790253
0,428053649091633
0,425620002188333
0,436171921322832
0,423437417449871
0,432035263373484
0,425161396001459
0,424221479552871
0,422043962682633
0,432568835411508
0,419160959068814
0,425147375220115
0,42493399132729
0,43103324368181
0,419021641488
0,417658710250513
0,421279904388397
0,42439052240723
0,411065388681248
0,427669698185329
0,414984795269422
0,418029459588734
0,422804800080209
0,420566463470939
0,413918344760904
0,416750159646347
0,412902449402585
0,418341723880011
0,410844485431693
0,42267916954583
0,40635303151895
0,414173484695984
0,410496240975902
0,416066853541306
0,407897095792348
0,402451097330102
0,409208976625681
0,412780828002384
0,403023126806453
0,412346865536133
0,402779042779771
0,415590431385524
0,408833633112924
0,415321417364243
0,407451597581772
0,410825467724125
0,404218618526826
0,411551147669235
0,399710464217378
0,413613158776544
0,409986099501237
0,412419009545635
0,405385358854387
0,411389119759812
0,402483425270056
0,406724485976572
0,408123889285989
0,41323142875976
0,405273030723117
0,409188291322675
0,396336976887792
0,407492045082588
0,399702565768638
0,406400955715602
0,398420057640357
0,405409864465584
0,394820658951534
0,38954767923828
0,39295557431221
0,392000086623448
0,3889421096503
0,390192795458641
0,379537592660179
0,386973780720937
0,378792529991988
0,380070874641293
0,374980577840195
0,375629427647163
0,368620152402602
0,369545878438496
0,366922349647797
0,368247767613521
0,357914457860125
0,36076567019211
0,351059675282371
0,354511839408145
0,340415116045436
0,345635745847805
0,346603518208455
0,342272081726159
0,334414010080081
0,333926889157606
0,332900882511495
0,330158950762447
0,326235973743547
0,33586437204828
0,321938582407604
0,322310191847027
0,319304953492676
0,31180925656588
0,308923938662326
0,313438184749378
0,311318351820451
0,312606004058462
0,304897016974621
0,308235886870396
0,297434699467459
0,302868023259702
0,303640800227014
0,298137912660804
0,29457696014613
0,299611593134576
0,290144031234704
0,29361617610697
0,286515855469758
0,292426694084312
0,288480305606766
0,288021150572152
0,28259727129505
0,284012353608381
0,277130808557457
0,28249897888999
0,274910297395886
0,27553987125876
0,268312156711838
0,271986127104065
0,267561299568863
0,274371223960326
0,268008936663935
0,268623624075725
0,262974750677595
0,26785437522843
0,258072009844898
0,262426387102675
0,260725511392137
0,262036090487314
0,26287951763378
0,259806664363202
0,254060914962797
0,256239509679583
0,25356054686416
0,257969960260999
0,25112744198784
0,253728428519776
0,250457765464778
0,248144625652117
0,24823014798023
0,252751370485088
0,246178730740152
0,249133942781814
0,241162142783166
0,241054482950777
0,238754655542739
0,240749837190064
0,2377753882715
0,243018556190143
0,235467569031097
0,236605074902216
0,231019442524969
0,234377702703692
0,232135523849935
0,235096711930583
0,232773745283793
0,232025399972212
0,229130884713042
0,230248041540512
0,22754255111896
0,235662062784422
0,228934605256448
0,227096106334826
0,226365371278613
0,227787102903797
0,219268227449718
0,224788969189155
0,223085945726783
0,222159201639366
0,216523312556925
0,225075944179878
0,219539614417761
0,219916708096658
0,217087122666648
0,219197849643337
0,2147789268673
0,217589371743913
0,216016719628335
0,216998691070663
0,212665860383951
0,214933235261549
0,216021177670516
0,214267206792902
0,205205052067178
0,206859810771868
0,206289345703264
0,210217906766329
0,208976612392818
0,20877615425704
0,207203282044575
0,213417462309218
0,203339023039589
0,207061344329469
0,201371336045934
0,208847308411858
0,203922117181332
0,205935659075813
0,2029922088381
0,206535996741698
0,197468290721271
0,201622568326608
0,200476044978703
0,201338312766186
0,199680744932761
0,203155340543815
0,200451682002737
0,2001392581741
0,196393211455885
0,199290605942023
0,193566981358827
0,199222227898947
0,195920654167646
0,19763162978753
0,192882556833965
0,199800841775582
0,199661428475438
0,197450858189206
0,194972324435189
0,196434547778191
0,195131665534729
0,196024983182106
0,193279619527938
0,195902538240657
0,189553059657225
0,191133907373677
0,188134391626946
0,191755150820208
0,188359298394779
0,189588384025401
0,189728955134314
0,193659718179358
0,185432573367322
0,18797247513463
0,183865760740741
0,186496938281009
0,185671915222012
0,185659238326601
0,184752533616316
0,183476507354996
0,181930987984607
0,186586282664809
0,187984210926062
0,188122014252051
0,184204113544471
0,186241913654428
0,178757304538856
0,181376872919806
0,180026936915538
0,17971689602384
0,17890364929569
0,17848526369595
0,179630302817817
0,17751711953235
0,172952123762025
0,174555089496805
0,174946040013328
0,178583392271368
0,172459827087187
0,175735587510313
0,168171250107947
0,171297039328029
0,169653904747076
0,173380818480382
0,171313475167391
0,172476448062696
0,169939706647085
0,170908319246008
0,163975767912566
0,165108762988072
0,165362114052793
0,167211508046277
0,16031441609224
0,16299138191569
0,160283282790024
0,164698037184714
0,162337414391725
0,160617181498964
0,160857098848184
0,160673108558744
0,161365266770012
0,159526521279002
0,158243889367253
0,158976470146179
0,155658478953817
0,158000656790041
0,153883506888315
0,156910865046225
0,152597609725172
0,155979316471173
0,153344580672763
0,155755895900318
0,152074307602804
0,149727789373097
0,149228107250651
0,146875291957954
0,145036795359506
0,145476676745333
0,144479971858702
0,147280538832601
0,14406308361115
0,144329724890486
0,142579503457074
0,142349964752862
0,140531347267965
0,144030787828542
0,140574170320879
0,140505982206418
0,134930758782957
0,141613823695518
0,137706226921688
0,137379486729204
0,138600270896655
0,138980190539948
0,136822672291365
0,136570352345515
0,134115288042693
0,135882435106115
0,132080265068006
0,129851373695052
0,128891945648777
0,130430613097083
0,127805823034692
0,12546229699266
0,125299096793854
0,13094461777838
0,129335289292806
0,130385049864666
0,125337947492646
0,126707813821053
0,125299892367036
0,130802729193434
0,121918399853815
0,120431151768667
0,121133170760321
0,123658425349196
0,119415176285664
0,12445371226575
0,120911749245435
0,122699052549513
0,117494588812475
0,120252777981469
0,117339694204107
0,117462361486367
0,118644669653446
0,120304405943429
0,112553940730007
0,117145402573588
0,119612667758727
0,119152077266877
0,115425656561157
0,116696352744185
0,114117260348175
0,114089784056096
0,111910913783045
0,114901069780236
0,11302138412559
0,116349676538829
0,112504517061278
0,113771898822252
0,110258132579433
0,113951393276122
0,108825461675875
0,111671888430747
0,110665094108601
0,110437017851017
0,109200589349358
0,110504849526954
0,107687420326989
0,106734144028574
0,108778092444552
0,108736109577902
0,104936550606686
0,107205661430873
0,103977229121843
0,1092808753312
0,104230466833581
0,107004976212218
0,10407729004178
0,106414019938348
0,104228623060424
0,107152951366841
0,10356982225494
0,107850499563951
0,101828346235963
0,104595252672537
0,103304438164377
0,103261718397935
0,0989909611858133
0,103392978386113
0,100841495070918
0,10276411696975
0,102120792225929
0,103265081325167
0,100494056407054
0,0990291686057017
0,0995701065033086
0,10438331359386
0,102379106805988
0,100160200906279
0,0975662504934331
0,101158318670177
0,098692784707028
0,100469110202157
0,0975368808456275
0,0993904360175829
0,101097483474766
0,0999021937001748
0,0973496785054762
0,0987538359636091
0,0974802360722657
0,0999479301753388
0,0981811976851956
0,0969573901834202
0,0958689318868821
0,0972781460774898
0,0964865833742378
0,0982085842179657
0,0987409603948159
0,0973120426709422
0,0969214524170949
0,0957067779447343
0,0934467045251596
0,0966317301133288
0,0952237648792271
0,0950596685185064
0,0936273281837672
0,0947891911850861
0,0932378295619066
0,0940585253733528
0,0931803329021706
0,0932487906735055
0,0929675380740911
0,0934300016926288
0,0902074296389333
0,091306375184023
0,0899825658905042
0,0949223121059779
0,0922751669381765
0,0945771055248641
0,0883921035702009
0,0930051377068087
0,0887359659245653
0,0897693700143428
0,0895047860440678
0,0930415514712249
0,0895117011734391
0,0909174252664828
0,0899790953194845
0,0876645660626262
0,0871409319402994
0,0883876779208795
0,0881504303734613
0,0911047336474055
0,0896535333816917
0,0892499148694238
0,0846898464732893
0,087803730128733
0,0869113204640111
0,0863925095978416
0,0880358509421578
0,0883481025988154
0,0855017370159904
0,0860590252938105
0,086326982319711
0,0871393912624755
0,087617165331248
0,0868735630644932
0,0866296219784838
0,0883567211779806
0,0839203557518014
0,0840048314132032
0,0866621960773148
0,0851985058936382
0,0860394939291507
0,086092760207238
0,081647944903844
0,0816548907959186
0,0829937990156945
0,0850389858900329
0,0819266022975466
0,0826425635937234
0,0854621012124504
0,0844123083260108
0,0823817947746796
0,0810508265528423
0,0811710895109215
0,0824654298485448
0,0806811814296707
0,0778807504056773
0,07729503923594
0,0802720483665638
0,0791365712464142
0,0795775183771137
0,0793518522794726
0,0772821410486503
0,077004387896778
0,0797988507755202
0,077158867761183
0,0777559557255567
0,0774271842079575
0,0767189745770836
0,0748165942588642
0,0760895183379154
0,0739655710405629
0,0729008408699048
0,0743248164921421
0,0756204672869073
0,0736663689552882
0,0738216061618274
0,0735309613101117
0,075458120673466
0,0747102357523846
0,0719454904231088
0,0725298229800322
0,0710973583847863
0,07261532905173
0,0731544297277223
0,071032213267236
0,0717026978685616
0,0736172838745359
0,0753109968492601
0,0730643351631238
0,0715240275730875
0,072421240581386
0,0726391082562047
0,0718465950105189
0,0721305123091628
0,0703683147610352
0,0688868880833377
0,0680502930596796
0,0709581383384048
0,0706274982170014
0,0706569986499992
0,0685881509695177
0,0696190510505807
0,0690849592049603
0,0663727859279176
0,0673334174360495
0,0701636198012139
0,0705017422101411
0,0688011567005924
0,0679422310438377
0,0669735203316438
0,0662891246613103
0,0660065749525516
0,0666390818101468
0,0680398229359022
0,069508275024848
0,0673860959157998
0,0653658116990716
0,0661679203531723
0,0671252304241595
0,0653574017893282
0,0646295800470936
0,0664789030786438
0,0667720821951242
0,0647047438593894
0,0653508838243078
0,0645574697649957
0,0652503667680694
0,0652757554268872
0,0641299353721434
0,0637240312603212
0,065531890515485
0,0640679941151231
0,064657342401592
0,0622201652712739
0,0628980904262588
0,0626569245957387
0,0629212380202446
0,0619264049506331
0,0622260034376331
0,0604350258137007
0,0637960349775072
0,0627409523668388
0,0620917550180753
0,0602291438710021
0,0631646575695061
0,060946855415946
0,0640834659365238
0,0637245433805701
0,0627838748768291
0,0606605721567966
0,0609869969463583
0,0618241153609368
0,0663439163770073
0,0609074118239274
0,0606462838188516
0,0615934200589194
0,062216115252571
0,0602460019827633
0,0622041876183529
0,0596043755736971
0,0608533426244679
0,0591474090902401
0,05969484420486
0,0574820740062256
0,061585306874265
0,0566951306730808
0,058568340794234
0,0579602771830586
0,0583594551557256
0,0587627793880878
0,0629730101368429
0,0643307844918053
0,0600578651108259
0,0525830436224897
0,0646446225450772
0,0589204305392713
0,0578569409079798
0,0555828829237494
0,0598345439519807
0,0521262410951492
0,060016320068026
0,0575860085336706
0,0645053203644669
0,0572068430259257
0,0628290599162984
0,0558822870247783
0,0626464381829796
0,0556003505162743
0,0623721302397646
0,0547651891306176
0,0644223499736645
0,0512296357594672
0,0663687424704008
0,0573403706244083
0,0665761800875811
0,0509788475147542
0,0676487900835837
0,0484362654595169
0,0678233518027685
0,0468986514273197
0,070264807614802
0,0511875076017428
0,0639154029293425
0,0422705967230366
0,070461629580079
0,0430294943814924
0,0725973399105392
0,0492931078396063
0,0822685932339145
0,0421804067974688
0,0721269542892225
0,0434509080534424
0,0754486784189103
0,0496479941332676
0,0785597169238733
0,0460218814590262
0,0691449445357317
0,0530454473321662
0,0717367799858397
0,0557139196720439
0,060996319105231
0,0602138277658084
0,0554270811961217
0,0690847288751617
0,0457215508031891
0,0757042093326055
0,042095252823629
0,0783599926780011
0,0430211810108585
0,0799471409836279
0,0416332907716569
0,0772782797328606
0,0459618997916664
0,06982819972627
0,0532899126220128
0,064799315011279
0,0562148622402632
0,064912214935796
0,0591799667200992
0,0598175774807408
0,0571812910966723
0,0630660542838664
0,0561654467396362
0,0639169836749583
0,0561621096625825
0,0678311993952755
0,0557252322176535
0,0649311438226965
0,0591182885351879
0,0628109695589817
0,0558919262561615
0,0612620122886139
0,0582707946831103
0,0655452135807166
0,0603651374838174
0,0650194177810393
0,0586220432204374
0,0643427220919986
0,0574419400234066
0,0634526561634872
0,0611010942775249
0,064197000623849
0,0593676210134098
0,0630346535824681
0,0561269170725331
0,0622940398266899
0,0591436341479188
0,063182687302257
0,0622566890419074
0,0627709593872006
0,0598991516352191
0,0623453321806819
0,0586044503657711
0,0646986601955225
0,0601849752484763
0,0651952873615907
0,0606883994765669
0,065486364000802
0,060364175036388
0,0640050312036112
0,0631022730928074
0,0677438143574045
0,0605817603474165
0,0664860331654505
0,0623724570728619
0,0643884604826231
0,0596872340400797
0,0680805252698971
0,0603303927904455
0,0683129770266626
0,0617484779601332
0,0647369552760944
0,0625571740989088
0,0659527436356031
0,0630592470436954
0,0682942931373239
0,0628213193250573
0,0678083064970222
0,0638576141783028
0,0655286406548849
0,0618316365433634
0,0668220017200389
0,0624994336870008
0,0678137939888431
0,0635062660651955
0,0655073707763394
0,0642634204250048
0,068110051374346
0,0654890954653128
0,0692320752796756
0,0631484101338558
0,0663119193613486
0,0632003186694444
0,0667651292587732
0,0643748083583029
0,0662097110630244
0,0657776294817813
0,0684522786586287
0,0644350700461214
0,0667040488706615
0,06429770053809
0,0690979722947303
0,0656539384634414
0,0691427052335031
0,064815633792721
0,0706094016562391
0,0669124243870122
0,0679954965246152
0,0677970415337399
0,0677128466253979
0,0649904461017888
0,0715919359701787
0,0664049907224678
0,0683533097268374
0,0679131219994128
0,0710020638252439
0,0688982978188588
0,0706839947862779
0,0676519842441173
0,0719800741870547
0,0683058928131624
0,0690814127264085
0,0686750080698733
0,0718674086342173
0,0672033985555169
0,0716047043758698
0,0674335023055838
0,072753745271048
0,0706350200257089
0,0726627578241848
0,0693038301365018
0,072064538430093
0,0706479925526518
0,0730184510856313
0,069779746437274
0,07400439344627
0,0703251656829519
0,0707553493543445
0,0687260569894301
0,0717233110841127
0,0714407878086965
0,0739558224413284
0,0698262633141973
0,0727037908421043
0,0717513392387034
0,0745725351671719
0,0733407668767776
0,0731571815610173
0,0715226321999849
0,0729259853781633
0,0718445409840826
0,0754252695292976
0,0727937092279629
0,0755839110988043
0,0721485415523629
0,0748850529459414
0,0720760391202037
0,0721836622521753
0,0704991979862389
0,0749402080259826
0,0730518771881202
0,0761834536944512
0,0728168929802759
0,0726118015129304
0,0715804600814859
0,0768754617111032
0,0772523362286176
0,0759367519431697
0,0743431187880521
0,0769130601578826
0,0746262882880562
0,0782351493740573
0,0764633128581043
0,079022491222698
0,0767350069251255
0,0776592607917642
0,0747781516510308
0,0788945383995047
0,0750752729526384
0,0767448094600396
0,0747860398677042
0,078400744535537
0,077240300854143
0,0787459685442961
0,0740308671652425
0,0774092292303214
0,0752316428113272
0,0784722303946273
0,0743019138905302
0,0758904121160031
0,0751785633173334
0,0783631065170212
0,0761051883766184
0,0762107341263235
0,0759117025765678
0,0795097584234109
0,0745541768635615
0,076547227747642
0,0757054922761524
0,0753628100087254
0,0730496743563194
0,0776959291558678
0,0766298117715322
0,0762248542220515
0,0723384074536915
0,0735123949577987
0,0731147562254161
0,0765257670546711
0,0740574826973743
0,0748933714135201
0,0736235067815214
0,0740281051841005
0,0734821790182399
0,0748182192979059
0,0718414375693689
0,0744472551736985
0,0718940797423357
0,073861697264658
0,0727492505330823
0,0739073396191948
0,0749198016046652
0,0757461345567305
0,0709255617476482
0,0742576924616576
0,0724865494847441
0,0743544515401254
0,0718745833829205
0,0757894037591384
0,0731719434859594
0,075527991711163
0,0708336520468205
0,0737000733080248
0,0706794438669489
0,0748533379387925
0,0737875785459933
0,0743953444286834
0,0719196206337686
0,0736793351748123
0,0687364257181168
0,0718685833090804
0,0706712510683733
0,0740462016373602
0,0723598004153346
0,0743246778499708
0,0723848164064019
0,0714290250002264
0,0701011419825737
0,0721404790118107
0,0699185479922845
0,0715816396577865
0,0712869437318362
0,0733250125316059
0,069557935761077
0,0728697897851312
0,0702955897702464
0,0722588119681637
0,0699592024259357
0,0720474808994237
0,0687406460191949
0,0707801171181277
0,0698368669890689
0,0719748904759976
0,070532134439107
0,0716468283250536
0,0677913355030475
0,0709297921050611
0,0699408206579325
0,0711327831968371
0,0690172010737147
0,069980570568383
0,0696372340191286
0,0707018670263896
0,0702535117132521
0,0706101853983523
0,0693540800699622
0,0712518068787349
0,068492747565674
0,0681979122755985
0,068438666876385
0,0720771178769338
0,069545777214624
0,0704662021180095
0,0685041820281918
0,068639979597559
0,0680952440638144
0,0691097282295411
0,0660875059654341
0,0691525696074017
0,0679695183698553
0,0685012307599234
0,0661051338418573
0,0685240669648976
0,0660600691561807
0,0677401759761834
0,0661207988824313
0,067802602698378
0,0643376256025092
0,0696212935423208
0,0662261969785179
0,0651025969567774
0,0659924199374532
0,0672776099171176
0,0646649976116566
0,0657286164812802
0,0635888173411897
0,0664673487860166
0,0639324382869226
0,0665273170483903
0,0640660119025216
0,0644569570938155
0,0637449215313524
0,0643355194235014
0,0631459271255971
0,0632232618458624
0,062897711160045
0,0639479822643711
0,0608545745256707
0,0644123347659088
0,0630847824057117
0,0629373360490764
0,0614844992526595
0,0618024476630487
0,0626380514414955
0,0621124592313414
0,0585537693256368
0,0623367363767698
0,0579909376665352
0,0630792220020916
0,0595521121970505
0,0602858309368592
0,059330798201214
0,0611926893059085
0,0599334149756312
0,0606455972529712
0,0581952874868465
0,0588223749065861
0,0575552513329967
0,0578566036993017
0,0552156469089229
0,0576567137798275
0,0554270808745308
0,0589181318573023
0,0566958409764639
0,0581955480849275
0,0555920466257432
0,0556745499963973
0,0544660329548894
0,0584049649151631
0,0555911564995407
0,0577165203450646
0,0528130421132062
0,0578238631843129
0,0536866955366939
0,0554900173445685
0,0578787885818008
0,0571180132704201
0,0544305446375629
0,0526570021568422
0,0543221655225322
0,0538807020495693
0,0539876609515189
0,0573283184054633
0,0526939311160367
0,0535368992879598
0,0538221829867911
0,0538564981056213
0,0542161707210568
0,0526142027071949
0,0537017177381312
0,0538664761450329
0,0543005439260892
0,0545540511742818
0,0539198823832026
0,0544900527269435
0,0538608097856025
0,0545455994817911
0,053186732108968
0,0520445815023637
0,0513630732490636
0,0525016665901995
0,0533776818017849
0,0520661751412891
0,0530487992522134
0,051546321539727
0,0510092423506809
0,0517268200189746
0,0516570944747969
0,0505914893265817
0,0502938025752464
0,0513397415887792
0,0510111122101594
0,052210573795474
0,0484562674035966
0,05024490647253
0,0505217796094653
0,051431971016133
0,05000583850516
0,0510938279284913
0,0510686540395049
0,0508993475162193
0,050386575275624
0,0485232434327179
0,0491305537524227
0,0510562336209363
0,0494947879647824
0,0498917401015285
0,0460350679726005
0,0551729969248929
0,046630992275774
0,0517862263536998
0,0488590869344437
0,0511258760226713
0,0452073201446891
0,0486831851462115
0,045591206307581
0,0500632102842399
0,0465398263781835
0,0500017258395383
0,0456505501112163
0,0487656779529619
0,047349495123554
0,0490103810505902
0,0452606100348247
0,0482969294343719
0,0472115851734471
0,0496572636755383
0,0472418014813077
0,0484143805452441
0,0490936718671665
0,0514568739412317
0,0471536933119722
0,0524956258641651
0,0420164388213204
0,0585390445832475
0,0450797893872125
0,0525378489584546
0,0480616968642075
0,0497657994861738
0,0485510121665175
0,0486835508544727
0,045050508569154
0,046201304258065
0,0488633533667915
0,0491191017564121
0,0517927896905837
0,0482517168655348
0,0472747669584754
0,0465951923774583
0,048834020385923
0,0500159351239608
0,048018767034194
0,049122305787786
0,0454292985201618
0,0490156614541124
0,0451426717293213
0,0497452270420052
0,045337799097796
0,0492798676375106
0,0484900808318091
0,0479018425341526
0,0448669544927922
0,0490787910056843
0,0448520831414667
0,0466723920850552
0,0532217218973264
0,0472831032001248
0,0506227252484745
0,0469360023061717
0,0496983702860731
0,0465465609234103
0,0486640438447775
0,0499434050068557
0,0483137553482545
0,0476855021643154
0,0491768786225084
0,0486537710209941
0,0492812406955182
0,0475144560373617
0,0479406935701508
0,0502808385559681
0,0473302371758459
0,0474737058201797
0,044941437979375
0,049473984872815
0,044180754910176
0,0520982563257147
0,0478122428814476
0,0504151131059537
0,0518206304356037
0,0499044975988409
0,0503682596083552
0,0496622769140397
0,0494871097723059
0,0460094681146528
0,0492111408410652
0,0461886381217159
0,0496232697099285
0,0492669110734814
0,0500281129295751
0,0476317300254405
0,0488462000889341
0,0454583010233118
0,0529764556923451
0,0474329031808781
0,0517847024271063
0,0477817280856765
0,0534473233471986
0,0441999196936047
0,0537701870657891
0,0467876255741487
0,0571871332035005
0,0393731514891188
0,058545510398234
0,0530663708865098
0,0486500087658803
0,0554187702278112
0,0493657533476901
0,0522489917590839
0,0482863030439453
0,0512464901866899
0,0508083107767994
0,0512481824697741
0,0499568803848607
0,0520678048176545
0,0478016075480187
0,0540196762546174
0,0484589081606527
0,0519632895670479
0,0605721261341099
0,0508890065027475
0,0541065223731426
0,0516059477829759
0,051602346669742
0,0631360941824871
0,0468300293048042
0,0574614560182782
0,0491104539969251
0,055217980753906
0,0531846093731038
0,0550021843089192
0,052292008954739
0,0557444566870407
0,0540298434177707
0,0555179078300481
0,0527998313984687
0,0529213697225125
0,0555886335217662
0,051182762518626
0,0564711987920997
0,0583057771055848
0,054527675470638
0,0582544869397557
0,0540558236618054
0,0567664797799255
0,0562418281268705
0,0569628453382474
0,054637328891719
0,0601729752148068
0,0610068409871206
0,055737274273321
0,0600085877711866
0,0604413349926075
0,0547689458541349
0,0621467845396092
0,0545817506358416
0,0667332042663465
0,0500265337534276
0,0623932168700788
0,066179461193556
0,0569803277891899
0,0702274800195504
0,056281546225227
0,064996041731995
0,054028926178398
0,0665963574332873
0,0517965963904543
0,0721894490932826
0,0554543621865231
0,0685654812025473
0,0577406530583904
0,0667100134020973
0,0625136030133179
0,0656021063156322
0,0624824781518853
0,0678220484206005
0,0619513215463577
0,0713234798156417
0,0653328974123983
0,0611945089960374
0,0748874905957168
0,0633406637350522
0,0771961122375352
0,0660011533217966
0,0629808580608813
0,0787754572908276
0,0635861562644747
0,0749707071560469
0,0645113430076107
0,0749835315337554
0,0664009039637996
0,0682020712442341
0,0810340775179233
0,0697424141125683
0,0718971559732376
0,0748295488999414
0,0679351874833077
0,0839020508753752
0,0690069117973702
0,0771617978083942
0,0716058677246082
0,0796776923575935
0,0634809518417884
0,102053022048575
0,0718373085623644
0,0836495204407713
0,0845123888323659
0,079232652198823
0,0852545730460247
0,0820349760032829
0,082487282580161
0,0820810568171925
0,0863029219482059
0,084143260615275
0,080331521530111
0,087616535632139
0,095289153994733
0,0833027548583363
0,0965325304709347
0,0867329052200399
0,0877264108597779
0,0860316919163643
0,101507158631822
0,0999119735663608
0,0996074921000022
0,0905944247469725
0,106980315798849
0,095138467559013
0,104661901599612
0,101369772373077
0,104157941351581
0,10273434980445
0,102036273925513
0,109519124580428
0,106457330526334
0,112194120352209
0,110013840458841
0,108810298449163
0,114343843782364
0,116008814793033
0,125371637204038
0,109403190960263
0,139082031275564
0,120215941161461
0,130390341645936
0,124915241481991
0,129566823017291
0,132098690857073
0,134385057970547
0,136829764941527
0,132185116085312
0,144551926765311
0,136857604104511
0,148658898825653
0,154373060651121
0,14358764963517
0,156844256831575
0,127216070571775
0,248516820623297
0,149260025631748
0,185314952000339
0,159144314318375
0,187465078881208
0,197589106027794
0,187912476686103
0,190887979995946
0,199555147437756
0,196719164474603
0,210856292658883
0,209844006852833
0,22382548971331
0,222552533741561
0,236998465369167
0,2220307437827
0,253903518527563
0,250660063865995
0,276909341826706
0,262951058914005
0,268875213250584
0,274763373047163
0,289550025865326
0,281387188051644
0,304054307224704
0,2944162122544
0,309425234838126
0,335079234885983
0,319886454899938
0,327615097608367
0,324498013176338
0,355501732195554
0,33076248845137
0,373437991728435
0,360691847085427
0,372436535893584
0,375009239084097
0,38423731141326
0,391715095571238
0,381840648756374
0,415247892427853
0,405809207156662
0,414050425819631
0,417762317754544
0,426958472785771
0,433328406783585
0,434153251714142
0,434342402256031
0,432783043251555
0,457076740198327
0,420599623231351
0,527116152710225
0,479355749340051
0,464939729924674
0,458534364579461
0,455792706371858
0,48396354563179
0,45701864814975
0,506032436882741
0,482089121104043
0,475774295479146
0,475261002610963
0,478772095812854
0,472074511025232
0,475195099548535
0,481833398520142
0,46194233666568
0,493140019098883
0,463215568524048
0,485934655937638
0,503677623777083
0,468675092544898
0,475349146696894
0,469600529776279
0,473942347878013
0,463149052099412
0,462696493453864
0,453108860842015
0,477648823087972
0,440649947721368
0,458890429210173
0,424524959923942
0,453560286008139
0,439901429300217
0,436511350415113
0,429750757363711
0,42909689179354
0,427608683210812
0,411316955728283
0,407307134319159
0,442013089797383
0,395862206746648
0,404584891836636
0,39230447695447
0,391661737124007
0,383812886024864
0,385698750541616
0,376640829045821
0,376860024460047
0,366683087392935
0,375421366451617
0,356822268091733
0,368245396363358
0,356728737305858
0,354464761275318
0,352444845107924
0,352431407796601
0,347655250294512
0,35207727195856
0,345187035535697
0,345649072676599
0,342497393383766
0,347747626098613
0,338091745556716
0,339702772797176
0,332071332518653
0,33705945767125
0,330587907328017
0,340512514546468
0,330204452245862
0,332611413263909
0,324827925435915
0,328683155226856
0,324018530062065
0,331251384309204
0,319688708241258
0,331594801226901
0,323281594971999
0,325595030718598
0,32382815727165
0,329395940073829
0,323027337226875
0,306510445904791
0,349063525747351
0,323658596381244
0,318409128460278
0,32220995987381
0,316339449424107
0,320668329603011
0,300026764594469
0,3311177114494
0,31193001042889
0,315768920465268
0,3073856710856
0,310844209326686
0,308990713808881
0,311280833523618
0,295314094116155
0,313211569480211
0,275892913854248
0,315433552131101
0,277573757733342
0,328078076066986
0,315406961856472
0,306438082733853
0,282479322320913
0,290869858184023
0,296629846699586
0,285732519543861
0,298863170525497
0,279242422198084
0,301361193079292
0,288275200971622
0,288611603542223
0,282434385553172
0,273473245827392
0,287956527976245
0,283334360201312
0,271026768755587
0,271427581634768
0,270362627408617
0,261124219482049
0,274580739551017
0,281555959057513
0,271945220654945
0,257185636410731
0,262223456145612
0,25143584906292
0,25698283866761
0,264490654027106
0,244483547714499
0,255918920313754
0,246354729193939
0,243464240565693
0,239193788377398
0,244990853650671
0,239550265446291
0,230264863433257
0,250751887463316
0,222075900947069
0,246618413997988
0,21624016874229
0,253939576063789
0,224210374181988
0,238269806439078
0,215545622518658
0,230943923466543
0,222953372929953
0,22031636132674
0,223592486767779
0,213000884081963
0,214525757901623
0,227336740342491
0,201910445909764
0,216042100840412
0,206180190434628
0,209824318312295
0,206156001700794
0,207650791759046
0,212035402373618
0,206312227274234
0,201496189005566
0,201058483470693
0,19700546063701
0,207482550258688
0,183763620794099
0,218690530339834
0,190435128844559
0,197738537816831
0,212482856896758
0,207166513901024
0,20459043065425
0,207927302999571
0,201790116696355
0,205493219578494
0,206139756303787
0,221059274756215
0,203935611988115
0,215356388978595
0,214871482648163
0,216551999045117
0,217071509575701
0,220039753524437
0,223915376553222
0,224649845359637
0,229231207721156
0,234693219314691
0,231451769533728
0,244457375695921
0,23446025743696
0,255975504714797
0,258650282088062
0,250132432671493
0,278283197246663
0,254982854841484
0,28803150567808
0,274963895217798
0,283723680802635
0,286253445506692
0,283570290420657
0,295530782961459
0,286496237985931
0,302923448427297
0,314552960388754
0,305638850135173
0,313481492693664
0,307061926489489
0,320786312094477
0,311483126991801
0,331506212177337
0,302954577711835
0,348702586710392
0,329865145909804
0,334424764720097
0,338319915727136
0,33132401109836
0,335868536482171
0,330513142728113
0,336793061079786
0,335395862898648
0,335425366167763
0,34244326603088
0,33800938566808
0,351166283432647
0,341953281933985
0,343685831723311
0,348989512285072
0,349485107286452
0,355672768490034
0,354174340667713
0,358626738686097
0,35743816259438
0,345792286041536
0,390590246477084
0,35774132798487
0,368274194441282
0,364647843881821
0,37369434549746
0,374328134885137
0,369049767940099
0,384123388567407
0,381931422274393
0,384128334402895
0,381768908071323
0,38893268025691
0,386870799743414
0,387545411448255
0,398156003339556
0,388094491544513
0,401080407353492
0,380313720033129
0,423377377655052
0,409210614313613
0,409399188230478
0,410156956163252
0,40053754990611
0,407505148578518
0,405155558159241
0,410165732411345
0,409172098727852
0,417970787875014
0,407773345530973
0,412259978352304
0,408669176674249
0,414055666408317
0,408386997120639
0,409668211648467
0,410659838572974
0,413878052328411
0,412512512774861
0,409113167087724
0,410559814794167
0,401899958201077
0,413224959232764
0,408406972795378
0,404072531355825
0,405808571419319
0,403392765514477
0,419273601178463
0,408255143931155
0,403263820101444
0,406313380376132
0,400795782238393
0,408380902487849
0,397911372283442
0,406180469680491
0,415672533940653
0,416683659396761
0,414128832551185
0,4120980338376
0,420728472907422
0,417609831454449
0,415543735532822
0,419593248945749
0,426256577528327
0,424376053416081
0,429820771076881
0,423602576418162
0,430928137356886
0,426005166865606
0,430900656085544
0,42670218483218
0,421509148963342
0,422998962764846
0,421062963056878
0,42131094336385
0,420520742887882
0,410896067100627
0,410872095039069
0,411878704883676
0,402621308201033
0,400735604235662
0,408981477343477
0,390819643642156
0,400651754192792
0,3887420388564
0,390412127039843
0,380804596780809
0,389098394507927
0,378068139769913
0,379810675532224
0,377702836343888
0,37549554148694
0,373695787086769
0,373792492085929
0,370807053742696
0,369473254722326
0,369054475499497
0,367877699137028
0,367157318189207
0,364431065535012
0,363740987173744
0,367428078588172
0,363642598393982
0,365722980100282
0,357882502460656
0,371801295552278
0,368639532102125
0,371639290277693
0,364313306544247
0,372952872020616
0,365801014947942
0,363890636165145
0,363062195834747
0,361732201284816
0,362521954463767
0,361812062819074
0,358735405185105
0,359636659134603
0,359736498097354
0,356923070003512
0,361320286701293
0,357923905993188
0,361570378968128
0,357725933778211
0,350035125307507
0,356302966367574
0,360084311524895
0,355235392913244
0,352770368966575
0,353432421561568
0,352889844275606
0,356383331446547
0,353387027063249
0,3547258826603
0,353805610028403
0,359163460996493
0,354989542286283
0,350640958779482
0,350525100125072
0,353824357509819
0,356766333972075
0,351881216572731
0,352088199166583
0,347755047437998
0,349522192308552
0,346018769391564
0,34379704345058
0,342129715181221
0,338662853780104
0,337588463233801
0,337425509124938
0,330627935750559
0,330347807900813
0,331404740642604
0,322608938597519
0,323244837317962
0,321372961603371
0,31935727293432
0,320279962189392
0,316438584841614
0,316722584981055
0,313559161014598
0,316998769212419
0,31406656232081
0,313444608974137
0,310855461602746
0,308870179261048
0,311047827739237
0,31010563230952
0,311071279489978
0,311081701864638
0,308199070800693
0,309713304449409
0,31117002195108
0,309032710413408
0,312003440167544
0,311562071526188
0,314564839049267
0,31427928769156
0,317443824879042
0,316266185500584
0,318864841262791
0,318947296072669
0,32319861606948
0,32033563951514
0,322784621048927
0,322309390511589
0,326945415787644
0,327973247710888
0,326728566836626
0,327426936349627
0,330063605144495
0,326146681177652
0,328148976627827
0,326428302365121
0,32918679377886
0,326474058345138
0,326724989020061
0,324983528446114
0,324933791553548
0,325849091351175
0,320361676848998
0,321789580535698
0,321814612893665
0,320632036259712
0,318656641830459
0,316178089739799
0,317216268480319
0,316194891846443
0,316109614631954
0,313763845908979
0,308749342159139
0,310976792543926
0,313046702509984
0,31265847752354
0,307036054301029
0,307768785993902
0,306912355812855
0,304579515522474
0,302653326553759
0,304419551114207
0,300625871522686
0,299865508498849
0,298739364600148
0,297665652177475
0,298152945206642
0,296288812884536
0,29614225148434
0,291758694036867
0,292889979659757
0,294584748741918
0,292875799765272
0,288772068970847
0,289838460177398
0,288082848183428
0,287096822748206
0,285356946616879
0,281385281068028
0,277104418394966
0,279589443820399
0,27404854747504
0,274465494198534
0,270649193342182
0,269168695911287
0,266662089433027
0,266631875796204
0,265166366669932
0,263252554524617
0,261538149060772
0,263204261443569
0,26161426223975
0,260568029156311
0,259589799196245
0,260218126554786
0,258075683192987
0,260589653110788
0,25763749633273
0,255824781190403
0,253977322228752
0,254003861771303
0,250292565021317
0,248421933562112
0,246185785062603
0,242621071758674
0,239794506756838
0,235722935899292
0,232933741534804
0,230281672675931
0,229829938238208
0,227739381309877
0,228281165989904
0,229832927583812
0,231622252093723
0,231551881319079
0,233471666275296
0,236828734819566
0,242131305071248
0,248156046346359
0,253036640602988
0,26215724095289
0,269189088624353
0,281853855011215
0,29021838121214
0,300842446220978
0,311995095708495
0,325557883035915
0,339403312963653
0,349701430992105
0,359506693520141
0,374592308545547
0,384261017324596
0,399334240544488
0,411213148481309
0,426166771557296
0,435677410365034
0,449081215977246
0,461349299296006
0,474975041028737
0,483149474192296
0,490962857056675
0,502460711862544
0,508935196810217
0,517680650218791
0,523290977305577
0,529411133081151
0,538637286799147
0,538536637700101
0,540696065962333
0,54224645661345
0,545351968136478
0,544464522246256
0,546266217561945
0,545886667603426
0,543087648954059
0,541470039207548
0,54362877729683
0,5432015451116
0,538418494129505
0,542111914461543
0,535252685683235
0,546148376833999
0,537610322741265
0,545639662422862
0,541890191578021
0,546414749960875
0,549174082147745
0,55052471381262
0,556504363956006
0,564754727216004
0,566257960947099
0,573101145344134
0,576615577853643
0,586862994154224
0,593373701943312
0,607019484405002
0,613011224547361
0,623041947073931
0,632053956003252
0,640723282093797
0,649870442819699
0,657965091635397
0,669562492933142
0,676848769787275
0,680329205742591
0,68116180491258
0,682614408927401
0,68259138076939
0,681974635763736
0,682805720588662
0,686724375446717
0,678462677715315
0,677337706231336
0,669473411991321
0,665606973134316
0,663680134133903
0,664849220408047
0,667051456124229
0,666053823535052
0,677056308244687
0,685473754396581
0,687283567219418
0,701886951501978
0,706016218716571
0,730212026396931
0,739275423485978
0,744157236431892
0,75363825976164
0,757246870665663
0,771221668415375
0,781765109135483
0,797250340955295
0,809449524778651
0,824426303439963
0,831186427458002
0,846868661141214
0,85164815403528
0,864710285027719
0,880261736877519
0,896481559922512
0,913260900255179
0,929270440546476
0,945157938474191
0,961425410169023
0,985800554306411
1,01574077558045
1,01427287813322
1,02925452087241
1,04819899218862
1,05603928085879
1,07621974400721
1,07253086421832
1,10415758214569
1,09792781921429
1,11972224156852
1,1075958919649
1,10404791828534
1,11062457641276
1,10427699881865
1,10763689718592
1,09677493483764
1,0885890792356
1,08270754764365
1,06178018119068
1,06908628117006
1,06166586982844
1,05644750953221
1,05607256871267
1,05933088096962
1,05648437335295
1,05908671887463
1,05495950136977
1,06399985901726
1,0747713122239
1,09135935915263
1,09153041179839
1,11798196015161
1,0985578105514
1,14243603467028
1,13439975322711
1,13647824672486
1,1508796165964
1,16103370373946
1,17271536550607
1,20242994927821
1,21794271837837
1,20527377753841
1,21496662095799
1,21544052784969
1,23168451863342
1,23097801643533
1,23202519504158
1,23627765151562
1,22064058297132
1,25144588543991
1,24274057836078
1,23126097791055
1,27051814794345
1,2511462438833
1,250604509255
1,25119591285077
1,25643822216587
1,22910846661987
1,25499889360844
1,23949301407482
1,21942951762054
1,23049429567737
1,23447686566624
1,21092683698405
1,20630564893546
1,20843034386029
1,2225932769734
1,20644528307064
1,157278523539
1,12349281931608
1,13499522253905
1,09402981554329
1,04722383642954
1,0362502541012
0,995767326043086
0,948693848355822
0,916830406971297
0,897172273250109
0,860881536724614
0,836164362732037
0,811784345096446
0,785596311898932
0,755949775257039
0,753548668114002
0,74160458772968
0,732901281511091
0,724375827349053
0,727768327372595
0,714038446307429
0,72147494090328
0,706007877136329
0,700078332955839
0,687185742278241
0,685194968509547
0,677380836527123
0,66825981242341
0,665040303667629
0,649059883949687
0,633343513122316
0,621137043502781
0,615016435569008
0,588430875134685
0,582304411555213
0,564636939565406
0,544280181843711
0,532245720151382
0,51404933715403
0,48985227192246
0,484834558216178
0,461740908653052
0,445148839745801
0,427617861488315
0,412697238179753
0,398251124427193
0,388573233633984
0,36575169663541
0,352521425974371
0,344898104664035
0,335983314672706
0,322052928134109
0,315859777199449
0,304247909584953
0,299678215902933
0,293907489246605
0,292179117188944
0,281661916375361
0,278762981898169
0,276674499852071
0,275345692565418
0,273898142837462
0,272678118090624
0,274038800146733
0,269022434222612
0,272900547106853
0,267529713585321
0,271203727477207
0,269294454029089
0,266009634915641
0,269036930996837
0,277868154523474
0,279527441573358
0,278779688185034
0,2795467429489
0,27989931732377
0,283168579299871
0,279437810715135
0,282079929036479
0,277128048796788
0,274524356611422
0,280073098733278
0,276843898358693
0,274472702083846
0,275382636086493
0,272099985182488
0,277447272570523
0,269419904595968
0,271731052910693
0,269158393105189
0,271498351019075
0,270223972185098
0,274088237018671
0,278169212496079
0,277672418857456
0,271684428409952
0,276501149639268
0,279625844992427
0,286878185997923
0,287395195992066
0,289000207487445
0,282874219178164
0,291522350500395
0,286503858332064
0,294214084267
0,298780335638242
0,300569932872931
0,296110642618595
0,299254619203774
0,295144130410279
0,297265998461149
0,294572049745236
0,297629762807859
0,303727657962807
0,30296381362076
0,306457524825964
0,300422488573917
0,30734489520927
0,311615336446757
0,312212702467359
0,323485680810337
0,318436906714436
0,325593130962918
0,33535808852147
0,343026398556702
0,341525648172072
0,345300217927869
0,363346661154599
0,376476400631019
0,377829978341109
0,38458229560044
0,388910328795459
0,380677037199399
0,392152469835876
0,389184014313723
0,390842034237287
0,389639934501225
0,385028942091828
0,375167733546837
0,381364112557814
0,379733228805963
0,372619009467211
0,371680440876838
0,365674388996429
0,370446074288781
0,3674215303537
0,36685698396082
0,371876619045087
0,379009079615977
0,36712765170598
0,380188139492156
0,373967409595262
0,380238889744391
0,371269908897846
0,377406872958588
0,371812461743081
0,365177676887043
0,357410423996588
0,378530812339247
0,35610847145325
0,364928401198007
0,356772846517085
0,360069197109798
0,349656482252589
0,371122325408151
0,356443090355161
0,363711694605685
0,363175713085521
0,362411544428948
0,356823472999152
0,357415264766091
0,356306220787141
0,364601892895743
0,367170472379647
0,356456319217646
0,364793632147062
0,358956234773389
0,37644454645455
0,366351889930733
0,364896448848853
0,364333419799634
0,367850082284585
0,36028395302936
0,360489881855047
0,370805078995709
0,375851382452435
0,374100708282659
0,361402196826033
0,363920856826492
0,36333109673299
0,359818333857581
0,376804265914757
0,366927913646243
0,364890475273869
0,359249568042623
0,363770360664665
0,366032547538044
0,368314656925926
0,363488427874566
0,36107526242475
0,37609422015721
0,365604142455193
0,373771221149336
0,367318903275485
0,36164161614083
0,373736632532956
0,37467135872264
0,380566163035361
0,387446633644868
0,379470088408567
0,387941562890869
0,380806796685215
0,396774932595983
0,382381284175476
0,39835324138299
0,382555541161663
0,406338978657336
0,383842984945777
0,394331490219165
0,399436539468807
0,417823034661934
0,391872873421293
0,402196807979765
0,404733069497544
0,417799168120421
0,402179108401142
0,426612218547099
0,426793471339907
0,419501286985439
0,418853665644838
0,432007079583976
0,441978454462016
0,441432224801493
0,456479868759044
0,437998821010699
0,460719223852685
0,455935130223875
0,484683063752169
0,4708796376709
0,504893720378987
0,492045863426032
0,518614415758352
0,52840240443453
0,52310851230597
0,529423674326464
0,556872824270142
0,570582359064225
0,563153651026772
0,578098255271695
0,58513670614328
0,56183767911541
0,553186618235304
0,578764169692141
0,593394622331126
0,593352585423046
0,582364953430674
0,591265015516592
0,563052541169564
0,584004947953067
0,55503216684785
0,603542544372751
0,56780126538467
0,588683376899264
0,575296558159251
0,61149900865946
0,578145542684068
0,603734278419183
0,569871143806596
0,609036418700301
0,549704945821017
0,582831725970901
0,563423130806392
0,603741188557678
0,553457919413184
0,63543789643531
0,568260148318028
0,592234980102378
0,535735139611754
0,578757103040093
0,590265166073078
0,575737886356046
0,584941113203458
0,551597389405829
0,587847265702865
0,590350529790505
0,569164806364804
0,534701890996744
0,570058654764437
0,608403833408383
0,558236610294131
0,563585036365332
0,577596899101826
0,595478904012678
0,590674685926383
0,579905893471921
0,600406394732869
0,586897766809375
0,572207090206463
0,583090186221718
0,621788401405575
0,609262867440361
0,598272061660199
0,626417031900069
0,620436776232929
0,538140160149178
0,561159050236221
0,598691140788067
0,592726947442036
0,623308699349419
0,57860480030256
0,589910928705166
0,610103125159798
0,583980361033556
0,584343206947834
0,676270666973172
0,648248222120235
0,647688906799103
0,610461194251572
0,720034754180913
0,516805843731735
0,651611569222161
0,644132819863982
0,696481600496217
0,629936681506427
0,768245012627443
0,602075397816433
0,67139402333556
0,568664608712234
0,769315342544213
0,637152262930553
0,805686625114366
0,732769586917743
0,667168330691179
0,641109665721494
1,00173792222886
0,759009171605828
0,724247251500688
0,685140790588733
0,648727359476825
0,826027805774209
0,65792798122033
0,689861283787854
0,660517977538115
0,791297035318461
0,884769534157099
0,663576907196959
0,826453132258955
0,84761159543454
0,764253697291038
0,665686279541067
0,700206653893745
0,613919104064303
0,823332933533917
0,666692595274849
0,807356438427388
0,64945526574332
0,885549609039028
0,624798873545523
0,700375701958472
0,684461246138232
0,838189986470405
0,919672183705988
0,743888221914686
1,49282258612394
0,845922274725341
0,777352121618087
1,02298347324789
0,804397249752195
1,22972693198095
0,685090724562895
0,821801809370421
0,866501569080931
5
0,604908665889642
1,36660971541404
0,955926501012504
1,03431433734412
0,920539955022255
0,854303545527492
0,601146930467085
0,891101954236208
0,795864530487695
5
0,957742517345723
1,79397960143043
5
0,598411259839652
0,601274538941294
5
0,926645269778983
5
5
2,06251651802352
1,77944236136792
0,862046932162296
