3596
4000,36533379555
650,420452594757
1
2
2
0,0838536222150635
0,0651792131513832
0,0782280183019167
0,0628504204889874
0,0822222420368783
0,0671250835004273
0,0776106731652702
0,0684145441125966
0,0766450891747155
0,066382824287082
0,0876447060758074
0,0674950986295832
0,0749607023451073
0,059260500570224
0,0750915802858298
0,0620314312906143
0,0756264345131747
0,0568264153303699
0,0783447654524185
0,0599460058951523
0,0798495131699331
0,0648056507067787
0,0706047475943089
0,0558909445024508
0,0784024729438246
0,0632312111106873
0,0709148055607954
0,0533615448008257
0,0798217321806087
0,0699774080802752
0,080435075516361
0,0620220588080265
0,0718911836378077
0,063792534471982
0,0785909324021142
0,0658091477208741
0,071312088138885
0,0586756559985589
0,0784108180443594
0,0575903892786041
0,083716314424771
0,0691320045859362
0,0841609270191137
0,060175450083334
0,0890866188343786
0,0708452811688748
0,0828854494089814
0,0646867110403021
0,075229635723979
0,0740576036533724
0,0813499108720854
0,0604261271579035
0,0817360369901896
0,0690590850439715
0,0798072484441193
0,0796182349024436
0,0774552701683264
0,0600108593750933
0,0783662162465388
0,0574576154257163
0,0847391531746096
0,0808944346324299
0,077315659838918
0,0727582557118293
0,0691375023089814
0,0622885704524345
0,0673737694217325
0,0669230849068052
0,0737508317135696
0,0658522605667767
0,0715580264295039
0,0786604480849218
0,0941033662817509
0,0605836685716252
0,0897913577511141
0,0565770454480694
0,0771067952834882
0,0562910197975879
0,0695115546277686
0,0639358302466447
0,0776067040458837
0,0611209918873293
0,0752069191238344
0,0599699136219402
0,0775503486972384
0,0767949367854028
0,0654324466194961
0,0584970685136444
0,105320245780746
0,0683716645642336
0,0747050796098166
0,0598380807254342
0,0764740713822379
0,0579028014460563
0,0766149327094904
0,0644733456899532
0,0736064854906788
0,0610623696094981
0,0697789284354757
0,0602194009495126
0,0893317807011796
0,0402711877642799
0,1321630261636
0,0560758429089608
0,127254374070915
0,0947598859256465
0,055393743611368
0,107000087953746
0,0834318862460171
0,0713253889741065
0,0705140363715211
0,06280998486074
0,0721988970843398
0,06775499925903
0,0609241401148052
0,0662535172503805
0,117089278615747
0,0714405104737103
0,0734054486404972
0,0600982749947553
0,0572806020086964
0,0577502854784666
0,132025714636784
0,0527848658151315
0,0889167540568291
0,065766614076498
0,0622955566723854
0,0807451287734843
0,110758399319547
0,0610188932812986
0,0853124210896816
0,052642112504238
0,0745385469063375
0,0403715162792295
0,112155760920593
0,070612724498187
0,0769374079527924
0,0439479019226883
0,0828156025661095
0,118046266988715
0,0980797255530237
0,0663011011190088
0,0677689511287912
0,0468564541460049
0,115956252487962
0,0713933083220583
0,0564352781805481
0,0770244805301839
0,0923201269682804
0,0515591909554544
0,0664787749055693
0,047636122411963
0,0946407352856157
0,0732783959216148
0,0384087952000545
0,0418139551926393
0,175907901459579
0,0351445902477753
0,162774838238798
0,0554119429022241
0,085783154007975
0,0520860097276061
0,0686527304245679
0,0587951949335483
0,0715867963880644
0,05695929190659
0,0651989887794928
0,0925595578238982
0,0710623706892071
0,0532829672572809
0,105313663151227
0,0846029498750862
0,0502904682392251
0,126808209011619
0,106977392613878
0,0338900635482176
0,108433178544703
0,0759337666553434
0,0656506224930078
0,0583891423014126
0,117417676498728
0,0569682946591589
0,0711791964451976
0,04781785622661
0,0782030957257944
0,0718010082363657
0,0814116621732821
0,0543543048915713
0,0816055234909636
0,0363657205706702
0,094127573638685
0,0927104689690517
0,12360482364689
0,063002670068345
0,0835996445638258
0,0223412515869535
0,0991526941487599
0,103485859882792
0,0715655472220971
0,060280729229821
0,0665498364685707
0,0550785023198595
0,0666782911330953
0,0464951742248796
0,0725047896651533
0,0265349794402452
0,120509127482711
0,0811736125902418
0,070182190993597
0,050373283305563
0,0725444395038931
0,0504852316734955
0,117632202494855
0,108416041539338
0,0631219086156705
0,0686299680303715
0,0605978751309215
0,0717732260975052
0,0910099216550954
0,0608476883339507
0,075490410233633
0,0537797519830917
0,0627520151204936
0,054075762833437
0,0641616600833979
0,05917502858387
0,0683404021282633
0,053847036196835
0,0688093701220348
0,0639861579381484
0,0830596504541709
0,065737171836183
0,0633309975416884
0,0586258814833499
0,0655260726474385
0,0600447381552575
0,107154563786162
0,055868794514786
0,0784536219910611
0,0533278789719961
0,0714328966767362
0,054820253198672
0,0722461279721425
0,0549759294734492
0,0748895602616654
0,0344681437203452
0,113789426236345
0,0699283467440879
0,0763790886485701
0,0499300594989653
0,0790188636687122
0,0844461093109837
0,0608295464170033
0,0552294424338351
0,0648691997454089
0,0558503237234862
0,0567104991306478
0,0982275441578649
0,0818410406023345
0,0568555442960794
0,0803711380007112
0,0762014428337485
0,059398986732787
0,0672397772058138
0,038154051661704
0,139570119468089
0,101074805449549
0,0181794223020583
0,143623156872405
0,0950997370644464
0,0804725188372682
0,0694344583215715
0,0191723770690873
0,176882818737266
0,149430286702218
0,0663420695254454
0,0790216100319597
0,0883493892951952
0,075759447754246
0,0632438225173633
0,0846016913482348
0,055583203236834
0,107564278172171
0,0904899071867877
0,155501812694306
0,0480208377348519
0,089522076493125
0,111362476420121
0,0657296779150234
0,0713682840917123
0,0704155144510293
0,0655666774239963
0,085456003637665
0,0918312158514635
0,0865603440595962
0,085734406019471
0,0671820105291359
0,101357108158119
0,082505736074416
0,0673118029298724
0,0816477039905399
0,0921169299783978
0,0699640709742223
0,0717772298276148
0,0721881299173623
0,0847468318563187
0,0787790334053591
0,0436446422633989
0,131884653383413
0,0963309135944641
0,0717180874098657
0,109211553781898
0,0817491634204197
0,0701450411545126
0,0715592580450239
0,0716493625304533
0,0661642310419979
0,0664113727093912
0,0558262078487578
0,0944272344481798
0,0961150763507209
0,0696977895534723
0,0802553445586594
0,060432129120379
0,0786935339981629
0,0698174527561791
0,0860851501496305
0,0736132401472454
0,0801360695124496
0,0653136915231947
0,0943517608743263
0,12112122358672
0,0668082049270977
0,0876110458349444
0,133349765049088
0,0715160625165437
0,0884904133592396
0,0755331695750115
0,0905502837189801
0,0737012106894467
0,0862109562614308
0,0761118957828441
0,0896561903595216
0,0929068430224711
0,09917520779012
0,078520182472807
0,0935739856401907
0,112643500025065
0,176581081936576
0,109409635505563
0,101798659144828
0,0640610595225165
0,117137546821211
0,148063512799964
0,112271656084849
0,1378835965258
0,0969526063743656
0,104600537719934
0,0998559821908342
0,0997583777282284
0,100196235044106
0,102904129861715
0,110829415287753
0,105030021580374
0,113719675095349
0,112562694276078
0,107951345540504
0,100758673252371
0,166595683010263
0,129070686559757
0,11976873497515
0,12329667471815
0,111045900882052
0,136202170879413
0,169283513676324
0,156721468092406
0,179451514103313
0,131849726417288
0,20579639690246
0,134047793293737
0,151343946179093
0,125146265381441
0,146406652799966
0,141382342417732
0,152203223586217
0,135659573684179
0,151868553058927
0,138538535949493
0,165677976753158
0,142009614060723
0,162401687681575
0,147298569594174
0,189535215135755
0,164739939990174
0,177622223730203
0,16258800688922
0,179119487101332
0,213171981354605
0,233629763721781
0,198495330568293
0,186156058933077
0,190532444945732
0,177653940708846
0,188865693676196
0,187752403041158
0,1931017655991
0,197370384946323
0,219320582405973
0,237611904401011
0,219783740483848
0,234998834984435
0,20098639026499
0,232317028268396
0,222947417313925
0,221565253965895
0,235188221456726
0,24389579016416
0,206936432663571
0,257138762679815
0,26343543484008
0,232361932968895
0,263407180019069
0,24386714941255
0,24258566774241
0,251570738535721
0,246680457338237
0,255485761115405
0,25696589729725
0,269184559752568
0,263110347108504
0,269697485506163
0,261066712963177
0,273545010118759
0,275511145530635
0,293172446562178
0,273229080160255
0,307264454246265
0,2780600139392
0,293303939268215
0,2778191893752
0,324842244477629
0,319674225511399
0,311419543589685
0,342301843600583
0,313388147196255
0,303003351669351
0,322977543937358
0,311454905812443
0,325217809865616
0,324106869265826
0,341379795831682
0,335222909184994
0,346158156175957
0,337386734630774
0,347021771008028
0,325195749986946
0,362671643397175
0,347484169752988
0,363744179155386
0,349023622431219
0,370362810352837
0,372737455269131
0,412096817689739
0,421917787657335
0,423490931251463
0,425013121303987
0,407362767727595
0,395893237404873
0,410397142852584
0,403225929500494
0,412563444609576
0,429820736281191
0,4347094071418
0,405291028694741
0,433813234316795
0,441484201211539
0,42767397485166
0,432551269868051
0,455675119565974
0,435602806877627
0,466919014706444
0,466498487652477
0,482851189262287
0,47273601116457
0,460019480469601
0,453875136952387
0,472629975386638
0,475669603712118
0,500420072273038
0,487307663891002
0,498475037480319
0,496048005847166
0,517356311203085
0,502023642513711
0,51287102264849
0,505749717564175
0,518046240783187
0,535823051207273
0,549605253741653
0,510886473904881
0,543045474888188
0,537292889725811
0,560907450869003
0,541890626465009
0,579287300535197
0,573386014897185
0,589204740276788
0,574268933152265
0,584780666869789
0,594644856898133
0,589371968874682
0,592965345732144
0,595484944393089
0,594828290510339
0,624493733857837
0,605312775605587
0,613328205937606
0,596311704186923
0,631674002071954
0,631597491961783
0,651489063519024
0,624484208915093
0,648114816636943
0,646156258020517
0,683863737046112
0,666258981389908
0,692271677809135
0,658509761151268
0,651606254282206
0,642446357864767
0,686420038902598
0,681089238323831
0,690801275236849
0,689071250481305
0,715738939276494
0,703537731769885
0,702435141231971
0,660520689181095
0,707332154513555
0,719028930745536
0,711954043454554
0,72659118394957
0,737550563515203
0,742976410152358
0,776034048527882
0,75260867949636
0,774792189821481
0,734943386142333
0,769327536147589
0,737091119734561
0,755960075507808
0,778751921032315
0,813812952401294
0,788019990794817
0,803274856669062
0,812175057828756
0,803983245872782
0,789659971670516
0,829678059723593
0,83105954514117
0,843374894201038
0,808057274454343
0,856721968639534
0,84534028752809
0,825977060577827
0,831817005873885
0,838486005858862
0,848970940427451
0,845048636165073
0,859729294210147
0,892719000013589
0,849091975573774
0,873498899662742
0,883211764803899
0,906773317704451
0,888533985330391
0,948748473079763
0,899130911881461
0,916157004602504
0,940432454020088
0,947390980879136
0,903072481887964
0,932397484214052
0,934402529759512
0,955119621226121
0,933484306945057
0,943788095875553
0,940212191033489
0,920987893826685
0,920239979104073
0,98537003422673
0,972603490407457
1,00785287858204
0,971607835535831
0,975379486259732
0,996884715064225
1,00383420985598
0,954186516604275
1,02711433570841
1,01772894312107
1,01083580246824
0,975670914499792
0,991126439452443
0,975564255656839
0,991039651960783
0,992911325635342
1,03473911680424
1,04402480538023
1,0685206324137
1,0303571723764
1,04927884231319
1,11199037084901
1,10214472161429
1,05389237738401
1,08917324162419
1,06269874710146
1,11367449504068
1,04909508029769
1,07998804757317
1,06242988048157
1,09886616471787
1,12091512872025
1,161154599966
1,18265820403097
1,06728560793624
1,04720223387818
1,16252669331684
1,1885918487689
1,13267067712051
1,0738935030858
1,168698121705
1,14900816371941
1,09833971142955
1,0880844391702
1,19607749690155
1,21674041061603
1,19590176518973
1,18804181145327
1,18901304173704
1,10313274837267
1,12180826787362
1,15234498967464
1,15431234203521
1,1577601070231
1,1789900293127
1,19149864149547
1,20471304003441
1,18429318962156
1,22647267707303
1,20030478633697
1,17354337871344
1,14654295257842
1,20631724353722
1,25026043532263
1,32222611170719
1,24881453094124
1,28973922136444
1,26964559616881
1,24429576949175
1,29962806516592
1,23323575245806
1,27171864556098
1,28245984670561
1,16144922162003
1,20677111308345
1,20600185152639
1,28217909689085
1,30795892979193
1,30030320783116
1,22485286896338
1,20216194838232
1,21473340721397
1,27714018742414
1,27748606747832
1,208733655637
1,24815567038444
1,28334115568183
1,23542147583276
1,33439650224061
1,29553938304645
1,27106876721811
1,19266347738125
1,25692648553951
1,27659687123399
1,22987838246556
1,35663638963523
1,26867342006582
1,2626048173592
1,38137889944731
1,3377234947861
1,2931429426292
1,29629868533777
1,31601367458314
1,30366539183979
1,28500569157784
1,29423496200253
1,35897034121251
1,36050046399362
1,37530163635409
1,31052192192175
1,34649637816177
1,34996426419879
1,30099708382681
1,25392503347581
1,32947577135118
1,32618642012839
1,27790612208701
1,35737427138936
1,37789425858737
1,41067929163791
1,38127694393432
1,28057983860102
1,3245857157588
1,36697620856789
1,43273852420251
1,42668612863852
1,36429498650522
1,30589354479549
1,34320040570214
1,33107342018804
1,33327509808948
1,34552440170499
1,3251077412617
1,33390032695515
1,35203820018702
1,39534617400278
1,36922729885776
1,38875933251766
1,35931443471605
1,29238261845699
1,33470838831947
1,27718306557748
1,37478909026948
1,39894685545917
1,34485516885801
1,36353786292041
1,27326617683194
1,39471531949739
1,41113302126409
1,33908581371144
1,32945940822649
1,33811342909148
1,33411277862416
1,33287163806281
1,36396138043206
1,2723186742209
1,29603198831092
1,37307881350493
1,39322369388067
1,37709358393958
1,36358529468826
1,36127333733014
1,3408600431241
1,37900576133266
1,41740298587461
1,40816828553754
1,33290404260762
1,36684935864586
1,289585872461
1,27408338794774
1,34874362182588
1,42011666399103
1,37005689900984
1,35154635732074
1,38266551753863
1,32294613351817
1,30307072916561
1,4132803593228
1,38565285043792
1,33595980441798
1,41010588189536
1,32536123045003
1,37439965329376
1,3814321416145
1,30161760738591
1,35997115181421
1,30394162094719
1,27326565342768
1,32129196905845
1,34690220999054
1,34598722727374
1,31603122071803
1,34011075384714
1,35580590932349
1,31722341395517
1,36304879261154
1,34192774223617
1,36365995263849
1,35932819338735
1,35434449067687
1,34264032075268
1,2918196757843
1,26452039397977
1,33512209956589
1,26290311287312
1,26825434071421
1,33084558980367
1,34986036804792
1,33912478129161
1,27509928164359
1,27509048549494
1,39218825029279
1,34529574967727
1,26632057695916
1,28922700879095
1,31791241906513
1,2773075486343
1,27831046007036
1,26397764836798
1,29703892572971
1,26990377433778
1,32346472004103
1,34479771886109
1,28235251897365
1,27072583845408
1,25302357240867
1,18045645359092
1,2395604357537
1,23870880165204
1,24704742892862
1,25775959223455
1,2261765669879
1,24264415149009
1,25015829544185
1,2599016019828
1,28405783711851
1,27800178891052
1,22468190315405
1,2474468765317
1,24060079140977
1,23619616045288
1,26519932151898
1,20975858897023
1,23556071940158
1,20627307515575
1,21213014241688
1,203259721798
1,20883472949748
1,19558687938457
1,21605875117107
1,21717336128043
1,19121120360264
1,18629729205745
1,19905651849132
1,19837699110098
1,20575870725019
1,19639935132484
1,16699760134874
1,12343990342693
1,16988401700019
1,14098084903864
1,14652896854581
1,12044045543729
1,15899155554258
1,15901068184467
1,15327760280464
1,16290524028894
1,16434616888453
1,14769265917866
1,11491946473363
1,1451236522222
1,14649948813335
1,10182711397454
1,13671835290365
1,10815619516198
1,08082534133578
1,08664852633881
1,11477229879133
1,11430922248132
1,11287037835192
1,08645956103601
1,08680043662272
1,07821146262161
1,08662978641346
1,08744825726651
1,08736494998566
1,08500439776455
1,06680756752564
1,04959047092622
1,04991601487684
1,01511213253921
1,06217019676606
1,03993081701891
1,00321955346346
1,02091699090651
1,05288542094974
1,0022730412152
1,01793934892985
1,00501821856054
1,00414517321329
1,01771789984163
1,00092331565744
0,979143452272044
0,983850996800325
0,964000853316953
0,984923890616221
0,995390526534595
0,976905809112159
0,961606334689967
0,974152168933967
0,926605806973367
0,957072793480901
0,950451425423935
0,941677256712355
0,938229607565045
0,930824665486501
0,902992768969544
0,909734595824827
0,921982656727292
0,91646106081254
0,881319448357049
0,902794338150921
0,900588138435432
0,892201425458697
0,884117020152575
0,884553157103896
0,882475175662533
0,893006084971745
0,86846801593684
0,858235321715804
0,864009129125657
0,862080441418098
0,857290603527622
0,857008872841726
0,86496361792973
0,844864469625396
0,833050856437438
0,854750492023705
0,825959496673571
0,82627946012061
0,826776934221967
0,809404024910745
0,808854751201381
0,797220750717518
0,796170461365399
0,803726838107074
0,781580328416619
0,80100825175764
0,793938957245823
0,787299645409933
0,789244277934364
0,775668936195236
0,780036883513336
0,770900226986846
0,770162488622279
0,778022227804957
0,754447604381774
0,758340558450745
0,736645791348434
0,739522872052657
0,739138205137435
0,747215895153387
0,736208601633651
0,734444905362757
0,728236379321403
0,734251545679796
0,715862128568795
0,727961168095788
0,72491347939579
0,721562980028185
0,708304267574874
0,718710571204483
0,695927386440497
0,684469237830929
0,691025696764609
0,687731886615611
0,686844854404304
0,686777769166354
0,671760660247233
0,670158129389341
0,658139847761792
0,668775664988315
0,66809525741749
0,656236576139544
0,650452307897393
0,658711149759647
0,658412870646286
0,649110056389503
0,636840358822864
0,653954563230675
0,638132934411388
0,641733455361194
0,631180250772629
0,644531353550425
0,631654298765847
0,612361086594236
0,610285143996551
0,616728380762272
0,606348484485578
0,61002875096419
0,608281517110725
0,610822545174153
0,590413466731073
0,58859575924545
0,591735915892537
0,59786142717963
0,584116545273268
0,587015754829335
0,570924697739643
0,57195070053359
0,571531459027543
0,573704517703877
0,57392796740596
0,575836983918035
0,563093864062929
0,562019595111676
0,559455287043092
0,566204872098662
0,552233002290395
0,564114982745313
0,554595148026967
0,550103306225259
0,535364098834839
0,530127808246543
0,535319689478226
0,533511130216852
0,523643584187878
0,535678259600285
0,526666810643884
0,51704720725235
0,520755493544366
0,519226401120133
0,511339240142719
0,512352677617254
0,508426133532978
0,508619444506186
0,502045826144151
0,501423084809595
0,498068452667294
0,493905239230633
0,493729321463234
0,505105540906577
0,490798342160124
0,489943157465405
0,481253979783859
0,481029524242541
0,48752785546877
0,484403411984119
0,480144977055907
0,476094582355531
0,47202580931993
0,463151938781846
0,460392128127374
0,469171363491743
0,466047159036362
0,46079934750771
0,455350075395547
0,462439942202029
0,447204643583254
0,446004955206612
0,44958542037376
0,45704322678549
0,447729515327329
0,4497221081369
0,449856686276788
0,446649601422929
0,435794970063403
0,439417498465782
0,434063756763625
0,439664840375828
0,438359894988681
0,437626670134806
0,430332274586421
0,433566583135119
0,433888329468708
0,430795591979975
0,429595563190772
0,426923555730806
0,423110533308102
0,425589931186444
0,419798283928163
0,426467317557131
0,422321088909069
0,427343172857176
0,418578818794984
0,416492057661253
0,417050289562683
0,413854181392522
0,414076707039133
0,422812850146984
0,417773847999471
0,423778047134818
0,419405214084819
0,428400520824085
0,418678856475597
0,427094854387052
0,419816940574507
0,422258716823351
0,426147135999714
0,423466000273512
0,426940808586247
0,428249438051587
0,424478464685133
0,429602030348745
0,425263149980504
0,43192779111157
0,43283501974357
0,434254465199551
0,439132564608771
0,440387148277915
0,441242816319019
0,448243430396407
0,435325213063175
0,44555845422554
0,439948483348767
0,447603441394894
0,445132254114758
0,446009475448647
0,4437420455748
0,450988070238525
0,456848431717564
0,462286390152834
0,460053734225815
0,461496766411681
0,45494535209682
0,471637611282928
0,466252745148923
0,47018521874828
0,472879534686259
0,477156757167119
0,475435659534386
0,487453090121275
0,490315574012559
0,494271979975849
0,491197544054063
0,498068969376494
0,498733238357827
0,504869813641793
0,503093858992822
0,510205986865899
0,512276720075408
0,526738628157606
0,516848162296772
0,527434372951252
0,541563179793702
0,536057428391847
0,528967984915429
0,543158543490434
0,550917216915783
0,554201552035584
0,558351083908778
0,566538671145874
0,553266191713994
0,56125462313006
0,566912398823961
0,573374404395584
0,558441383913575
0,568495314010158
0,570444657930654
0,580916175099866
0,568005872795672
0,567049974067448
0,577639742776141
0,580380964021069
0,574658465454281
0,581459644596251
0,568384704303805
0,581494217480375
0,564422976227467
0,562051742813608
0,565299483421687
0,567573527379837
0,555345095394699
0,564562526354753
0,564695166601787
0,566693902049271
0,558344749588955
0,564676790263176
0,564663343239256
0,562188078986492
0,557254263353866
0,560344485831676
0,556496600204064
0,557157608514563
0,547859816465007
0,556303732883415
0,551614604414561
0,562695487123692
0,558793213427246
0,564882020301121
0,548677121049164
0,546878785920539
0,553721472773848
0,55438087402058
0,542029812608175
0,550669151532414
0,555386137912082
0,552306618743418
0,543885315110956
0,545487206269127
0,548497799820085
0,553606690736547
0,541050439473664
0,551375973369502
0,545732506189813
0,554849141274033
0,551962974157493
0,554386129918213
0,543416201580737
0,536153187205675
0,539791425423651
0,548416884378203
0,533518289853982
0,536209875145136
0,531168312263157
0,534266940895348
0,525299847254744
0,531767323316859
0,522546443542889
0,528822201271142
0,51515716999706
0,527050122714791
0,518119015624253
0,519685858144033
0,504723149769634
0,510000569992667
0,506037519647473
0,498779161863389
0,493510868094122
0,495465686586433
0,493441409935422
0,491063306666202
0,477721564859197
0,482617518152864
0,479726926444016
0,475359060096714
0,462926758145767
0,469523025796888
0,458394889774592
0,459103947157993
0,447807455236913
0,456307658194082
0,446163066799609
0,452117098434303
0,434466594811151
0,446530522810535
0,435934384273087
0,436987636681788
0,430044722270249
0,436068290264592
0,427414150533308
0,4288026961576
0,41902978730574
0,430506106475515
0,420319833817154
0,415476650218361
0,4077200986587
0,412923278384898
0,410454011997785
0,416051752144612
0,402295956762696
0,40849304826047
0,3990609591243
0,405289428550395
0,403129861988624
0,395267678410899
0,391935061964305
0,401218098532624
0,388351169608942
0,390425597982827
0,384537134068142
0,390540307692995
0,378128827663107
0,388385098294067
0,384037697008311
0,383789667656614
0,377899439934306
0,377397541317607
0,37642515679649
0,374723749517578
0,368692418663718
0,371975248898853
0,365763182085701
0,365961789202547
0,36178224965661
0,364713881631508
0,362999003707334
0,366811965924433
0,361422168779904
0,361654241120247
0,359776819634629
0,35749522119568
0,353446200713394
0,353519164674271
0,355585676933402
0,349186767049913
0,347434378812678
0,353242209602925
0,346605136193712
0,34779377987322
0,350094366169696
0,342859035949035
0,342721657507133
0,341029831931335
0,3337184985177
0,341441914805092
0,342270333834549
0,339314590033058
0,33690010953684
0,33657846672076
0,326872575998925
0,33696654761026
0,332484727732705
0,331569866628289
0,326454732501389
0,332217274723541
0,329731723396065
0,332026934779881
0,329577115459592
0,329040228660164
0,326614664278327
0,333278671103343
0,327593809877457
0,32990013611892
0,323035923309942
0,323845959184009
0,324518796589144
0,323589242597829
0,321047077262133
0,323290975020247
0,318659104071285
0,318516851902826
0,31917087000255
0,31857608832168
0,316286983393546
0,31511508996119
0,314786541889056
0,315894022749838
0,312198305384992
0,314711518361551
0,306701648848674
0,314674117378191
0,310456132881524
0,312108507748903
0,303592251840451
0,309969924300044
0,310109828032026
0,309413052555184
0,305858537995886
0,307726879728704
0,305325400877617
0,308939975746951
0,300706871958162
0,306102007716015
0,299003075692262
0,30389769328736
0,304023977683631
0,297103951352486
0,293946984005013
0,300389077334506
0,298809886959689
0,302561476782424
0,302625501528678
0,300372129587849
0,298842347119557
0,298943706113376
0,292682293544369
0,298223912501465
0,297568486209162
0,297420292164197
0,288804855218321
0,293155643387088
0,293923262513256
0,297846763342823
0,296016968726791
0,295293755845018
0,292207197417533
0,300487639158864
0,289715261135138
0,291717842728165
0,286778553801389
0,293955322540769
0,285119446489342
0,287066999604339
0,288351017733384
0,290879834553949
0,284941814626256
0,290422591090713
0,290714392835902
0,287657125226633
0,282111188099885
0,285193501991705
0,284078728269034
0,28576133892505
0,282596754657205
0,286353996373998
0,282050196735029
0,281199343088943
0,276246678027593
0,283979605375962
0,282269244940575
0,287031596376738
0,276068172739764
0,281043369553086
0,274060353156132
0,276370516468055
0,275173501081394
0,278454138714809
0,272387190554923
0,279189438926946
0,273778300232633
0,272527382568326
0,270069639413535
0,274581006981722
0,265361274837093
0,268870558842347
0,269664500067019
0,267542506054767
0,263642770122028
0,269429152504342
0,263836596800695
0,269650391372353
0,262793411184999
0,264000304287945
0,259763918267901
0,262265766268631
0,262276358755384
0,267356005684151
0,256235592088917
0,260246391275478
0,257145227973413
0,261022290365526
0,259511254494746
0,259160365540334
0,256750066878922
0,257661184146022
0,253957702204716
0,259845681711716
0,252171728998366
0,253480125598324
0,246917703868548
0,252458245385738
0,247454846016307
0,249921702446459
0,243742637434681
0,2489588378161
0,24662615453993
0,250192266522838
0,244718815277615
0,248904646879218
0,238586454777521
0,245818275321771
0,240264329107794
0,240963385146037
0,23662006530399
0,244073423324896
0,237771270411756
0,239361699014798
0,23365504934173
0,239592000419528
0,232739929702636
0,23523042488112
0,230165599879693
0,237931956560254
0,229591453281352
0,23083965555515
0,226081890358028
0,231686935430167
0,226526004733506
0,230440892181717
0,225183248186139
0,226533667862781
0,220823906074347
0,229307832257794
0,218021718298532
0,219755452586141
0,216438584753898
0,218432182403181
0,214862987018302
0,219505626860263
0,211833925344784
0,215500152252741
0,213124615932503
0,215890923637235
0,207203805568479
0,211375319167814
0,20776610404449
0,212220380226069
0,207397901893481
0,210377138354274
0,202561162870755
0,206116119843399
0,20683567910778
0,207943873486926
0,203587993958299
0,20275920077659
0,20407738297785
0,2052787885062
0,201205855968499
0,2036901483594
0,196729751558756
0,203460379104484
0,201108318500957
0,201704866524169
0,19427392139193
0,200593421844663
0,197826960114471
0,197486830569805
0,194472563081338
0,196115345821002
0,19005368282131
0,198635032674238
0,192964704456724
0,198501572808357
0,191444049908304
0,194352104639491
0,18748782148223
0,192427886976238
0,188873649607177
0,190742585612709
0,18683477320328
0,189324257088856
0,184193690571216
0,187608156539668
0,1835855382229
0,188998186177672
0,183914267675836
0,185301696710777
0,179225033563371
0,185563244318231
0,183035891817079
0,184932391638476
0,181455683468317
0,182257348388731
0,178416072637776
0,18191643333949
0,17803091310206
0,181180829548989
0,17903132090752
0,179259330020297
0,177922987593941
0,179268246993423
0,173212604289199
0,177619155316786
0,173538658996628
0,178261168477684
0,174706879699729
0,17579614525431
0,173255497555549
0,174816970130244
0,173859719111056
0,179114544086237
0,170448224945284
0,173407242416064
0,173491994756289
0,176084124458282
0,168785787601756
0,173818127635854
0,170680781309559
0,173487190713065
0,168282959818979
0,172692718011835
0,16670086392978
0,172742322746197
0,168771388245222
0,170657914294147
0,165697975210058
0,171116192716702
0,165614847554023
0,17117267866036
0,166427089961617
0,16756615654047
0,163518476019662
0,169890120940185
0,165033183432254
0,167408764406072
0,165325503218208
0,168138648149648
0,162796056061356
0,163562841924573
0,160006683562102
0,16428275064954
0,159976117005212
0,162992049263515
0,159685701437402
0,165973243364432
0,157612313792559
0,162741779479139
0,159417767001195
0,159440495290054
0,156757401387641
0,157806872000699
0,153227451556826
0,159199952087
0,153939107656297
0,158268767461399
0,155171512967129
0,156722635281367
0,148627924619823
0,152960087953308
0,151632010247997
0,15551747097835
0,152732438134672
0,154045269836807
0,151884734590225
0,153102632641212
0,15025430682369
0,148968966708916
0,149745821151157
0,1525501974511
0,150913896522602
0,153462000684302
0,14893587823797
0,15037153124058
0,145361820582613
0,148870782012347
0,147070195720151
0,151705521591748
0,146590752730071
0,149503082908374
0,147130025960987
0,151075806736201
0,147723683102304
0,149694177780803
0,143623629989481
0,146817709084997
0,146647305108613
0,146157273087943
0,140267615984653
0,146981006652876
0,139853765286756
0,146680119306794
0,143143814932198
0,146122698009074
0,140938867171599
0,14267134190124
0,14278975524706
0,141186088200086
0,136926600977696
0,142623456657935
0,1376470638261
0,142389728432021
0,136417629912244
0,136834889110753
0,13853542343057
0,136283920472205
0,1315944509958
0,135001233441151
0,132760108721103
0,135439378726508
0,131261511487291
0,135549639252094
0,129366513548996
0,132824434147775
0,129468474859425
0,131613616502369
0,128275362246082
0,130869799389464
0,126070662711289
0,128949867241935
0,12452417615749
0,126077279879532
0,123863984407412
0,128589167210106
0,125499690705059
0,12705851978598
0,122752979734396
0,126860437287253
0,120558759825537
0,125088329769578
0,120235424792473
0,124769494148191
0,118918658516999
0,125481080355208
0,117653106154964
0,122225282494526
0,115752592433546
0,122035961587831
0,118621599539869
0,121334908795174
0,114675828057931
0,119262020965521
0,116378264152953
0,119538405596095
0,114444187727653
0,11705768855239
0,111420883128128
0,118958981295522
0,112806224485135
0,11714791311787
0,112470497528797
0,116425357908028
0,111443125698243
0,11475786805431
0,111337880991323
0,113337595781856
0,111796822111466
0,11376111406821
0,108873965995338
0,112125380040056
0,109251152391329
0,109896218068117
0,106514091438583
0,111121039168572
0,106697156999544
0,110292151916614
0,104153677307538
0,107562370778259
0,102646351014631
0,104651389094299
0,100472758709366
0,102325653554562
0,101069989657907
0,104611595403421
0,100163599949528
0,106566456453258
0,0996898279920576
0,102750044344423
0,0970869205912732
0,101810611218394
0,0971992961419586
0,100983196156851
0,0980081393411198
0,101735746884039
0,0981857133379613
0,100705609797144
0,0980519145470351
0,0993507523288974
0,0939497487527186
0,0976249221221352
0,0919687213932082
0,0967033059235776
0,0969151004274112
0,0974870682270328
0,0927173300621393
0,0973362689487373
0,0935950883911751
0,0988892210979277
0,0906669827708224
0,0979853467136893
0,0925133219425257
0,0960879592107771
0,0943586964676333
0,101094347945227
0,0920953591759303
0,0962608001826971
0,0901938493643592
0,100886007992629
0,0932624116767615
0,0970295654793569
0,0904139923106559
0,0972236824300876
0,0940524960033506
0,0988101836350249
0,091976600466848
0,100914262219141
0,0928989026682726
0,0993767707038945
0,0907773826797911
0,0988847034772694
0,0861001535592965
0,0996433070719949
0,091760841961438
0,101098715417435
0,0865642874755291
0,0997288116013878
0,087694002838742
0,0959449437922602
0,0835453349091098
0,0976447391253295
0,0878726684916763
0,0945091590615521
0,087757610175047
0,10159345925695
0,0813391748554028
0,0980936228851927
0,0840762835112027
0,0997561953399092
0,0848663582543808
0,09774994400932
0,0887231898356538
0,0940479244249917
0,0768082073783391
0,097396320046142
0,0815956629135086
0,0955773676371433
0,0737763388909469
0,0990994853293654
0,0748275998248176
0,0952900072444417
0,072859580806422
0,0994407017364463
0,0708399281624816
0,0983016677686364
0,0643665539860351
0,102806403385462
0,0687628447973174
0,104462238393178
0,0663924444903872
0,113619793649983
0,061962605985145
0,116553639641436
0,0604980677353098
0,119727825476029
0,0617146117369774
0,122480901792455
0,0550999911720015
0,11934565255772
0,0561289473574972
0,118282183560674
0,0611798366103836
0,11482281447767
0,0691675822482168
0,103698442834853
0,0774065529409993
0,0929976816454207
0,0854830955064245
0,0816498592772984
0,0961120904829563
0,0739508018247038
0,102904649890395
0,0682478874299578
0,103183230803407
0,0706052507876659
0,0981478584301771
0,077709625362455
0,0886854272344678
0,0800745241536337
0,0831145876021371
0,084528189029552
0,0790027025525243
0,0840897734959786
0,0800162806499189
0,0812475789195416
0,0813271560646156
0,0769877433539949
0,084717908936416
0,0752974438483094
0,082818894729616
0,078915243827842
0,0788984652768005
0,0771692759506198
0,0780380638595961
0,0803788794504476
0,0820418336886448
0,0799897758082289
0,0808045968977223
0,0783491867447718
0,0814283641325661
0,0757524335887707
0,0776986402095345
0,0806686091575964
0,0790528386924187
0,0779499571621612
0,0797338696747047
0,0775778719842257
0,0750010377166364
0,0764124351199689
0,080027146227874
0,0789508161509726
0,0780758994237555
0,0781763184888745
0,0783270846687604
0,0773046880077166
0,0762201992997495
0,0803852075753693
0,0817492327154517
0,0785014239086699
0,078539016081184
0,0798380560840771
0,0781391108792988
0,0808675614295434
0,0795901658100037
0,080403357538452
0,0795190866897278
0,0816120793141801
0,0784119204569022
0,0810415930834706
0,0783513662292859
0,0779943770987422
0,0794075681936059
0,0787967323205197
0,0776278419333343
0,0778267833997096
0,0774543993814103
0,0794132040407959
0,0807076023079428
0,0797837958455498
0,0810068298309824
0,081231034066751
0,0776449326332051
0,0783081628806215
0,0794928385968493
0,0813448434859349
0,0790259391862865
0,0784023854174148
0,0797518226005244
0,079231043212641
0,079355091514183
0,081783038137546
0,0793607817695068
0,0784847235896716
0,0778376119718269
0,0775956666542644
0,0776919441157015
0,0822593778657681
0,0784806220128007
0,0788022191170337
0,0787179434910289
0,0787920668159583
0,0781067925202912
0,0807388507308108
0,0801899333550074
0,0827395804625507
0,0807136896950659
0,0812843319084785
0,0836692654335768
0,0820982866803422
0,0777707613974168
0,0809112317986582
0,0802634756440764
0,0809624945651638
0,0800859153022306
0,0800079173976204
0,0803505843504604
0,0838895501308032
0,0823285816481958
0,0822918945289478
0,0819680279614684
0,0829242741644526
0,0829586287849422
0,0850512496336572
0,0811649182027986
0,0832499770484488
0,0830937459006057
0,0819332925416745
0,0834547409615228
0,0812131937729782
0,083448708157634
0,0881121213317796
0,0847497406287003
0,0825428253498014
0,0845990919922706
0,0868015118806901
0,0839590643989502
0,0857432399640703
0,0843757135108693
0,0845689176031354
0,0825373187769212
0,0844226376142284
0,0843329705096894
0,08674838158936
0,0839150352769079
0,0832421592589725
0,0835479290216452
0,0855670479525254
0,0838636315881246
0,0882753021948984
0,0841169355860392
0,0855206070199655
0,0851438113103794
0,0850933032123363
0,0844747682800742
0,0867490367558694
0,0862196806545807
0,0878394783215713
0,0874818345504778
0,0873444384953022
0,0856675110389618
0,0861083284296897
0,0870507732816561
0,0885427124806652
0,0878476314188894
0,0874534025233328
0,0850231421906131
0,0858477484613828
0,0875200626841793
0,09014351143183
0,0870285519329562
0,0903217957111255
0,0874702101839916
0,0899995477465387
0,0897625715268401
0,0902123782934895
0,0906370028896375
0,0923611099259773
0,0880801984236151
0,0896670253126433
0,0892145064540122
0,0912759258251836
0,0899776537979622
0,0906943569324555
0,0903253637973097
0,0925613937151831
0,0893103882109636
0,0913526758366431
0,0877669642048766
0,09062958163037
0,0905446973979341
0,0908500276340818
0,0881846897747949
0,090204458832687
0,0894200303037257
0,0912580839196055
0,087882514889846
0,0896618048176684
0,0901699275394648
0,0907208569621342
0,0882987902141602
0,0898336000979851
0,0871095875627985
0,0881294423340082
0,0893963605760196
0,0881764984091859
0,0866241065619074
0,0878657907611626
0,0860315901509862
0,0858179926703918
0,0862086970914831
0,0879429686099837
0,085234707780112
0,087578303477986
0,0859485018441728
0,0875369805825988
0,0841947760760201
0,0847571211391462
0,0863623998814747
0,0859115796749373
0,0853800726889801
0,0851436740978858
0,0838858244117266
0,0871878903024758
0,0865899466830377
0,0861023797760848
0,0832575645488964
0,0869301063759198
0,0830141345894356
0,0846727840038458
0,0858770526353546
0,0876864155013561
0,08694140100074
0,0851943583988617
0,0854455216318976
0,0851552641217183
0,0850506559985454
0,087127426881095
0,0841270681970223
0,0849390196523587
0,0803416087768572
0,083365773103711
0,0825041733546636
0,0860268984322105
0,0826724242791661
0,0848311365497577
0,0840377139196877
0,0857434210017374
0,0817989655060117
0,0829881675237579
0,081172372532109
0,0868830863413763
0,0854441180801577
0,0857602667884809
0,0829761889680186
0,0858683837534066
0,0840508397426602
0,083866652021294
0,0836974425194005
0,0846260202916703
0,0813804473754258
0,0814330130020923
0,0840563297175967
0,084745646774133
0,0817755451178115
0,0846362399761264
0,0824167621312837
0,0826824260964945
0,0823610961186765
0,0819459359322292
0,0811540037652517
0,0828225051995597
0,0794306442965329
0,0816654793636112
0,0823963879620768
0,0830234348664382
0,0794589755555954
0,0808128839707927
0,0838218950387265
0,0849641383467333
0,0795232551966822
0,081460223550653
0,0812493059948053
0,0840571078723748
0,0810493233757535
0,0840984526930129
0,0822667667734454
0,082021267295633
0,0784928823962304
0,0796968270269744
0,0788512334249837
0,0824738795402126
0,0788645715435665
0,082614786848972
0,0786981077811059
0,0837045851960977
0,0785845799743375
0,0796262445758417
0,0791336550396392
0,0818167364925776
0,0788117906979953
0,0787682358072093
0,0768122345031652
0,0819092159168966
0,0819776241488578
0,0773615740052962
0,0765266546811764
0,0784164122446734
0,0778091757280574
0,0785927497265408
0,0762732569963994
0,0796976020195105
0,077317659633176
0,0768577136388116
0,0763118139056615
0,0770648522483326
0,0742306409537714
0,0775213661928141
0,0772019908302024
0,077105850598468
0,0741125617737504
0,0765450557840349
0,0715281639995962
0,0767353127751202
0,0729546701116012
0,0747923506292456
0,0724883569807081
0,0710975155755494
0,0744008985277682
0,0721536775472554
0,0792240277785884
0,0721395341217171
0,0710415929052138
0,0718918713561012
0,0686196499852081
0,0724631128852622
0,0693110196925129
0,0705511839057145
0,0696655745458062
0,0709785956809551
0,068412388302878
0,0688409480387684
0,0658757159468702
0,0674008113030885
0,0677500582680589
0,0662888329894861
0,0668678434470148
0,0682485060263601
0,0662319641220344
0,0666881920961934
0,0660452381612549
0,0663917132638613
0,0663842623514412
0,0662978165414659
0,0673056505793928
0,0646135568503698
0,0669203048289508
0,0777696205209643
0,0663938913323969
0,0673870782473258
0,0649559857066772
0,0714923325989869
0,0622017666967788
0,0663733365151163
0,0641040615890699
0,0665934705745054
0,0644415835558467
0,0645024182203529
0,0651467768516945
0,066192579800422
0,0613785583116028
0,0677109782623936
0,0631565052849918
0,066642761502725
0,0643174544833985
0,067663913135122
0,0650953981390475
0,0663299597851673
0,0625578610957366
0,0664768966814489
0,0625759016688596
0,0637323029418221
0,0605502244305109
0,0739712663714481
0,0669341626002695
0,0676509134598789
0,0620595410862061
0,0630529040991604
0,0612279279781467
0,0622087210185799
0,0608693275914353
0,0626585541405421
0,0614454467761667
0,0649422361932589
0,0615447652114593
0,0605849886639145
0,0615468249467979
0,063817754184446
0,0597488098132471
0,0631409784892476
0,0622992439045467
0,0637245876227802
0,0569029401321054
0,0628930648953965
0,0568685947975929
0,0635806542588767
0,0629367385644208
0,0653626301651993
0,0575788478578038
0,0647937827558222
0,0822715128585876
0,0639919531337628
0,0652301128625523
0,0609772441449177
0,0613151639642265
0,0575544151254724
0,0585762172491396
0,0585250106899218
0,0601251855047149
0,0592294056091485
0,0638155648309555
0,0608490979102134
0,0593014896999697
0,059373318281583
0,0622021745733722
0,0599596427232833
0,0587077247103383
0,0606242800468708
0,0616536580446091
0,0603338729660584
0,0628099004836784
0,0745595131869389
0,0677858596653375
0,0626387489002656
0,0641207343630311
0,0544024808258686
0,0831293351001239
0,0662930106304259
0,0630301033045359
0,0637326600233109
0,0591109394899842
0,0610568634691293
0,059759591378517
0,058948543440264
0,0558957372492357
0,0686137086795612
0,0599593501806848
0,0676830310249638
0,0600588326749751
0,0616372874998374
0,056464164165197
0,0618177472265156
0,0588747742020575
0,0606620856433174
0,0588037123066757
0,0596834826458022
0,0579737255573937
0,0561072612265318
0,0576864855100184
0,0565891990069753
0,0612668517576461
0,0670008791161694
0,0597798384620864
0,0592994094625433
0,0598405452427748
0,0581196042356056
0,0628224613804604
0,0865260170016582
0,0571544827277312
0,0651369360802612
0,0543992849264391
0,0642028958864049
0,0576853386109516
0,0616965281458985
0,0583101434303719
0,063124786951778
0,0581269712522211
0,0626790586092902
0,0569858392411712
0,0610491330423623
0,0572529911458695
0,059138167805207
0,0580471511514917
0,0597890855508767
0,0567263076496808
0,0567982372515781
0,0634162786108221
0,0575271177057001
0,0745115969938004
0,0803135053289026
0,0695397087692244
0,0731813974130979
0,0631749694346043
0,0674716459305471
0,0586779668019093
0,0621704241155169
0,0565380206135061
0,0627043664109717
0,0551876449094868
0,064438020709491
0,0597130384754581
0,0637443921034793
0,056478911549771
0,0639716577104508
0,0547060211492053
0,064490156127176
0,0558897967147716
0,0652494932760325
0,054553563333914
0,0658343466697331
0,0510050795097187
0,0709581694622961
0,0607907349685507
0,0717659700792607
0,0471726308671776
0,093498934713524
0,0826960391407769
0,0647950401915191
0,0699266816408877
0,0612730386130855
0,0617278940303571
0,0591226672502594
0,0618448524769388
0,0685104183452582
0,0620346731757927
0,0615808095385276
0,0598564209409138
0,060266358160112
0,0631582751216891
0,0583627402067598
0,0670281015366374
0,097638364205178
0,068966823791214
0,0695726146853833
0,0584252848283949
0,064724193243979
0,0914820440913367
0,0638532613187441
0,0694193259772515
0,0641961050516534
0,0646849532470623
0,0652814797755443
0,0624400276082542
0,0647172425638948
0,067807614654634
0,067933429273573
0,0639853452791161
0,0685225637016368
0,0594171523610963
0,0682391020670774
0,0634309506596951
0,0747096912961383
0,0758885818797945
0,0633309438027502
0,069520854471145
0,0722310905403094
0,0655067488694156
0,0669018826715946
0,0649969782336345
0,0658223755713271
0,0751115265200103
0,0834217450264756
0,0668805547009926
0,0816622775474277
0,0803153734092325
0,0666186336185844
0,0723237444964915
0,075281838054927
0,0820745143009848
0,0616434706779895
0,0688339569438059
0,102565202635612
0,077382732090912
0,100278631728963
0,0654601982009115
0,0780672640806178
0,0633859924050733
0,0759444213828643
0,0572613722085746
0,0918146469112558
0,0676251281283328
0,0795771152804564
0,0674654431518106
0,0838073406804838
0,0828230899418474
0,077327412607752
0,0720505590435282
0,0763800299212071
0,0703008202762139
0,0874684245878204
0,0762921483708904
0,0659958053617113
0,108146069678376
0,101929191697468
0,100246824869298
0,0896365710592209
0,0694698583973031
0,119115719770721
0,079294043959141
0,0855718678452601
0,0764506296640409
0,0827027302109394
0,0742291208282471
0,078660735500883
0,116365877377867
0,0910364815681829
0,0774246042434274
0,0912560964034671
0,0746234388540156
0,110358827000074
0,0893493253654674
0,0850693877428363
0,0800180470041922
0,09126652860013
0,0700684741698501
0,138736729454728
0,10535709693558
0,0991446493146685
0,120375956247622
0,103383986809905
0,10789545910032
0,0962168573711712
0,0935884228948115
0,101266054960946
0,112884132679876
0,099777579372027
0,0861448776783385
0,111154628374045
0,131619208303414
0,096475629509598
0,113334091562431
0,0980677986351142
0,0939138779267455
0,126604951515293
0,168040692346946
0,136141296172315
0,110555373708976
0,104784093896735
0,136313065381541
0,113178592623709
0,109663972012578
0,111977764730107
0,110190922703539
0,111683410770565
0,1111540657792
0,128378727548954
0,113784694340209
0,121257172514685
0,120357428419884
0,115366161842031
0,138852040733659
0,169757595741715
0,164990479936968
0,132802007047106
0,165460861682982
0,150729486037711
0,139848468460052
0,135422408963191
0,135325584585552
0,146703956084166
0,142138638019172
0,142602285803935
0,135675186354
0,163665568740349
0,157495806555535
0,159771451665582
0,181467274512991
0,151963466744065
0,162065929408368
0,142130510557169
0,354472340456715
0,190471949088785
0,193105222341894
0,182219006318475
0,191272591436434
0,267474192889863
0,204930601827078
0,198164888214022
0,202377073016702
0,197313443212055
0,212406343944671
0,226479300028248
0,227857523592759
0,242737169982439
0,237992443621596
0,224855586467897
0,251661736827901
0,323329749646271
0,320676644462688
0,291098871332583
0,264771675600207
0,294990939299155
0,299787390328346
0,285453678729067
0,298027682630451
0,29412908175209
0,305466432563149
0,377897483777956
0,324521301031029
0,333270465926059
0,332000556120616
0,375253356217158
0,335501407444853
0,405592651063156
0,403251720529906
0,371369352783863
0,373196847244595
0,377028775614031
0,389148668624514
0,383046001369662
0,434178479585611
0,421377386262566
0,412418924390718
0,416496973616323
0,416083371150097
0,424288152021934
0,427889929602525
0,440495873154797
0,430251427149995
0,477140384035733
0,449172971211508
0,602218846742935
0,493097157027058
0,459359542784867
0,458883578724053
0,444254712437009
0,504304751626369
0,476429929169485
0,506315132047499
0,500207830312672
0,47014930155846
0,469064167645921
0,45774352885562
0,472118892660273
0,461860512561837
0,474525915745919
0,454013457140609
0,49618820481134
0,470418795746263
0,508738761644348
0,547782310505572
0,475404964657186
0,463683257135684
0,465873014989211
0,456454327956979
0,449784937520876
0,444844125956861
0,446406621641578
0,477075293651167
0,443524841592781
0,445516073436604
0,428463951516727
0,460737507813347
0,460635563075804
0,424797332623643
0,429095678348967
0,421367993736754
0,420098807434742
0,402118347248843
0,415682632023056
0,478137577397688
0,411239635185756
0,404326864483067
0,390711351099201
0,38983252160809
0,390681012515982
0,378262744916265
0,381224647083537
0,37923243079949
0,377471733678907
0,383820894069092
0,37377240416003
0,368091754575293
0,369279598489957
0,367590695898825
0,370797687748474
0,363291199048144
0,372276568507244
0,364517162475518
0,359374921455403
0,354146663208284
0,360949600037137
0,362195627135351
0,361405852504444
0,360642943601823
0,350654502052673
0,355315269341814
0,355211666375147
0,354284001207273
0,35516173330813
0,347312577989304
0,348256059434164
0,343046309558211
0,351689471767466
0,350277573897064
0,346657242976092
0,347318466607923
0,345576860135521
0,341641737471507
0,34831915372861
0,344716352760746
0,350455844783411
0,332829447649881
0,394018787308237
0,375362850397207
0,340932315055647
0,337195690917216
0,334697172998627
0,336975096837708
0,327734961573765
0,373559087004627
0,375517445931475
0,334124427320775
0,328292047404614
0,321678577040461
0,330726331258823
0,334929449384815
0,316338665944478
0,32640690717562
0,30420909166262
0,346441206462563
0,412431665744148
0,375981895071502
0,405012725673858
0,334151545305858
0,313184291966795
0,323856137935174
0,355541763583715
0,31055417948353
0,310539052133618
0,307049809146087
0,34378252449472
0,324529227057097
0,304479511019811
0,307240902325461
0,29739151841354
0,315835381043993
0,331828260590622
0,305761160345179
0,314994268323564
0,337709061845954
0,311656277906725
0,346314482296787
0,397797218100265
0,331461259605157
0,287471082337657
0,286682665117023
0,28773748775604
0,284523710604086
0,332950830340371
0,293312562849399
0,291928185117891
0,275974705694964
0,266794931276864
0,276568658384592
0,291639066660403
0,285251073953853
0,270771293903064
0,301148783316685
0,263105844716529
0,271687001526054
0,285059226789976
0,298022989596274
0,321232569318779
0,276102226894182
0,248181247814575
0,27921785092127
0,303623644744873
0,268430075536847
0,271877807039985
0,244928774449326
0,245381127549692
0,271175438449637
0,244043856923306
0,253389324798598
0,262799449820296
0,268603346675516
0,29818846731308
0,310704609011166
0,299756977493261
0,253477379726919
0,237118772684058
0,233524970098935
0,235111567801815
0,236018751240466
0,230444567945066
0,252228306065113
0,247376008542214
0,23375989702444
0,286763101805139
0,251801206203011
0,238751050830541
0,239151619857024
0,236990963334952
0,251022854349948
0,283512975349963
0,301145394825903
0,273881910164717
0,261064071672249
0,277802903964171
0,264613018297066
0,265692998366764
0,264244964548781
0,273286717304984
0,271104083765786
0,285046561027063
0,289968520834307
0,289363593001442
0,292720909001894
0,29623239319916
0,323392818888978
0,343710932148588
0,310921889346185
0,347987770878513
0,361944139171645
0,381625544920367
0,370322553756908
0,351349366109249
0,363733587384443
0,371470027531788
0,379527323700809
0,37477514030309
0,3875828633338
0,42659983170375
0,395722645034448
0,399962427337338
0,402162341384765
0,408240197466885
0,413771382778869
0,443878276900106
0,448553890408
0,484282668579092
0,49975633634047
0,456399356111473
0,445838029607175
0,438282677693437
0,44560117290343
0,44988427277832
0,444313483905513
0,442487318898686
0,442951007952979
0,472739668204453
0,458969226150761
0,455165874679624
0,45345810425901
0,450501771933312
0,456004241057316
0,457047107110269
0,463473759327359
0,467635060901911
0,470658588896653
0,469170849167535
0,465091935217075
0,536555047061771
0,51154137102655
0,478805306081665
0,48773730326754
0,495034155993933
0,498074829320182
0,491828561210771
0,507919271008933
0,51451423202912
0,501313529941765
0,512437759622788
0,509499622640136
0,512158315478511
0,537313449969721
0,546769723847723
0,525407007198113
0,531117728610151
0,521995045239257
0,537636645754529
0,604009928605941
0,558065010170021
0,555583602105831
0,552620410718922
0,542569950228361
0,547122946613149
0,544793165676991
0,548060048769002
0,55390510568361
0,553486793114256
0,553752525039577
0,546244527473735
0,548709948571639
0,554021724709576
0,55051586772889
0,575494903199682
0,556256999966225
0,542433379971389
0,545098416082732
0,544149020501795
0,541832715334906
0,567179699999045
0,564345985402359
0,54670223134063
0,551823981311703
0,546673983751299
0,561261607508252
0,560372352453335
0,537500822617105
0,537337549379425
0,536463385116662
0,538106074898973
0,536528211886275
0,537992197517812
0,568210331983978
0,556937760654156
0,546219935447784
0,553566315550577
0,550479584231011
0,554247922904358
0,554323336373099
0,562098984308612
0,566792361415241
0,567004902298486
0,573127589029141
0,575468449810956
0,577497871377819
0,586937605650044
0,593056682077616
0,595814779768448
0,577821106502985
0,577385969191609
0,574752722966669
0,578306852449177
0,591748461000578
0,576615059698566
0,567859067745686
0,570360604256471
0,564451136783896
0,57104668829821
0,592923923923701
0,577078727548085
0,563506605479487
0,559449664752289
0,547107007672962
0,555801563863868
0,543073006211434
0,538972343082878
0,537430210970437
0,54197512470414
0,535271495024089
0,536113275665872
0,531103879343218
0,532111622046416
0,528734628132575
0,524381387546248
0,526608959379749
0,525777278315951
0,521224859192059
0,521318191331616
0,517277586177116
0,519360826264008
0,517743355937151
0,520858854062676
0,527082141429536
0,538855268800725
0,532834677082779
0,531059171763224
0,524612790643775
0,523174098576799
0,515758171250458
0,514689586861222
0,5127752072571
0,511279934963428
0,51114050692822
0,51552493222851
0,514110683494409
0,50856367623658
0,505385147072084
0,505576254876495
0,50376790326146
0,50266785995924
0,503352137976162
0,499014639378297
0,492032151755868
0,494094149160537
0,493789718241918
0,500583310388695
0,497956654127524
0,493330509318564
0,495528159347446
0,490852684872968
0,493735626074159
0,492881903209279
0,490398072677959
0,488524379294248
0,482349250494099
0,480689194639164
0,483165266312629
0,484021673936695
0,482039029725168
0,484428313422861
0,482838622337819
0,480339576148737
0,47444332395911
0,473253895264049
0,475358907596809
0,4769310617425
0,468849585215668
0,465686893128748
0,45903660268768
0,458089939443229
0,456316375510336
0,44813158577973
0,446526051338991
0,444757410654873
0,439301261360158
0,437504897362869
0,432885116885142
0,430843639845026
0,430307117648037
0,431833771769403
0,429787787917095
0,424413639295821
0,425509955442022
0,422109711666885
0,421581014063637
0,419397537659315
0,419435784266596
0,418345096921026
0,417950975749262
0,417734372095528
0,418592314732559
0,419154722170772
0,419721114932406
0,419177512607546
0,420931685256841
0,422211421855658
0,425172870060292
0,427979208870348
0,426308709368275
0,429726880998502
0,429100910782749
0,431517970749123
0,43119293337999
0,432733112287083
0,435135832858007
0,43773117364697
0,437846088848974
0,437663481928354
0,437674621838955
0,442449627320899
0,438023337790526
0,436857237324168
0,44026584134944
0,440785733464173
0,441255782271735
0,438531593273895
0,438161488574723
0,435995271380597
0,433216698014483
0,433198913886862
0,432370644466829
0,432777116028701
0,431963651538648
0,431614044839796
0,432570973963551
0,432344243971887
0,427993094134096
0,426388345162844
0,426401689933943
0,42707856433537
0,425753414992678
0,422893395654358
0,419827051555532
0,420640455339998
0,418284358602358
0,416537942906578
0,41288205881677
0,4136745855843
0,408521838456064
0,408237397335378
0,408015087955842
0,405554811037902
0,403762034118616
0,398089095504879
0,397988203170295
0,397306035214551
0,39509332134612
0,393694976464424
0,387616372706359
0,385952614342047
0,383903281447695
0,383082807302105
0,378526376206514
0,376128275551962
0,372689359110038
0,370214748194204
0,368368582637213
0,364614209823555
0,363173159396948
0,362711192352534
0,358369415056311
0,357142777016704
0,355817492337509
0,355348602886587
0,353169783107049
0,354005681061566
0,352278091377437
0,352491981781168
0,351303457909671
0,350722084369576
0,350112769440829
0,351299139736856
0,349369244720215
0,345387336872897
0,343850688279444
0,341425567261201
0,339980037242341
0,335028425991185
0,331428877868615
0,330002277567328
0,323073974677992
0,318292017389057
0,311243996962053
0,308285397125185
0,303065351362263
0,297785744476153
0,296766099580321
0,295899518964508
0,294319555061052
0,292879216965637
0,293480129881702
0,297916105645679
0,300099026326223
0,307467068848576
0,312176165753874
0,317378014187735
0,326625428551845
0,338052892606427
0,347409809727439
0,360928883209444
0,372206611615084
0,384654112823361
0,402096837115584
0,418603868099628
0,433399448852897
0,448502567839207
0,465582411172545
0,48550168880923
0,505450316236687
0,524155161116042
0,543164934264907
0,564762625736997
0,586718257400184
0,608291393168408
0,634869010704587
0,652579492362321
0,669122008603895
0,691661578506278
0,710716813517626
0,73133198513621
0,746958192657301
0,765116998566187
0,782755765912109
0,791927021044965
0,799671964550757
0,808303364977559
0,817840940061979
0,822211748439901
0,82778512269206
0,834474714495215
0,823337330255883
0,822350086021648
0,821390145817628
0,820567018029233
0,814583177577288
0,809381947142616
0,809887137814465
0,80600904099596
0,79497105190183
0,784898233411692
0,779552452942046
0,779168357866223
0,776431724610835
0,775188772204542
0,778022807850586
0,781061468664532
0,780940074758191
0,784573374758076
0,787120294017872
0,796667691915942
0,810937727712422
0,813211916650157
0,812726856806194
0,823637576684678
0,836125005796471
0,847167782797404
0,8558152013611
0,863382948318212
0,876105681591446
0,886484235597395
0,886649367734375
0,892789727418505
0,898980100799331
0,902447378097409
0,91312395729373
0,921388612304073
0,922299112482991
0,925122413452866
0,926126699926651
0,925379079118843
0,91691632156903
0,917674314818122
0,921900100849007
0,926215087989064
0,928777214962521
0,933725163239222
0,942630289033417
0,944861015116423
0,954649188553585
0,960391778951959
0,963743657779509
0,978199523396947
0,984177046500926
0,992751990459708
0,999743885273583
1,00330283324128
1,01560353883835
1,03100664675516
1,03397097070744
1,0431213944548
1,05021125922689
1,06913001266147
1,08363475332281
1,09844229214918
1,12911161248833
1,15574135316254
1,17058211850457
1,20044547562738
1,23372912860464
1,24755791692593
1,27790868062531
1,31212772537334
1,33396497183441
1,37005700755827
1,38147143972576
1,38857460462639
1,38732322432446
1,40243111144885
1,41092476290124
1,42136287648367
1,44296690649912
1,42684248884729
1,42113348192432
1,43910296790471
1,42788572173071
1,41314474333378
1,40162046442428
1,4162989145403
1,41585304423957
1,41654806380519
1,42692140156043
1,42961768140856
1,41422415110579
1,41059514248827
1,41181402055145
1,41237623391735
1,44559781271174
1,46857789255179
1,45539816078964
1,48203693168955
1,48079312825829
1,47053540748521
1,53223368756418
1,5319627194297
1,51281391040127
1,57553073667506
1,59264501216328
1,58653245824597
1,61201170972721
1,60757618217336
1,64396232083724
1,67411819615218
1,65738097102355
1,71185783727886
1,79692900528731
1,75245909826954
1,77232965771884
1,85154389869679
1,7736084480253
1,87242254524572
1,8174834691494
1,85519546940128
1,88093500832152
1,85952332307828
2,01591614430285
1,91241753667718
1,92500203608415
1,94468156961484
1,90380328317975
2,00395813543977
2,06700024246268
2,15702063057485
2,06765533819132
2,11284659036037
2,00048740111243
2,00519897675424
2,19248864883279
2,01738685428969
1,97539894682921
2,04278688868417
2,28679160741234
2,11830993676914
1,92929981657682
1,87823685761383
1,93008639191441
2,08478759260849
1,95958413053512
1,88742194840766
1,85308892510354
1,82183825031457
1,79286578843181
1,78408075926933
1,66807492537222
1,64498409190777
1,6418945524599
1,66507526820357
1,62359893048936
1,64968167397597
1,59159907826463
1,57605297900904
1,60414724855601
1,57823547357299
1,55051382828773
1,56516963414684
1,54248382536336
1,50428736893137
1,46357542817349
1,4555551059294
1,43154685444981
1,41716398000969
1,38652201404257
1,35088350234075
1,30638945253053
1,27982707550411
1,21832130611764
1,1972595899792
1,16065863107747
1,0845509668287
1,04285171280493
0,997005408341209
0,946388055905034
0,897173254507385
0,852021350249149
0,819074408216059
0,783719179326838
0,732757494763778
0,697376335604772
0,66776699339014
0,633391841183309
0,611165283429823
0,590820181262654
0,571758745447012
0,553261190276573
0,528524545517103
0,507978550007388
0,495790420487874
0,483285230891695
0,471489267664874
0,459317466507893
0,451753710471694
0,447287429829681
0,441850602008408
0,429082508055582
0,428794311038577
0,429036421087866
0,422784605201741
0,42180660900048
0,422313325571849
0,414568170665653
0,414850775173266
0,420191111495291
0,420057279809992
0,422903626809893
0,428693805039475
0,426132424751126
0,432045466138922
0,433525628918976
0,438470943963182
0,445421352640275
0,447767296615156
0,449671400535226
0,454356713318663
0,453049888921664
0,456121034687331
0,455122268941421
0,458916314558978
0,457694484354319
0,458805886403062
0,457546982625015
0,459065883885384
0,453983574973847
0,46073328838016
0,465648851703243
0,470141249417642
0,463498003287912
0,462352085465234
0,467471619055692
0,472682588351355
0,466837731684481
0,467288019724858
0,471357852458511
0,465701708540102
0,463940668157577
0,464480379690088
0,464373614752623
0,466360076695419
0,460928125581568
0,46380828854546
0,456680804284355
0,460410336955216
0,458667295695558
0,453383546482601
0,45129237272893
0,452924537379393
0,453474344977969
0,445742414362021
0,45353842419372
0,459555157668468
0,455577638594436
0,457739074353027
0,454050651399913
0,463168555231095
0,474717536383634
0,485611998627924
0,482057402245049
0,495041344862527
0,505091644261001
0,516841673947352
0,521582544611521
0,528493811626937
0,526506004256015
0,533631422324176
0,536082027525298
0,532407799298767
0,53464080833263
0,529188413198029
0,518122402245219
0,505581271444095
0,50814352087951
0,507088302501783
0,490435497901984
0,485617936279973
0,477756612777597
0,472686548547534
0,473018563936543
0,472887335517021
0,472477653198435
0,475384690406422
0,472355946310369
0,482389047120497
0,486302482017239
0,480682740636313
0,466837783635202
0,472844392898521
0,476181475182701
0,47987019390728
0,482674468388769
0,481165154239431
0,473586918841398
0,478755708269934
0,471375623426858
0,464769612697006
0,470189460656962
0,48633392212563
0,476063018450204
0,480453352129866
0,482243438089806
0,474195550802767
0,482025950051351
0,48102179293277
0,483824882457892
0,475595907650046
0,482485144112072
0,483981215793944
0,480066773119206
0,475784912713446
0,469911514879363
0,470562295350835
0,469906317619937
0,474026789819295
0,475246259495165
0,469997192359743
0,466834025487537
0,465606350653545
0,467512106535853
0,471512770774775
0,454384441904657
0,455544437069289
0,454959572203206
0,460214907419921
0,447555489951181
0,450141086918086
0,444731522724961
0,439301370645994
0,442925293189934
0,441059083295051
0,439311635231414
0,423702136189018
0,425903363328441
0,437906946817174
0,425550249389549
0,416109968331305
0,409428213292378
0,417476403960753
0,421555592300713
0,414629493411395
0,431815464340866
0,438251906695735
0,429702012041128
0,433924587460796
0,431071836849532
0,436542954784801
0,419615244803335
0,431868286337279
0,438926461306101
0,438852679428815
0,431946820518737
0,446590709704942
0,445109597197455
0,44260148257008
0,448051942311284
0,449612346753356
0,455784574550012
0,458649957094684
0,45397361809477
0,465539930512931
0,460517894792597
0,480058573965702
0,478091380572799
0,479060299407621
0,49052924091257
0,499047886925871
0,501263361539863
0,516518171851166
0,502984126977414
0,532251264638273
0,546872586940072
0,551333749340424
0,545243373830284
0,569698701102316
0,556891639984692
0,606227798943845
0,604779692878445
0,614023943311489
0,615537891854121
0,649157724529338
0,644878912650493
0,653458512479741
0,669103144730804
0,662761105213437
0,66617741331264
0,703675663816799
0,667670250895247
0,669712838009623
0,664534670850989
0,680607152798137
0,648250575272949
0,687168271085583
0,673383528606168
0,686349357067373
0,684533956193162
0,674574150325398
0,691139309383413
0,690505626959307
0,683354888413908
0,714314562171372
0,687409756996269
0,700263239014625
0,700519513119552
0,708802397795992
0,680228315703684
0,741210733478571
0,648345397567226
0,663447027654825
0,699538416167508
0,666350988443638
0,649930181205153
0,709925488501579
0,696249606579365
0,649586789819182
0,633234593815869
0,666863356287649
0,713152720595394
0,689138274575682
0,62162726781127
0,630237835240054
0,655379471989579
0,660256375008726
0,612966468100651
0,660412070796089
0,606970225100522
0,623183374084704
0,634210976714435
0,679263139182424
0,656565828716565
0,693969388445445
0,630070955960153
0,649140370877768
0,617114544336927
0,668606488231091
0,658033596758729
0,703962847194071
0,657146172551524
0,706325323019398
0,653340472688828
0,655847654320829
0,680282182456841
0,712954478699637
0,695593357784479
0,695663440713038
0,657080413002323
0,685457403068678
0,665004653214617
0,730367916374577
0,729552091996145
0,725385233996077
0,662178080919132
0,683128359145144
0,711694243807451
0,753390992854343
0,753346198468481
0,814545724143858
0,699490339789107
0,866272675402753
0,726227161784067
0,827673803554027
0,761780282496049
0,852331968809649
0,930257136438572
1,01246809868132
0,756055447523497
0,73000478390439
0,858285956315158
0,99462549772232
0,826521172141303
0,871912640937082
0,819440130112817
0,818979861563507
0,895501693072447
0,958634945469564
0,892137905511334
0,897982776488414
0,764629536609294
0,879363527408543
0,715041254388574
0,819499109708449
0,834915836478014
0,892969742814206
0,840792895115789
0,889416918882317
0,884998305963721
0,780068200935393
0,714849986104991
0,859474937507896
0,834008844861944
0,852545238989538
0,845790536084167
0,887142747934295
0,772485985115943
0,959964823933498
1,04343742265582
1,13318597208885
0,706942311910656
0,790697817925921
0,73209006507443
0,923293726618995
0,730012023772019
0,938687016083578
0,89226262785813
0,927154717575095
0,956743548847144
1,08882249851427
0,762436694538988
0,756165707319965
1,10948893417219
0,721942112772888
0,941404719597596
2,29574441795133
0,805469115738589
0,648076376682695
0,667205192149505
1,04929101439174
0,929214694413289
0,903353838715346
0,966940126310533
0,657949920728021
0,707930284938425
1,36025945906342
0,472058512933692
5
0,711448804034312
1,15331410039712
2,20455674710512
1,10258536215059
