3596
4000,36533379555
650,420452594757
1
2
2
0,0878087118906213
0,0663135753844941
0,0801620938822404
0,0666977724846224
0,0823206128884364
0,0686425596587552
0,0785454406752719
0,0620198545708492
0,0796610132186591
0,0691579558507153
0,0868298745094545
0,0711138256918443
0,0806809078244966
0,0629046248848989
0,0785125097233508
0,0664326903095905
0,0738347533954248
0,0600108525212379
0,0826597632546936
0,050367364682569
0,0813139284810721
0,0610866668340371
0,080288601894156
0,0567723100448492
0,0775342511451909
0,0664276240210094
0,0730092169931043
0,0612543592650729
0,0867103401790362
0,0614455454002593
0,0806400066391725
0,0660887320611756
0,0811068779754139
0,0696257146774317
0,0759212516870244
0,0669381437770733
0,0698341312622032
0,0586339671371969
0,0813423074093238
0,0627642281832459
0,0875681842325454
0,0687608631314018
0,0875783021027091
0,0617002272098043
0,0801528351339535
0,0669462153485368
0,0897521705962374
0,0662475048487886
0,0751570515170136
0,0724900547482499
0,0824704018115175
0,0683714262709942
0,0914948365393351
0,0728898682767676
0,077052409445761
0,0769182797986633
0,073832995986227
0,0698197966526004
0,0768049923345662
0,0612550425099429
0,0918061214616146
0,07958986318022
0,0782813767353605
0,0684829517627491
0,0821443874802671
0,0637179287643041
0,0707462523153688
0,0626968040875756
0,0713245991756358
0,0703209993776034
0,0723984081039506
0,0793240646410568
0,0926164110625298
0,0634968562405012
0,0905329351999827
0,0609799884361455
0,0771295239351578
0,0588930086286831
0,0689851282314972
0,0669298505888066
0,085271058494123
0,0621575696261515
0,0859204346005594
0,0594563517525937
0,087132232342045
0,0786814813445119
0,0655588965597507
0,0673341807917176
0,0988477782128186
0,0709918449046712
0,0735255059553743
0,0662374121040557
0,0744268816287871
0,057911536019261
0,0754476825359327
0,060527541461096
0,0678043985746012
0,06230762110473
0,0741971452911719
0,0718552068148287
0,0913852027661877
0,0673145952478653
0,125348191410621
0,0587363590663312
0,132788602088111
0,0775243786547367
0,0802491377776228
0,102807477677379
0,0909820192947818
0,0727230936871451
0,0713414140966037
0,0613566257273788
0,0721782277480806
0,0722394955074913
0,0622542211813089
0,0794779438681853
0,108127384746117
0,0660074189929764
0,0708302863097064
0,0655748861845909
0,0550853840684407
0,0814632579562784
0,132389126165467
0,0604712065629009
0,0971836188277888
0,0628656053748104
0,0619797609003203
0,100422404189232
0,107046815727402
0,0603568895508884
0,0798069319424106
0,059825959421558
0,0653988420034649
0,0486880852024901
0,111802040305718
0,0691359569022058
0,0815582332488572
0,0538529937903947
0,0962130599334999
0,12498016815908
0,0990236600284773
0,0690541583749721
0,0613768719374983
0,0548832275905286
0,118885393874741
0,0773577322285742
0,0703575781668791
0,0849824767530963
0,086261594572696
0,0547042495389748
0,0731451312827463
0,0527115744009426
0,0915813302087743
0,074231931782604
0,0445724743032187
0,0758302892089069
0,151326920879971
0,0642976646892688
0,161110025695076
0,0639870795313146
0,0922703458106061
0,0531583546795066
0,0798223736944281
0,0541168617844865
0,0707740316816155
0,0486420433442931
0,0826528621297529
0,0878340180521166
0,0681105137984662
0,0595878903620774
0,11384134646094
0,0761473481029054
0,0542115447746449
0,125768306055021
0,0925812750463355
0,0510004962890611
0,110104069019417
0,0825281272086007
0,0634011653923078
0,0697029430675226
0,110725867042885
0,0654831518295593
0,0765336040852143
0,0487542107650202
0,0785983732193055
0,075793130721448
0,0745525369802034
0,061818935847844
0,0838098676465633
0,0369979698680822
0,0963951102014244
0,108435028694979
0,118181936287879
0,0582553874650274
0,0873868509426612
0,0198169476383139
0,118613293967637
0,0961577759931856
0,0709527507244626
0,0606798450363155
0,0644868217977427
0,0497856692641011
0,0648223246206089
0,056819361471958
0,0712929769769928
0,0279072455562552
0,12444136512791
0,0752858927028525
0,0763847302677487
0,0502716796401031
0,0671498810103095
0,0419066429354448
0,146002255408742
0,0939836166009018
0,0712597187192622
0,0695366918080436
0,0723425311550659
0,075445160004489
0,0860463931459407
0,0611507037467043
0,0734596453864123
0,054296214094013
0,0686916306892478
0,0536619165907683
0,0679665940691792
0,0545682107509108
0,0660772270192498
0,0571980116159094
0,0717551181153169
0,0610117668443571
0,093853162022669
0,0702875135131206
0,0702004017183999
0,0609768959333226
0,065830514774044
0,0638379293157207
0,100947982648192
0,0578367045029225
0,0800115733131846
0,0561364209283505
0,0746370229452992
0,05516531788565
0,0740365215359839
0,0492060141774127
0,0717282294462336
0,0425167627029243
0,120608994392571
0,0676135094123912
0,081522431811631
0,0401988750324036
0,0958305605838923
0,0776810973576478
0,0712482096999008
0,0541184693640265
0,0744478437636249
0,0455818066094921
0,0677943975532394
0,106344389797453
0,0855933369396953
0,0507817641618859
0,0940358024125509
0,0762855378293657
0,0753125739097977
0,0637504640628094
0,0544587281490015
0,147685949250783
0,0936852079769103
0,03761511184681
0,159974965220972
0,0802631060014821
0,0895371254702691
0,0631242304767742
0,0360416195240486
0,183571487658793
0,15033419635297
0,0745362212604171
0,0845971213882207
0,082970030855601
0,0725122902891971
0,0695303364313223
0,0850576803559806
0,0720578452745161
0,114298766040554
0,103856579825915
0,162889597167219
0,0475890800933859
0,117385281793354
0,0918790858405086
0,0826224047151944
0,0688114750069491
0,0819641582252449
0,0572440908626312
0,093446693093692
0,0871377179038552
0,0942315585034717
0,0729697376059695
0,0782184310176576
0,104221105016262
0,0911691738200378
0,0623629316754604
0,0895649709014778
0,0896712431949774
0,0738385851235075
0,0657484818692866
0,0736272639089314
0,0778099325820317
0,0735983085869073
0,0501580958696771
0,145273687437486
0,0871946259231164
0,08169461843442
0,109842210208886
0,0832692018439577
0,0638951547300954
0,0750718385151115
0,0737762811333305
0,0706208920199211
0,0613878122464682
0,0663201617101989
0,106201411957897
0,0870039871269267
0,0704643435051346
0,0777009463418623
0,0614958459082569
0,081308666617743
0,0706848875185947
0,0835950907035529
0,0695103222725844
0,0846328261781894
0,0621101829005462
0,104103734727472
0,117583656598671
0,060929910147736
0,104771968452941
0,132655341679393
0,0785730696855242
0,0901404903929572
0,0741666550851956
0,0913489920549948
0,0692435274097717
0,0887876368842347
0,0726670799247723
0,091672478395404
0,0992607294607795
0,101757972451822
0,082206426598096
0,106999106084442
0,127096621465074
0,194293522670807
0,10614168590137
0,108420262279256
0,0599082465396612
0,143256464855635
0,117190090072554
0,126954064720387
0,131651582775888
0,093424318108953
0,0985758554800024
0,0995272781093406
0,0970976477163783
0,0981967946435304
0,10092990323699
0,1044329754891
0,102510060045115
0,10393987281357
0,110917022903617
0,105381400544545
0,100044213874013
0,170527979241787
0,123231517428252
0,117046538406305
0,120387886964181
0,105451696128762
0,152917866890307
0,165161066241179
0,166334562844762
0,169255239458685
0,142322594936982
0,210794690213974
0,119016628349581
0,142302620301509
0,118099589306895
0,14637661958803
0,132151191676215
0,145612790420312
0,123632251503855
0,152465259838896
0,134799004749275
0,164434725363682
0,133422204982796
0,154036664913551
0,132501205340965
0,193837681981402
0,150626250921368
0,174129210091075
0,141123103556485
0,181286429880046
0,215694839102771
0,243238920828748
0,173303901550922
0,192738915538114
0,167524623973008
0,178496822011241
0,174157039730845
0,191064165991657
0,180215755991925
0,196407780002014
0,220686770814403
0,21942462958153
0,218419295874838
0,233138734666899
0,182287885629974
0,237392492120535
0,202974248952385
0,223421891303384
0,233541218246743
0,238183566334896
0,189169232315386
0,268146349275378
0,233242216511624
0,233871086586422
0,243003456855589
0,244183594139148
0,223433957235149
0,236599782239129
0,230890024181438
0,242161342993044
0,242012287769421
0,26057996637093
0,246737202303709
0,272311767463313
0,253681275747268
0,276519124911747
0,277711202770484
0,291195248288209
0,259439463161792
0,297018286837092
0,250604968458835
0,291354349037446
0,253910303708335
0,331485037146467
0,302717248743839
0,33596707509994
0,326732120906316
0,302630625414647
0,295319942196295
0,316512838442562
0,299639488406762
0,321713905317413
0,31429173481495
0,333112929926105
0,310703726717285
0,335983330502695
0,318707895198335
0,352024745000404
0,311817679043702
0,353523536291649
0,344214987633333
0,364746420101629
0,339723641617912
0,378320428955321
0,339765900190506
0,40447359927299
0,385845741424336
0,429467628257902
0,420234166333001
0,387506771161223
0,383495555277696
0,401360331415746
0,38074757570713
0,414393499687978
0,41491381870913
0,415704842309989
0,399290151043295
0,420017326192343
0,407706696100635
0,42241626177215
0,427569629500889
0,458440073761908
0,438641642311059
0,450948982526097
0,444095962301796
0,470385820198406
0,452217288925657
0,467081198423168
0,479745587077371
0,487835190357784
0,468446565214543
0,504922868734722
0,456251921321707
0,500937716810683
0,466370541528109
0,525922127793634
0,498215759257595
0,530545558195019
0,503288470908195
0,52920464071592
0,544050496826173
0,559629469581869
0,506931406844697
0,530272258089743
0,509140594826828
0,54570674786879
0,535730194534144
0,588697779684516
0,541429952721951
0,581784008441737
0,545267739730014
0,611331263078476
0,569555800694509
0,617892046088574
0,586189277766266
0,628177666656495
0,577936291394556
0,607048910101506
0,594077107205196
0,629554194196543
0,609980479354029
0,65397339134423
0,613177120173891
0,647048865472621
0,624496195611807
0,6915095671443
0,620872102010976
0,665746696585401
0,640162569949211
0,698022505492261
0,63070920555043
0,672440925193035
0,656413653348821
0,714678902725348
0,653269109391347
0,715877717934089
0,688532440448238
0,714376566862381
0,68952472355569
0,725100437319381
0,661564881181486
0,741408166374974
0,720100313901461
0,759221606743917
0,699682635431905
0,797974971678599
0,746695857569981
0,773979807572694
0,720548961261384
0,786804820019433
0,715920383698726
0,781432114017528
0,795919772593296
0,841049611876515
0,751362228546585
0,827521907981533
0,782817685286098
0,865349563126928
0,784217277609997
0,831197647977654
0,77400322958461
0,850076614952379
0,798831367418456
0,859860490746294
0,802129459953893
0,856129585552693
0,778896597648454
0,840446343404902
0,838260160272494
0,853671640200309
0,810966978790303
0,825680694408679
0,830472184335389
0,915131859465573
0,833578497993636
0,914898114345499
0,881027886111508
0,895020833515759
0,861669553797659
0,910212971717862
0,935310953027863
0,918558883529724
0,827434021448272
0,966908737442847
0,891489332727793
0,939550407971191
0,909692701766179
1,00265732298561
0,979923765047375
1,03714206561341
0,896382467553364
0,970225671282491
0,889598913616403
0,97511446978044
0,981219522175685
1,11437479776539
0,975245712552474
1,0423536473018
0,969698540871368
1,03400955860372
0,939390301648087
1,06647266140355
0,962144578832193
1,03247991421914
0,976302808189514
1,02295334334074
0,948553664695442
1,08035732738072
1,02696956192388
1,06500461777467
0,964051934919051
1,05505117956775
1,0129256431247
1,09650702202426
1,06442509698492
1,09795876924696
1,04032892437996
1,11134962904682
1,03871332909827
1,08936317721622
1,04976260816759
1,15470211325491
1,10318466400806
1,18011684490558
1,07382316281727
1,16870288570818
1,13447857208478
1,16599528301396
1,12497921993549
1,08334688067643
1,09612346621267
1,1451910154277
1,04415335483674
1,20476813849239
1,09431748746987
1,14586384595164
1,16244289073784
1,13161348561599
1,07975420721422
1,22610379406215
1,14707510348766
1,22634630833106
1,1275758224181
1,19102215480888
1,10717415240221
1,14921658345972
1,13860937131738
1,31319142154077
1,18180035787017
1,26877406724113
1,19428380275011
1,20161499976996
1,09869882032182
1,21372743695223
1,15519280414817
1,26779245501462
1,20910396872877
1,36575748519821
1,20596631914224
1,31451528914323
1,25316645814231
1,25483120269258
1,20087732477115
1,27368739590052
1,23449959733186
1,27711404455503
1,22733927140072
1,26343238697794
1,24710595644533
1,31003577184468
1,25569043387316
1,25477147061179
1,23148946651815
1,30916197069634
1,17356605925416
1,24139829458363
1,24495262274686
1,31016332832611
1,18408861784898
1,38117345416347
1,31685633134338
1,32685298195742
1,1691990999468
1,44085415698638
1,37634944996813
1,33090029501239
1,22251962957542
1,41576633855602
1,22292136656301
1,27026239011948
1,23248538653181
1,36246396183096
1,26150712741227
1,31029614689524
1,25387694479881
1,33532145111131
1,27513951021403
1,37702015138517
1,26639905234979
1,37624957871637
1,3502348220855
1,25608331085393
1,20857050934954
1,41511393728001
1,35058492235871
1,29822544885864
1,25333037370443
1,44148351802065
1,30889584601183
1,39178790602569
1,21262366502726
1,30494276763154
1,24576159136579
1,34514782837621
1,27252418367566
1,4305923407042
1,35662161306847
1,40389723032809
1,27372609119855
1,39267152757886
1,31109824872303
1,36629579096753
1,33384232415739
1,36737547087596
1,31182539621864
1,31849300590234
1,28154609469958
1,41205535903536
1,39751397317387
1,41498987602003
1,30498852395655
1,35533791051629
1,28180586800294
1,40048170779129
1,27733067885247
1,40803820531431
1,25367256941185
1,35839528533826
1,29326697167392
1,32291461468813
1,28221698890817
1,31031238527163
1,24469408787702
1,34629717890856
1,29028640646612
1,33558043678445
1,27608581682498
1,33600059658574
1,35277461265604
1,34159124010478
1,27792834159942
1,41640426543575
1,3048543523751
1,34464429360487
1,30965971623259
1,38994463160566
1,30938464866715
1,31042625546875
1,26758389562289
1,37931644729366
1,33185946808026
1,40097056115223
1,34089255016642
1,33028222680189
1,29466060281186
1,41748021501799
1,30209059886916
1,40464651573168
1,32299160580439
1,35280306337501
1,29377721355027
1,27670294794742
1,27847470130933
1,3201605377978
1,31948102237228
1,4282498818181
1,32015047295377
1,36383841813952
1,24756209639458
1,35514060168053
1,25638806150502
1,37794866363958
1,30337345517452
1,28452831651148
1,28905822677318
1,28265597200045
1,27775266164957
1,30785765129956
1,27855942079785
1,33962826486616
1,27833193201663
1,27814690742198
1,24244859738707
1,32262291819348
1,25024183732288
1,30929442090691
1,26568479282002
1,2620455719362
1,27951265968115
1,34451954645371
1,261046881011
1,27133316303375
1,29814100339372
1,38485579337025
1,24471061286606
1,27330103718611
1,29739678945959
1,32539982137996
1,23711754274944
1,292862331335
1,23901645490963
1,3087344105659
1,27735938111031
1,32895086637389
1,23802609243379
1,23731718793671
1,25361245894526
1,24792956119491
1,24212769195928
1,35999880456929
1,23255097003658
1,21690813277507
1,23603154002524
1,26605018508044
1,16450035110281
1,26017885866274
1,18039779336582
1,22628583167073
1,20558945992497
1,18804677420931
1,15712019903483
1,15506409757221
1,14969610602449
1,23206517398811
1,22294319150106
1,19779190602378
1,14900836126527
1,16911836319568
1,12131630277215
1,1583017138254
1,1671691636966
1,17950913164326
1,11216484487898
1,16458146021434
1,16621631415551
1,24102648653923
1,17517983723014
1,17981185090184
1,16446970178661
1,16094283329703
1,14344672716635
1,12768648275644
1,08389004575091
1,12615894111603
1,08300883711135
1,09755427077137
1,08027764465852
1,10690438491529
1,06234666128622
1,11193086406657
1,07216024685834
1,08335239730704
1,06310885636555
1,12877808537531
1,03253892643991
1,08391392730796
1,04487667125923
1,0314992532694
1,04891574475806
1,06871376818329
1,03850961010882
1,03915780309105
1,0294206761876
1,06399470080895
1,01530390231844
1,03800981327266
0,993128844172244
1,00850153393291
0,961549762608128
1,00054203789267
0,990823833670337
1,00114634207582
0,980569927654402
0,97776205939611
0,961529384886753
0,996317963931338
0,973432341540069
0,974240771531765
0,953813244740055
0,984277248470706
0,949194536206233
0,978005764364745
0,939691728980976
0,944064836972008
0,956641657234774
0,942513191622086
0,902502256439439
0,929779478925011
0,927493776102424
0,8978500231161
0,887433187375208
0,942400264504584
0,88047470885013
0,904935895108486
0,898539679864712
0,895266738771583
0,868624743513364
0,888280389679025
0,86462453446655
0,862239651484461
0,840254363768262
0,859518321852191
0,833210427746653
0,849499810417909
0,847117248498979
0,844239515771978
0,842281962372192
0,852846976767199
0,81931144378401
0,839092279644656
0,803590330858775
0,814930535337507
0,796078604823922
0,790552818362896
0,793152708639595
0,803357136199356
0,789496997522116
0,815436130312758
0,785992821660476
0,781643952069824
0,780614258848974
0,802570728110041
0,771531253228224
0,772443506364275
0,751649340933099
0,746713949898052
0,744767642600835
0,75296242693306
0,732023157761207
0,74561045014379
0,738328151887591
0,734802491582683
0,702567253588666
0,727314657673057
0,705492240196419
0,698141996325774
0,702439732976697
0,714128364416164
0,695688179796571
0,695594934618928
0,68015785306062
0,690319902006081
0,684474032878956
0,68580254211344
0,677411867602696
0,681557786947067
0,662849299782975
0,665222773404315
0,658184799770638
0,662544238141199
0,643756895755546
0,659128051013455
0,644515057972874
0,655979993332419
0,645466597515282
0,645030276962274
0,625260216109818
0,633601698409669
0,615927482139077
0,620631955621175
0,621419271144577
0,621072049725201
0,607324252070432
0,612777659992439
0,601334543188403
0,604154019964573
0,580837296536271
0,599912153938444
0,591045314913401
0,596090241377997
0,588232530454494
0,588247331081294
0,569601118960631
0,576667001889902
0,56645691042501
0,562176279067855
0,559753551762431
0,55614406523155
0,551300017916618
0,545040683350846
0,549406371504866
0,566498595800513
0,55712339272995
0,552840752786607
0,54456910464219
0,534957145632118
0,521855917762535
0,535941539596651
0,523204779539485
0,534957234151814
0,522774543881967
0,513697902704248
0,515473691976856
0,522418964209457
0,512550294402446
0,51659835846385
0,50034831925996
0,504805982654438
0,499044531048438
0,500176288840669
0,484452419250714
0,490140959384642
0,482982381782228
0,492349506263807
0,476254765236406
0,486941816188555
0,476462589785476
0,46880152711566
0,476051829750852
0,473717123880057
0,458927450521066
0,476419451935899
0,463470844719912
0,461930773387173
0,447978874986768
0,450630931538068
0,445809347712347
0,452402528251425
0,445425690889179
0,447008822926166
0,439707658438427
0,440037055150772
0,441319711145736
0,44195099997539
0,429931513440648
0,432011078160573
0,422399008462122
0,424640488725315
0,416976677035624
0,420610782331114
0,412318505781354
0,421411008203823
0,412824014556558
0,41235047472148
0,401078733322541
0,411113920302714
0,412672025448119
0,408551087634462
0,403839223787628
0,398633455940083
0,39620469863151
0,394456865484343
0,388890175255076
0,389292607361976
0,379772013632499
0,38101254966285
0,380910442240974
0,389346130738894
0,386502879123654
0,384585402894126
0,38078800891885
0,374323403760785
0,372505957155413
0,381374740580823
0,374090898158855
0,380051967816153
0,374871640073457
0,367180928039164
0,3702192885215
0,376277610559715
0,368067573417098
0,3683935430555
0,367116074261352
0,370908353435596
0,359751220621857
0,36216581571886
0,367178610301818
0,361929885652296
0,359469133671728
0,371143573769876
0,367620802431717
0,363183858129496
0,362576616494386
0,36109280193322
0,361382270676527
0,363792778820748
0,365817154007289
0,373991368748993
0,371803662257918
0,369699957919935
0,366103386244394
0,372900900195343
0,372178658549335
0,37977622420267
0,37456484304908
0,379824513176247
0,380823195287692
0,381387239837558
0,380757191548548
0,389799090489534
0,385203626107269
0,39243939845466
0,392277754077359
0,396489045557395
0,399194930308782
0,398367380074393
0,402473685543645
0,401878240111627
0,390914282430274
0,40461599274168
0,405296291590057
0,409565859742017
0,409092346368301
0,412008762364908
0,413797281129821
0,421388024591908
0,420203760644686
0,429055989323763
0,435991166733826
0,436987733572837
0,432934512603546
0,435466015467284
0,443647266522317
0,451889388162616
0,445717815221955
0,458710740182429
0,454125247492709
0,457519094830896
0,460156732234332
0,474732328170959
0,472907965092467
0,477196949887783
0,490091790917721
0,496695289315497
0,495593693726478
0,50013873263088
0,498434909687031
0,514586905921126
0,515652055570769
0,526714610794619
0,530102496228059
0,535819351421838
0,537486207154795
0,543088342795189
0,552563665630109
0,553622864940136
0,555762301221433
0,556337930432187
0,547700163274561
0,558173632864591
0,555848310954094
0,555102796197702
0,566883132671436
0,568275786614983
0,553628274692346
0,572221148488008
0,569273682502418
0,565064643901426
0,561356403959654
0,557712596881139
0,556938388662952
0,563643032202812
0,555134421870677
0,557038090424036
0,557507674834039
0,553588672888389
0,549504493495072
0,549030902964626
0,539606356323069
0,541447418775467
0,544496600991451
0,55030116440361
0,53587088268861
0,532725309267875
0,53915202149125
0,532447617871128
0,526277740462864
0,535098057280758
0,529264082917786
0,52690130889682
0,525275347850752
0,528160928506263
0,528252231341202
0,524380253586895
0,515630650453893
0,525381691971515
0,526815772257475
0,533706818903208
0,5312161468454
0,522342098965465
0,520535522927196
0,522140547808711
0,512696726784643
0,513060920167354
0,512965263808379
0,516757269171842
0,515119476254402
0,515705634237784
0,509772328149365
0,51518159897328
0,513435304519978
0,508324292530751
0,506879650975095
0,504036469618109
0,499437662275429
0,498626487727024
0,49133262720263
0,490740869621112
0,486284861852316
0,488758776236744
0,475789070646471
0,47733591270282
0,480194325457261
0,474054492526849
0,470434097359092
0,459760206291589
0,460064149475061
0,459539005027345
0,454453062486348
0,451689920722582
0,443724712177458
0,447985434284376
0,436748235274584
0,437103626370463
0,435487104074356
0,433077396577955
0,431672801007262
0,426033657717992
0,415049890773507
0,414891069512107
0,411557275988604
0,410959795196588
0,407435580224034
0,400085621058395
0,397993560771907
0,398956162892445
0,387666797886613
0,385951011165447
0,388505085197656
0,384256186958049
0,382157382578094
0,381584292020042
0,375488194681653
0,369812587845892
0,365203309930386
0,369313536450249
0,372128842314655
0,369404908245842
0,359938026342944
0,360032457670508
0,355763579937904
0,357665750751497
0,359305920011892
0,346295522112561
0,346662748869602
0,34748279733013
0,344385759743184
0,349958396362554
0,344393182036327
0,343498842649653
0,34187021455278
0,343072986765916
0,341591699436533
0,336156527775148
0,331324721524915
0,32602378438543
0,327050171482845
0,325227925371748
0,325516089530611
0,324095475893405
0,31570215753611
0,322789053782517
0,320905194932194
0,316856406095439
0,314119271112695
0,313284603825272
0,3104050248787
0,311330615185828
0,30707263554251
0,307665491085647
0,307615176822241
0,30362442695185
0,304374924252518
0,303596669983272
0,301552577527937
0,298076065782713
0,300736798352261
0,29945194974217
0,291663897425219
0,294406598621164
0,293428617601963
0,287982723285912
0,290466572438715
0,291340789621917
0,289321289548878
0,289954167128234
0,285648936980921
0,28532027275744
0,285112766267862
0,28627106218576
0,284028898996156
0,278793333019516
0,276838445787398
0,281586830086741
0,275962640366068
0,275466426040153
0,275986119023034
0,277069153586964
0,275858594475891
0,272191288892713
0,274740776476211
0,275107716127788
0,269464364518616
0,272412358533209
0,274059498771728
0,269512786173467
0,266384874226419
0,268547863114543
0,268702614192129
0,267550217925479
0,266997857863115
0,26707111996717
0,268991104781413
0,26727954950267
0,262107540582241
0,263134052293837
0,263374043489068
0,262613053430131
0,258906799392663
0,263255850455898
0,261535114012258
0,257827011399928
0,260624964070302
0,260914511958614
0,256877827525204
0,258570679076833
0,259268164557385
0,256376726194328
0,251906511005014
0,248858287229668
0,251984612307758
0,251438074826579
0,248119807943198
0,250587246018911
0,248188468757382
0,251297698246476
0,252166364002233
0,24937557446918
0,249371411038553
0,247308849547751
0,245024645394691
0,240875565220764
0,245182362968388
0,245825940116742
0,246333306517863
0,247557068181312
0,246374945987542
0,246205694771626
0,243953027886178
0,239367201686906
0,235581541942065
0,238867961403211
0,240914206438159
0,23830661888057
0,239554168683751
0,237035901282371
0,238474606122521
0,239731777016954
0,23938409424942
0,23832770973386
0,237674639587119
0,237205280085577
0,24001020819211
0,236094159944137
0,236035324924365
0,234455813157022
0,23346993428445
0,236114902297395
0,239682313634306
0,235459536663646
0,233966013520534
0,236930073257647
0,230759274136807
0,230878226270568
0,228440956789985
0,22582006546479
0,227890866408374
0,230241595448607
0,229937097583555
0,227837815601939
0,225724545293868
0,225822314066336
0,225698076319688
0,22761997089902
0,226957385487828
0,22439404876884
0,22346246364722
0,221335614745777
0,221153235228602
0,21873846907455
0,218732172098206
0,219259191248789
0,219198709909529
0,214855652669244
0,219406215270875
0,217706382007271
0,217856960365569
0,217589205445243
0,216983768423828
0,215518877325173
0,213861135353174
0,214545156475607
0,215472894284858
0,211029694071668
0,212074313656449
0,213631990631776
0,210577430636939
0,210068017957971
0,209811549210025
0,209639430799663
0,204961014670693
0,206124069492489
0,205738982706117
0,20417993435669
0,207004428555867
0,203161481281835
0,207644992984924
0,204452209091549
0,203251447898152
0,203942265479877
0,203039053444801
0,200304670904492
0,20335449399801
0,198151725767916
0,198717320064449
0,197692226796145
0,19581700387044
0,196424338988505
0,196437254510623
0,197215698507657
0,196923638490068
0,191318923268584
0,193784408294076
0,193229915832485
0,191026760458761
0,188689170886554
0,190606581461278
0,193159717679658
0,189430251654459
0,186895380559652
0,188699563188195
0,184193464663854
0,186949767836495
0,183723851791056
0,183039895109221
0,180217248644031
0,181079750527798
0,182142301679421
0,177189011033953
0,17677228810444
0,176948387876908
0,180341571771624
0,179194844284514
0,174135799754632
0,176464898836693
0,174490183936574
0,176232199131054
0,173336775317409
0,171537674775903
0,167868435405107
0,166449932719546
0,169275597346543
0,168517029539659
0,164464235230505
0,16585417016627
0,166020552973125
0,166361780927109
0,164986710318221
0,161708346399367
0,159756080455142
0,161114088115089
0,157904183924627
0,160582517284951
0,156361668045469
0,158443376555588
0,159279324702386
0,160345078979221
0,156765283615094
0,156321685083032
0,155679442966339
0,157004011163502
0,155792622784464
0,151713064420976
0,151660697828863
0,156819660335304
0,154717101249129
0,152717577722877
0,151820293325939
0,153939158595112
0,151250442198686
0,148205302030597
0,149912233024215
0,151909436373437
0,150662239588688
0,149770085970146
0,14919636411202
0,151487884922526
0,149459465789851
0,150881466459895
0,144902856787809
0,147151539842113
0,146380048755721
0,145668192114401
0,143352243995686
0,144199460381764
0,142086242144854
0,144556549502259
0,142645376370863
0,143892079381387
0,139995365004042
0,13934366695704
0,140358056353178
0,139772428180974
0,140548991533896
0,143435340523506
0,142175490616841
0,138681235200718
0,140122104274169
0,141184176152881
0,13730465892924
0,137980070799036
0,138246729998143
0,138397474026564
0,139586654626267
0,137647096536374
0,133639757339538
0,136474805115603
0,135334246219535
0,134249687598851
0,134416902269504
0,134201860914646
0,131855552211118
0,135891929246426
0,136594073093724
0,136045254569346
0,132247633003091
0,132125111212706
0,132560429732941
0,13380150548139
0,133109326655393
0,1336804868865
0,130944746503819
0,130936464276753
0,127088303672491
0,131296345676481
0,129432660165809
0,132469855665115
0,134800842066347
0,132819115244816
0,132121166441487
0,130443515629298
0,130336949333824
0,13360247152762
0,130526080739574
0,128866245775938
0,125982920411434
0,12879968680582
0,127782901223798
0,130088993147238
0,129620910859657
0,129481840648745
0,124018124973321
0,126525480993935
0,126398356272317
0,127630927863348
0,126136029137077
0,126981454720414
0,125592573739731
0,124855742552058
0,123437674080426
0,12361309940719
0,122046814129512
0,124130452654335
0,120979183354876
0,119721301327438
0,118318404538391
0,121187631252488
0,121801655823557
0,121468113014579
0,121249954631643
0,118140134779214
0,117597956743665
0,118383510733706
0,118324400937612
0,121787708433456
0,116082128096477
0,119147273762283
0,116184498885711
0,115249349093053
0,114282759130327
0,115386492213688
0,115823968063412
0,117566905156927
0,117779669218971
0,11730753029903
0,11508841023038
0,11571655256022
0,112392706667204
0,113696171545795
0,115641675184342
0,115876522569099
0,114072529075411
0,114423349585035
0,11382168678024
0,116825476848521
0,112928708562253
0,113071708179114
0,113665626987805
0,117249378831507
0,116366391951837
0,11422085276137
0,113289765176522
0,115186798843021
0,109013861662171
0,11246790590401
0,112011536783388
0,11338239454719
0,109117712547036
0,112557464729227
0,113297649119016
0,111337583168085
0,106441435917762
0,108649437194136
0,108628009707204
0,108449921265592
0,106200131498636
0,108400004170807
0,107698524638783
0,109079697771813
0,106427474401928
0,106848264945939
0,104899437605511
0,106243290462241
0,104994776942926
0,106743416515002
0,105070344009412
0,10418673896881
0,104649749275763
0,104068053796858
0,101622921278102
0,103684222329326
0,10051217477926
0,0991959889642558
0,0969207935281536
0,10037555320628
0,0998133395874622
0,098870513668037
0,099027350932684
0,100487809968118
0,0961105380513961
0,0975765577598216
0,0968569864693302
0,0983038568726352
0,0951085579013249
0,0985743443392591
0,0948905245687767
0,0959107207575839
0,0968588832208939
0,0957415314893509
0,093625539961477
0,0980062208709872
0,096280564945067
0,0958286977003476
0,0911890313436137
0,0961077876501196
0,0922664494179275
0,0930091408452652
0,0925082506726774
0,0925443215703301
0,0885330503261733
0,0918741440380645
0,0922738417250886
0,0928738123116117
0,091714914088453
0,0920270086700777
0,0878358935928594
0,0885160344745485
0,0868763743298495
0,0881236438351266
0,0895134872893671
0,0898514835113654
0,0870917625805875
0,0878977423575337
0,0851287606473892
0,0874275052018853
0,0839106438480924
0,0867838951589301
0,0859711770901647
0,0863148892261147
0,0862513122718072
0,0868842058891669
0,0831597411014402
0,0834296396369721
0,0816922472288509
0,0827006938281124
0,0829251896961519
0,0827500317305698
0,0811344665683168
0,0833661448986608
0,0804863643072556
0,0806696684567978
0,0796684709405198
0,0786619621534389
0,0753811856919217
0,0781238607121108
0,0804228646406432
0,080712760796761
0,0763152148503428
0,0801276514721052
0,0766640474719158
0,0799312060094062
0,0778354512769505
0,0795747112332106
0,0766724443670611
0,0762351528259198
0,0757281656739238
0,0786077951670165
0,0760304222710601
0,0780314474151101
0,077043171249201
0,0777814810141133
0,0776838551169767
0,076640161415097
0,0741115685017939
0,0761158495254309
0,0777650162288707
0,0801255841908474
0,0785551080686455
0,0780821372531711
0,0751984675171015
0,0805045194896531
0,078027268756524
0,0770761531377525
0,0749270573460829
0,0805195150079254
0,0780087876198299
0,0802899673287807
0,0775631542176522
0,0819841099345944
0,0790433314758009
0,0790499961604864
0,0779309263461544
0,0781963382660014
0,0758284887971854
0,0806989307662899
0,083741560137055
0,0792739674357359
0,0702146335530021
0,0765586760997337
0,0734890622768127
0,0743823104770838
0,0711291812503914
0,0743655021759335
0,0737224772379695
0,0759133836668583
0,0723010335038825
0,0824617556215369
0,0738019631268158
0,0778917739603474
0,0709925122311024
0,0768730282738836
0,0744289374159283
0,0791822135296552
0,0755623920168499
0,0745007382210895
0,0705952924999866
0,0738853332747416
0,072866579822444
0,0749756559059646
0,0684278886072851
0,0785244479323243
0,0658824305004354
0,0737087865141783
0,0661890358219999
0,0779403124147353
0,066420147150149
0,0748681657168051
0,059891800940056
0,0762410448370711
0,0618862254205079
0,081270813301986
0,0611337381919424
0,0898943905238718
0,0571040470565312
0,0847902474482908
0,0577691421005187
0,0939165076454613
0,0582362930366062
0,0950048892188127
0,0519444528313862
0,0956779838826553
0,0469357222300043
0,103491747432181
0,0495816259178255
0,0963023036278651
0,0537201245666597
0,096339435249965
0,0536883044673158
0,0866171001359052
0,0638048322098544
0,0827838910489245
0,0701290833234911
0,07352493336556
0,0763581407682634
0,0648809976686615
0,0796866304962404
0,0644152651697225
0,0789726821962293
0,0664832192705422
0,0734736507921875
0,066910492223015
0,0702303793060644
0,0746740501563544
0,0665973231961497
0,0720337840820707
0,0662845049465237
0,0692341267207399
0,0656388966393342
0,0667938761623234
0,0686518821457088
0,06686554185535
0,0660095393835418
0,0668989292718977
0,063903188367095
0,0656982168142758
0,0639676453059474
0,0661076398870529
0,0663764437070258
0,0675770567894186
0,0659655149711063
0,0669350109850843
0,0648625117823328
0,0642950630595558
0,0618056837946827
0,0673972082300062
0,0654094141818694
0,0652227379086023
0,0645199957882328
0,064867118117518
0,0644573154810242
0,0648473959174627
0,0631082793819187
0,0667770856376499
0,0639247476372374
0,0658317120292293
0,0641769813391733
0,0648616203697079
0,0641566350875444
0,0671852868024447
0,0662244083088438
0,0661360218740518
0,0663267849117932
0,0663458085272166
0,0636014784156777
0,0673474203689578
0,0656400485991617
0,0692307083062066
0,0653927264599804
0,0665966043385149
0,0646270063904645
0,0669745219049485
0,0658692325626292
0,067401558584431
0,0671345664902275
0,066481792525256
0,0640093275459139
0,0649465890119642
0,0654066439460129
0,0671121742635747
0,0663891112276566
0,0658548306853831
0,0667139826331089
0,0677061372772115
0,0655256539271453
0,0660180110531172
0,06539111123837
0,0659461819563337
0,064813405733368
0,0680493159036614
0,0652383797480625
0,0661925930293763
0,067673710738506
0,0659781241829709
0,066239421271647
0,0643162432662994
0,0631183714709528
0,064107521818696
0,0663684729611953
0,0693040209894723
0,0650492820123202
0,067797495628706
0,0640515135975358
0,066190194785449
0,0672438177714762
0,0655402252685474
0,0663635951064116
0,0698861014826425
0,067289504233637
0,064771126341765
0,067644813079496
0,0694193939069295
0,066852504714446
0,0680339042772409
0,0681377628551245
0,0683750195902074
0,0683913322582388
0,0688067719575725
0,0659738493803906
0,0683147383972781
0,0674155418206714
0,071012259217436
0,06719644175349
0,0704983631771702
0,0684497169574572
0,0702353349936991
0,0670003911058375
0,0701828122739317
0,0681242350797619
0,0699257806547051
0,0682064013086006
0,0685546381693776
0,0700555087130649
0,0741353518907329
0,0722323668703653
0,0726637606058807
0,0703445876611933
0,0705363217809713
0,0698800759659215
0,0725275722100713
0,072236325477684
0,072821901216244
0,0692757440403334
0,0715773867521503
0,0685694822490277
0,0735889806362981
0,0701706514533955
0,0718565617611077
0,0695364897709077
0,0746157407256549
0,0718985937852743
0,0737721964852513
0,0708303890326773
0,0726154215486205
0,0720234018209907
0,0731227873850196
0,0702747004096173
0,0729682653364443
0,0712062223628586
0,0745343502368215
0,0741496856861176
0,0731619611255827
0,0705655330914629
0,0727486898656025
0,072864595957938
0,0751731525024338
0,074568130802169
0,0730095250199104
0,0702341139809513
0,0738991608370985
0,0752069833890012
0,0773074515932034
0,0731260248499574
0,0757700659587855
0,0741429039778853
0,0775173775620951
0,0753892572650123
0,0755406766683881
0,0768324381053329
0,0785797085252885
0,0743929062072386
0,076212818533518
0,0749999764558307
0,0778941869152116
0,0756689539758146
0,0761392520920382
0,074815512904101
0,0803726403744162
0,0777558162256939
0,0757384075149349
0,0747187744515143
0,0774630606775991
0,0763644332910978
0,0761896718635038
0,0744410350216037
0,0776731899225707
0,0747799631133215
0,0783274833916862
0,0756441732007276
0,0777420150224103
0,0766181146406707
0,0782750048126461
0,0738850560849437
0,0765953884070978
0,0747986824321972
0,0759098070451611
0,073642187477734
0,075236688494655
0,0741818129888783
0,0748379716135644
0,0714265023261209
0,0734568827505341
0,072905708510843
0,0733998049662344
0,0741885628758071
0,0748347383901305
0,0718153157957333
0,0737422607664801
0,0723996074335117
0,0729792713472468
0,0725899047360036
0,0759514842727275
0,0709070490533164
0,073211546439657
0,0723420318522546
0,0758431860544766
0,0715073914049147
0,0737436062035684
0,0710624946022908
0,072577547933427
0,0736838779227849
0,0746081114483051
0,0725779347397235
0,0768036605556112
0,0741303128925313
0,0742919273875636
0,0712760304991277
0,0719661108178055
0,0734540553694788
0,0744289760289771
0,0706253662938987
0,0735519840525653
0,0720429432770003
0,0710168714408671
0,069402557079585
0,0741367182597658
0,0703217577936952
0,0735520937307088
0,0723697211535094
0,0743483616959048
0,0711725411939671
0,0707016112796533
0,0705968631740486
0,0732440394189807
0,072274002327088
0,0755106905164003
0,0712586191280189
0,071842021247705
0,0719640987380837
0,0721077432857139
0,0701307006366963
0,0736401546466334
0,0703550291798323
0,071399488989947
0,0730104326499687
0,0721764688782949
0,0713797658314604
0,0736632475160304
0,0696488380818794
0,0720750042753573
0,0719456358134359
0,0739445409613246
0,0687717299792882
0,0708927536028634
0,0691211788328205
0,0722627089035762
0,072954938873695
0,0723942074530419
0,0709812473115796
0,0689402112920329
0,0728117075282001
0,0737734868876617
0,0694003478564267
0,0721739950049821
0,0717759349043747
0,0733790158523364
0,0696750223044286
0,0732798008567904
0,071114208816659
0,0731694724740104
0,0684432581853589
0,0706670215337031
0,0671200367145756
0,0713392958757679
0,069759133172065
0,0713566078657841
0,0691097483355137
0,0725337966866735
0,0672635465114479
0,0702522735311863
0,0687120954470782
0,0716533910563642
0,067327833846777
0,0712030651009341
0,0643552673705818
0,0715094307015211
0,0726849582479341
0,0699813839422444
0,0676489705641816
0,0707247949152234
0,0672105847434429
0,0692713810027577
0,066596018821562
0,0686280151489343
0,0666635922779719
0,0701526348596622
0,0648171705068679
0,0666030911632002
0,0647355728929077
0,0661444730587911
0,0653116439910434
0,0666321107518472
0,0622258415500962
0,0652054997352737
0,0639691689503545
0,068673763439348
0,0645445027296862
0,0648855895235564
0,0624854944683146
0,0638058067484474
0,0634688350152769
0,0620499745713844
0,0705695984169328
0,0633340570747223
0,0619452723420142
0,0618501263524392
0,059605374739411
0,06062095715643
0,0619113718845836
0,0615354196898402
0,0624259698090365
0,0607932951835905
0,0595826252700537
0,0591366868429529
0,0574466709472328
0,0571224571130069
0,0603398132403898
0,0604926550798831
0,0582618668345229
0,0592893991295337
0,0571677394986347
0,0567164361963107
0,057580594403758
0,0593580877744793
0,0581170182614163
0,058027580697545
0,0593900550021057
0,0547865356457414
0,0640646707268065
0,0685633753749752
0,0589610300433777
0,0587591970278563
0,0574955640398976
0,0618691279161319
0,0539290767872384
0,0601059462563307
0,0562616121050349
0,0591689274599722
0,0542809018712177
0,0584518536035213
0,0548324725934547
0,058987044051358
0,0539962396642153
0,0583571195992318
0,057632164964902
0,0580735696264622
0,0555007817043738
0,0583343508843329
0,0578744716160064
0,0565531424621782
0,0536846562160642
0,0589057303632048
0,0569583020245866
0,0576903882141796
0,0538970297100812
0,0680299599536181
0,0577210754574318
0,0618656621190465
0,0549557050681852
0,0562790716824194
0,0550865994260065
0,0568695018804634
0,0532892362161432
0,0554131285291681
0,0542753981427549
0,0585569436335594
0,0535125848965099
0,0557105221261617
0,05439777162075
0,0582277357457519
0,0536186092621321
0,0565206357652479
0,0540625592547699
0,0578105676254748
0,0507546648116899
0,0578276747007048
0,0505716022295354
0,0569574788891257
0,0553254823951235
0,0610473988058705
0,0491576278353779
0,0628721297163313
0,0748142807905817
0,0574811773883924
0,0582850141794757
0,0549378767818083
0,0563787216577783
0,052234975885835
0,053543944146328
0,0537809953552021
0,0549343748064692
0,0542274222073929
0,0570771242202363
0,054059280987275
0,0544240528298929
0,0522366269004784
0,0548793319965026
0,0561586925144822
0,055337723554988
0,0559137712357258
0,0551223807426159
0,0521625953740969
0,0586917532315322
0,0707998164301728
0,0587220688562692
0,0584989202326527
0,05703706075952
0,050001798362346
0,0816508602721074
0,0570537934038774
0,0607943923309252
0,0524201291451363
0,0555767605430245
0,0519332168211601
0,0554969434660845
0,0505295452761032
0,0533658109569221
0,0621293696201055
0,0545811854773953
0,0617638446172205
0,0521662376983865
0,053208330213138
0,0526526786466405
0,0546314983858744
0,0533342174731611
0,0551347428268448
0,0543295219910704
0,0510738803687275
0,0507701967132212
0,0524670718486136
0,0549428498933417
0,0479046533916495
0,0567379643726922
0,0593873549426709
0,0532459789735382
0,0514677330637417
0,0536648362375034
0,046793673013049
0,0605352119243194
0,0779870271639383
0,0523566902437049
0,0581930816408445
0,0480843953273086
0,0555306382922834
0,0504489994104264
0,0573652875064004
0,0499927812169455
0,0536139122456933
0,0490135045858177
0,0563590084635142
0,0496974744489674
0,0545292450619552
0,0494988183743179
0,0532637442680325
0,0510924373560518
0,0547239282669641
0,0525296827331034
0,0522354517648486
0,0562293969067709
0,0524935669298403
0,0686034197958508
0,0745375066282346
0,0693605333366681
0,067739328433149
0,0595808044328202
0,0577860693462334
0,0533553633768468
0,0542395441456788
0,049444843213215
0,0556424981050561
0,0504225013757522
0,0571795150354159
0,052682724613788
0,0552607926443006
0,0492497737863925
0,054281094837944
0,047912047709921
0,0579351732860652
0,049319765911753
0,0559254201280417
0,0449905819496953
0,058504754886516
0,0436544901852024
0,0685749896944103
0,0526083396998924
0,0666627918160659
0,0377372542584358
0,0957149682278034
0,0718428493380926
0,0615135763255017
0,0585255540376846
0,0523373414244653
0,0537423751050548
0,0507098036158804
0,0544713931840352
0,0625697824542313
0,0514143632013658
0,0524577619357985
0,0512685642426839
0,0540190768601413
0,055132969053842
0,0489608136103592
0,0610600747230495
0,0903320570585939
0,0582352479522054
0,0641161209010742
0,0461695910838075
0,0615222807978243
0,0836587787907551
0,053383861314859
0,0615854010483731
0,0531558561140417
0,054581031137753
0,0534079561457981
0,0532535638097031
0,0518998740059739
0,0583033198270824
0,0599210471758441
0,0548601262300852
0,0566515367051563
0,0475431697747902
0,0591500812304877
0,0510158656975472
0,0687880321817061
0,0663894001990051
0,0550099166205646
0,0614494654954116
0,0599165727863756
0,0543314826993188
0,056152727486129
0,0560264992730674
0,0546679154678798
0,0673787725831855
0,0744108768447743
0,0562423893101701
0,0752284090755054
0,0673405579942301
0,0548404747131893
0,0626202466107501
0,063792792345968
0,0730234481487044
0,0438068914481711
0,0723549090843865
0,0880131161316454
0,0708166809364556
0,0891584693039898
0,054865892853461
0,0691543652449734
0,0469362487560558
0,0646148592560857
0,0425165425553876
0,0887676321501264
0,0498418213517851
0,0718403841784215
0,0480117718377758
0,0815407740001272
0,0677800825621763
0,0674448482204826
0,0582570818336054
0,0661578728920784
0,0527182322232695
0,0821315347071982
0,0575210197519577
0,0547581459462261
0,0981531614264211
0,0888878596158244
0,093536354244731
0,0681744405409089
0,0575779842583501
0,111624276501162
0,059830552978301
0,0749568499349426
0,0550824432683305
0,0736105362088779
0,0547995028788243
0,0680663363261996
0,101150833461829
0,071949758448702
0,0636557225207733
0,0751057479917744
0,0560812935988565
0,0985764722134359
0,0684772581940444
0,0705511852183703
0,0606686930955369
0,0783186281366049
0,0504264398787866
0,137564857509266
0,0765567392084118
0,0954368489222116
0,097847740861418
0,0934718383239557
0,0887682441950336
0,0826709921944302
0,074070887481143
0,0936743284337668
0,0978440309788847
0,0821378809677837
0,0640415097194013
0,10052821193277
0,110184743100128
0,0756218416171162
0,0905539266437964
0,0713174826999307
0,0744501086169283
0,115038487184634
0,141158491746212
0,118194581365268
0,0865304484234228
0,0834830549937876
0,112540754185976
0,0851033906968807
0,0856654785711251
0,0834729116432124
0,0827114269171124
0,0829303245183747
0,0798209500272696
0,104686228557989
0,0861542369818018
0,0982982763318803
0,0865171966167009
0,0895119534137336
0,109749754185402
0,149984148088046
0,13688990222303
0,100956081484201
0,148721118904441
0,116826994462445
0,112655837608727
0,100863113559191
0,100226472067271
0,117912075942605
0,109763842905091
0,107648777433911
0,0998520307509995
0,140997556485254
0,118526505892711
0,132069453372525
0,144555018924698
0,117544583760691
0,129975137956142
0,108840325317156
0,362635750951693
0,139512392778073
0,165619345614444
0,134995551999753
0,171509157487773
0,222695419795738
0,159614153031743
0,154512917099619
0,156986957821055
0,150438990777293
0,170012255416269
0,176098102037039
0,182122059919306
0,195585198402743
0,187674500855178
0,173607562463656
0,22303995835758
0,271009093219878
0,279133499570651
0,226085580488581
0,210887760193771
0,235000246894819
0,235573704728761
0,219631296130289
0,238347818392461
0,224101780638103
0,248404618791051
0,30557470232332
0,254489083830093
0,262144957955339
0,26056437811412
0,308062844409011
0,252085144394916
0,353876992025706
0,301298992250674
0,301366344268548
0,286782626155949
0,298123970385992
0,298887179537361
0,298994354263976
0,355150528261854
0,327935969055284
0,325568540707731
0,327853551292864
0,319585234196936
0,333289553128195
0,333188616420493
0,341709246233138
0,33814758799645
0,405864467040549
0,364401772025985
0,563489896231699
0,383539470449976
0,363638009702652
0,354062510020577
0,355328563359422
0,400219708934402
0,377977557577433
0,426640117271141
0,390249802770125
0,35283328049471
0,364959764365905
0,357030807030101
0,367093789245199
0,351025937516741
0,363087893340261
0,33461745305277
0,405889304743755
0,341992978846666
0,413526500253972
0,432594433943806
0,360364338449303
0,348158052441641
0,348687095231795
0,341946478061962
0,345193760656077
0,331122295626896
0,344531771732739
0,358500904448136
0,332086472654323
0,331322897226737
0,313834249168121
0,35468317824285
0,34413514095697
0,315742835960117
0,317477341790443
0,305138028205609
0,318491905786179
0,292042773975181
0,319939809415424
0,355921276791722
0,30033012877244
0,291629910354321
0,281594119931627
0,279420451559727
0,276073508096804
0,271987900507112
0,278570640642803
0,274164615615941
0,265813266792934
0,279421476762906
0,263674786845473
0,267092491550911
0,25551445242517
0,268174736643411
0,261666746866152
0,25778395378903
0,259636956534956
0,255179184676979
0,254480758205992
0,247704013453799
0,252622647485654
0,252520580463024
0,255603318141966
0,257448101364261
0,247348085123846
0,253018382449753
0,25280522145058
0,250759875337778
0,248080304849735
0,246531924123628
0,246186827074836
0,246149873360352
0,247343499454404
0,245344283383198
0,241100292973455
0,24663645763501
0,246623478784406
0,242106412460394
0,24387823097952
0,239916503714511
0,24873744297617
0,23126575522647
0,321556149758259
0,269677816662352
0,246077531523187
0,239665510925577
0,238264623986228
0,239330567478575
0,227284058446325
0,285942648375068
0,270565203145611
0,241044809365554
0,23571551240755
0,229513693675842
0,251815852358506
0,242483771417282
0,224859539295338
0,238871486590461
0,213620564105328
0,284634841288685
0,301167276788215
0,308728745245342
0,328153485820364
0,258269532548821
0,224517830439025
0,243750406186537
0,268910416618835
0,220406966818593
0,233338656252082
0,216765703472169
0,277755224026805
0,240207949119009
0,223411412835541
0,22431640592095
0,215855053237919
0,240246735090348
0,25983443455324
0,229054493910622
0,255050283361717
0,264891500338344
0,246732443269892
0,287523902435623
0,313946023260548
0,255167847985763
0,214682030257727
0,220026795794427
0,214074734685229
0,216689847883548
0,278934660840893
0,215050485523821
0,230771187234608
0,206014836138677
0,204470149650364
0,208141256232121
0,234661041271293
0,220946448377569
0,208807002643849
0,246333575901089
0,195127415067969
0,221894544772544
0,222745758175413
0,264983084491882
0,263118714479397
0,220545823644927
0,190606896295585
0,24224780834901
0,248227698529708
0,207026303886296
0,221187650287693
0,188325546021748
0,197824931319581
0,219255457181433
0,18629606788485
0,210489660141392
0,213538389419996
0,226424015027451
0,263163651884807
0,269735465574359
0,248817016316411
0,204102743898983
0,183789957046159
0,18878832025226
0,191327687245247
0,194058983780913
0,176998324032305
0,221573375354093
0,197365927984171
0,191159188166545
0,246337187228115
0,201108010168642
0,195959503634432
0,196774585662444
0,188059644060611
0,206924018719722
0,238749300515076
0,258818499552288
0,224718018285146
0,220958747206308
0,238775797198967
0,216997988796163
0,221104780840832
0,217916695547576
0,226921785607723
0,227893727038614
0,247491287809283
0,242998513517539
0,246712836389687
0,254245956654142
0,254930031657261
0,286429530932832
0,306470140476348
0,266258964277703
0,323196064252297
0,31494571044757
0,371861215269398
0,325610776357257
0,317552366880324
0,317693426251861
0,32613676453976
0,336803273472298
0,332985857893392
0,349556484970751
0,390580759475461
0,356811191599558
0,365499060363797
0,364011851275005
0,379054068449959
0,376059621767242
0,431553833715442
0,406471047715886
0,466591920013338
0,450248817214841
0,423011334671792
0,408194745426026
0,401767111342616
0,413197611059101
0,411686327619165
0,401905777680871
0,406449378181768
0,403073976113646
0,439285969383691
0,408234021124749
0,413225982076568
0,412319918236735
0,414379306483362
0,411658420702074
0,416475778997456
0,419749910561643
0,425114565318653
0,426681633259494
0,427286691729635
0,434325297529913
0,524665719372218
0,454724023265875
0,437196505469731
0,444997060491289
0,44824033813808
0,449650466459849
0,446580831832714
0,471403030142679
0,466693055445786
0,452977711857763
0,463812071535807
0,462335278170723
0,467023099541255
0,478856670821385
0,507197782060493
0,470355704555485
0,490156910238647
0,474064242998913
0,516119354294177
0,54390955752564
0,506993582862697
0,513462154095586
0,507475185926329
0,497887075272399
0,486574479311337
0,489460757345942
0,495919415694376
0,497434749268658
0,497245019292257
0,497687060625591
0,493802034820076
0,492107179925703
0,494202786306874
0,492273498584278
0,515026808885239
0,495818366320552
0,485810549462255
0,485679513603145
0,483096269220643
0,485911631898261
0,514698831884438
0,502627351128246
0,484914036875538
0,488126130491963
0,49391445437988
0,505976024405829
0,490511850046536
0,46519561895841
0,47398032961593
0,469474431994416
0,480722540905173
0,473140348645674
0,483164075695666
0,508242830575588
0,494559273269385
0,486061831129837
0,485611661288585
0,485049848308142
0,491198582787815
0,491814975214539
0,503868696484886
0,502767573329859
0,50789417427066
0,512262377021461
0,510848546113299
0,509486939223979
0,529808395296205
0,537735099205377
0,543349684187624
0,521928106370911
0,523685468831428
0,529211011668173
0,530568087814484
0,541352264736988
0,53249884278806
0,525047003065251
0,527092400499532
0,522058984802526
0,529414391877831
0,560917651867371
0,528399027262815
0,528939433169678
0,52406215487036
0,511889920292559
0,51342647840302
0,509379282923878
0,510802199031212
0,50894267071226
0,515773541355461
0,501192020707871
0,502086922283755
0,498248206368789
0,500020096061597
0,495838890976847
0,495993186240673
0,493636786406112
0,489187242214568
0,48765364968393
0,491756227745479
0,480901153105549
0,48508124394668
0,490357235991963
0,483359694859073
0,49900161690022
0,507553352571204
0,503044701320038
0,486816298588545
0,486773902352868
0,493918907908578
0,479041532796192
0,487056224018644
0,478920897089827
0,476468485844785
0,474119233125142
0,477799194998014
0,473818101875551
0,467499397597447
0,46712234195447
0,466270882567354
0,462624482491763
0,464771936821839
0,455644918104952
0,456896423345644
0,446023568100303
0,447136563901949
0,444177016451611
0,449506887299249
0,441646254672091
0,438599774139011
0,437348649981214
0,431886019884352
0,431958504184211
0,435116193397919
0,432120498248659
0,425577747178202
0,424489124632595
0,419755815183636
0,422237410299459
0,424831280792323
0,418796781815561
0,422634496173736
0,419548466439706
0,417369319804646
0,41190283091501
0,415516412207411
0,414745926077142
0,416444207363433
0,409018098652278
0,40847083090902
0,403215848180721
0,40129528862029
0,394648780293463
0,394426021838853
0,39173826639222
0,387144401666574
0,379824719291649
0,377072358081214
0,372339077217864
0,371330179828957
0,374270545915446
0,375174777782115
0,368528444708951
0,364850441707484
0,366128005203726
0,362310236950561
0,362926420857492
0,360672222109124
0,359503702033316
0,361588078373393
0,358706563583319
0,360019418431601
0,357599772236444
0,360016276562263
0,360991119998294
0,361600901594598
0,363570546012814
0,361416131110154
0,363902162510694
0,366432425446788
0,366269184095627
0,365431226640226
0,36509179926681
0,367602570263714
0,368427650850511
0,368608548004816
0,370647937064781
0,373609529799951
0,371703974070099
0,372552802405873
0,37695980409191
0,377795857005296
0,376353560486274
0,375802349258155
0,375680209226885
0,376121960660665
0,378761780283493
0,37384608186123
0,372841493429493
0,373756240109366
0,37093065696024
0,373548553089832
0,372293617171519
0,373088722697624
0,368813652854104
0,370966812563963
0,371027473749593
0,370838934978141
0,368447349059693
0,367896417937305
0,365968847757678
0,366868243993381
0,36699457211022
0,363622598690913
0,362238040855457
0,365450794118609
0,360705952261713
0,359462927336385
0,356471768938214
0,357253697778284
0,353374471198222
0,352372922520368
0,348853285596266
0,347596618727135
0,343729571629619
0,340358273498801
0,338535612548042
0,335156724191934
0,332898966044228
0,330074532601209
0,32805622915239
0,325504972407188
0,319176361349077
0,317630680928018
0,314360701655626
0,310522898030946
0,307757805018579
0,305011114000953
0,303617817360307
0,302742254548368
0,300798272556583
0,303208295268277
0,300328336774409
0,301365506908571
0,302542122060664
0,302001583777463
0,300854905248384
0,303525331323946
0,304663562993483
0,303885035909872
0,303146604491857
0,304726896044938
0,304895617002034
0,304353619720535
0,303033534628365
0,299530813635572
0,296565677480112
0,294715311302693
0,289692139866573
0,286441050758855
0,280897420626912
0,27959871552766
0,274467164030602
0,267831251185166
0,264272593314128
0,260733259034695
0,255675017510865
0,251456363105076
0,248852890804692
0,248659678718566
0,244326240333982
0,244268621237307
0,245386730175286
0,247009399201289
0,2490937781918
0,252184797767668
0,255876411556902
0,260731555563332
0,265626844842063
0,273778474284215
0,28249995050144
0,293580373380507
0,30380202123323
0,316981334360768
0,33187426113439
0,345972613115505
0,360816003706212
0,378725567450218
0,398722699013731
0,41910244452985
0,44320717243279
0,469304951088066
0,497442551669175
0,523463846547097
0,556032330882006
0,586108946711438
0,614419167842566
0,647142219931963
0,672981048424937
0,704995272946929
0,734341899324361
0,763756405623635
0,78861929086901
0,813691175193606
0,841026468435003
0,855641509510309
0,873464024502771
0,873962874014711
0,897613179513786
0,905754071480349
0,904947511960053
0,906194422306655
0,894434421135347
0,889482774082872
0,888926752711711
0,880040436602912
0,864049485176585
0,851006305681687
0,834053513300687
0,822509236521476
0,812276150715701
0,802643410157787
0,788253878354753
0,7763367771171
0,768047832416361
0,761714832199202
0,759021763204074
0,755560777162145
0,753988533421127
0,754469868585839
0,755615927880321
0,759808330169387
0,76338876476559
0,768439224416468
0,773421986711574
0,781942436644787
0,797811815140413
0,804800835822817
0,806857459328778
0,808574419517486
0,822622995860502
0,840326887711078
0,84364797522215
0,842813582339586
0,847415507766712
0,85652315831275
0,86562841747943
0,864950969300813
0,873237604281921
0,878502926445373
0,884450036389958
0,894152591019701
0,89628904045601
0,900509394244755
0,907873580718231
0,908410450047016
0,917968400497859
0,92112618221048
0,921565875530825
0,931705535591753
0,938810461833177
0,93529565921112
0,941756641116444
0,940425159267275
0,945372608546078
0,950822424275605
0,946454243853589
0,951690385747793
0,95595717278457
0,968361335555532
0,961280717761899
0,966374193747747
0,993574345363909
1,0099762791018
1,03248434114192
1,05545243831608
1,07565885835206
1,11535982609837
1,14262209698369
1,1506846413731
1,19198188828584
1,23608637488731
1,28799320683451
1,29723095308853
1,32729496128313
1,37501126651308
1,37868801742524
1,39908387287709
1,41896112907858
1,39868672753236
1,38958364298625
1,40084833940192
1,38151532221068
1,35732807066926
1,34662560422974
1,31584131705307
1,30854804696767
1,3081364078954
1,27001014503677
1,26986694738374
1,27450386563921
1,28402692330961
1,30146617149092
1,27438766183075
1,30835739403719
1,33311020594153
1,37294232382355
1,40383078937371
1,3657618241195
1,38145014736443
1,42977653776904
1,43316951115107
1,48780176074649
1,5235437591749
1,52440148993482
1,55930600933319
1,56450991791917
1,5657879898658
1,6149039967843
1,62200122815444
1,65930674051749
1,67856443330768
1,65660580432996
1,70619480922255
1,69989993405878
1,74738395609907
1,78479872227499
1,76755269838961
1,87259497467703
1,95595629129613
1,89028152102665
1,99998069306301
1,96419450700221
1,85366606393397
2,06716411972148
2,01473945335831
2,01472580513884
2,15385744175078
2,22079413226834
2,30713727953219
2,4120690917075
2,39279674499086
2,37375710096568
2,08189884873354
2,24424184183017
2,22557133431062
2,23874542858427
2,28603888575124
2,48670396761164
2,49949543262768
2,20624100790844
2,41543881835058
2,4889401047582
2,43357270403515
2,22623117535121
2,23410570558873
2,17717233669993
2,04548803409612
2,09832576860108
2,05859914817596
2,03116858484375
2,03141203321103
2,00101225639997
1,91480305750545
1,97052656162719
2,07304599383865
1,87224720495297
1,84416314642791
1,88814467148378
1,80226982488366
1,80327634979871
1,80668839520763
1,74270704025327
1,72528558917972
1,68649532848507
1,68212739969603
1,69584109077352
1,5929101743032
1,65127638336
1,60505586206888
1,50540079377162
1,51858422458162
1,41049710696396
1,3426676678215
1,28902036752786
1,20460644134709
1,18218395816493
1,10781258398011
1,03665642902046
0,993342910689239
0,938933311371861
0,883090678430649
0,831850898528277
0,784621925000439
0,736498054906911
0,696266464203015
0,658084213406015
0,622770184309664
0,588967802851376
0,554562290711617
0,528823174173567
0,50755198502129
0,484587627400149
0,466939022352352
0,448408365945806
0,426400117914218
0,413249280741434
0,4013037079612
0,386052466951614
0,378520247061992
0,370649555109074
0,360572644169391
0,354298157203139
0,348094608737034
0,338792105442445
0,337080559845731
0,335772631020479
0,330568140523099
0,331964498377592
0,326121444709463
0,325196997832583
0,322222817075978
0,327334681548876
0,335513988634792
0,333160461663933
0,337514236865969
0,345492669776782
0,350143313888954
0,358660358366845
0,368788794501376
0,376042068538031
0,387993471825767
0,399425708036607
0,408861080756507
0,409980734046497
0,418373434563127
0,43004799409227
0,436383755329104
0,43377099294358
0,441322013829803
0,444105447478738
0,445627057769479
0,443210448801591
0,443292388857392
0,44895051475958
0,452188015715717
0,451626975915004
0,451068163823552
0,442655199265913
0,446654573452339
0,445196134677179
0,444180198858644
0,442392073576431
0,437774877582005
0,429779789445541
0,428064876563321
0,429606762602558
0,42185303806038
0,418273066250402
0,415798960112874
0,405705378076223
0,399582575550833
0,397629719755075
0,39007461599936
0,389077803642574
0,379218989109699
0,383039923175966
0,37806066756224
0,371860180301985
0,374466321464035
0,378388351524701
0,372069473432392
0,373406784007498
0,38212748488718
0,375965127758313
0,386379804407875
0,382803024318093
0,379396586965699
0,391206531127554
0,398367725723259
0,393979897453224
0,402667434132026
0,397417068119026
0,397576605818269
0,400637793585916
0,386726894156773
0,387388593390173
0,385652975291228
0,383554605597008
0,36986537137547
0,365167415036422
0,361925074363061
0,35002626095723
0,3430120971942
0,339667536864048
0,33381800677896
0,337581646042816
0,333826593382439
0,338279286883098
0,338918069181031
0,336907877690341
0,341432224124901
0,349591763326323
0,355260613776426
0,349168771677422
0,358835159896397
0,360842687982156
0,359828487304547
0,367366255659099
0,371502568667033
0,370126964565226
0,381786843744549
0,383741874584028
0,389708897822967
0,38371239662522
0,397910906846943
0,406853164871163
0,401467605252183
0,403925475803662
0,40128092587116
0,400990647317689
0,406636515254859
0,409432982052452
0,409536758165289
0,405834817916836
0,407589690195522
0,412165459573066
0,412341113297275
0,416507171965074
0,407829911225228
0,409510729980119
0,418076329564578
0,416784855627979
0,419040827754542
0,414217843976468
0,410475435166737
0,405552796080174
0,409352738266712
0,402323697174625
0,394369829329679
0,399999774105899
0,392946575415395
0,388673016531775
0,392645055162681
0,378472974198734
0,367311728938354
0,375503404345118
0,363746537127385
0,364199476265953
0,358214239946672
0,353827792492589
0,349797564189979
0,338920772974483
0,340119869434466
0,33200700012385
0,330847860870424
0,336724230112288
0,337366726587954
0,346633247020281
0,347571806743675
0,357051626344159
0,345978945399849
0,331241202068615
0,344036868057417
0,347317974747183
0,350953388133628
0,347317556727669
0,346471397523072
0,338439961947463
0,353131428249432
0,356511083261519
0,364569843799356
0,360792158396933
0,360982760207669
0,362764152303874
0,374835391305199
0,375906272159343
0,380719434077604
0,378818774503154
0,37085400861836
0,385996127863154
0,395770237266288
0,391453288879395
0,391610266634361
0,41153501425498
0,422918787291961
0,420906571074071
0,410284834767481
0,434323907268665
0,453511426375156
0,448100255944544
0,464953815211146
0,466138847002509
0,478444631234838
0,486793507088164
0,487507810289206
0,490084951882259
0,489433552862451
0,545459523375119
0,534316997139273
0,51514155805129
0,520373599227336
0,517319670813737
0,535019950960182
0,528591451974605
0,5266807695394
0,520151433888207
0,542910815640355
0,53983342519677
0,529053964915507
0,551459762996799
0,542074211968017
0,5454959914998
0,551732343954022
0,557715538014822
0,578826015873705
0,593078851858343
0,591912417307018
0,56945508619762
0,608670147954099
0,588235284231424
0,581630668736714
0,583882778118946
0,605646559954468
0,603577086631737
0,609857044521845
0,618507087363543
0,620081436324647
0,595924183545605
0,577898685722947
0,591424273202459
0,593239599072316
0,576519598585492
0,598320606592139
0,591078483974815
0,565428136364716
0,53100850654694
0,55327127128472
0,543816908959391
0,516534836868155
0,521213444667059
0,575348501354863
0,526260397629035
0,529569723492414
0,555647617379756
0,55753500156334
0,539475639300896
0,570333248708971
0,554867447349622
0,521622341564008
0,518714790878538
0,549317096440118
0,560763430291277
0,533210916868417
0,552895622169558
0,531730056583289
0,529424242303161
0,591778702253963
0,538036710131982
0,574525457019766
0,571594104706004
0,561639808112148
0,541169515361433
0,579520568219049
0,553494753187057
0,59632263144482
0,561701609588082
0,659442267816919
0,587320946080126
0,574711020159415
0,600622823931353
0,647505260168928
0,628540609956796
0,66357854646591
0,611056838296969
0,649172311501171
0,649800912559598
0,696328552952004
0,673798344154542
0,694421078862366
0,696005860112774
0,73446527400849
0,708669992964948
0,694746404654974
0,661497662938719
0,695314223045921
0,695532627064616
0,726525743383064
0,677106696046558
0,721072979545494
0,687352994817869
0,651956124676204
0,683760879184126
0,673517946548534
0,742747150475958
0,68323694424482
0,604303832827725
0,731973574881188
0,686177388715809
0,695060864140942
0,687398074310742
0,637335813027411
0,573911304383393
0,660389761243946
0,697629724356176
0,835439429315921
0,699689386275658
0,764330064436793
0,736311061821105
0,85919879231941
0,716307656601335
0,722944931120468
0,731225219925233
0,748036845877701
0,697796109928666
0,611217861216778
0,609746613344343
0,760981236299316
0,550232476701606
0,814059310499417
0,608584050542343
0,715159917539637
0,673231197540905
0,747129934180245
0,789852535551932
0,723217319648344
0,785324553188717
0,590813692602829
0,629398079034511
0,615177689509411
0,67483073652562
0,915917872409179
0,815105268742476
0,83613881459811
0,843280368993802
0,695446295968152
0,843542324320476
5
0,805174259083354
0,950311945855039
0,548270805096511
0,67597822138955
0,584264090477124
0,688709145851534
0,916872757161136
0,728862816847968
