3596
4000,36533379555
650,420452594757
1
2
2
0,0668793910147374
0,0635188275106671
0,0686136609358046
0,0723764609460204
0,0766002174611233
0,0707002472707767
0,0702747890820729
0,0837829764468458
0,0703371663509863
0,0685528079895562
0,0723942773407373
0,0668688927251144
0,0610978083962787
0,0575109750270688
0,0693205081408339
0,0656085345737112
0,0647037177709685
0,0652166334095107
0,0657188348403074
0,0672572216944972
0,0660182792806351
0,0634988694558028
0,0651921623699841
0,0632461364252924
0,0681336368941268
0,0680516847191801
0,0693014888260552
0,0624944544472016
0,0688206354951676
0,0699374197590538
0,0728863230779521
0,0697267829404006
0,0717316824336971
0,0665463846725128
0,0665102810132862
0,0675152834981143
0,0625071680565958
0,0703484199791239
0,0714705218330357
0,0674615733490846
0,0813085084902467
0,0693032495504804
0,076533467560118
0,0641047653880849
0,0711107121961975
0,0685044230081691
0,0758370514947844
0,0701696431679535
0,0623672894187518
0,0711070072099044
0,0759860461426805
0,0762570417895238
0,0816006346022775
0,0764860394449727
0,0679233774150497
0,086534559914641
0,0752485878718985
0,062469167210304
0,0759319732009892
0,0744845367072251
0,0882387225111296
0,100870650532638
0,0702799075207955
0,0762170514447025
0,0599589768062973
0,064951184138537
0,0575692975814902
0,0628881517123689
0,0687873492995298
0,0767478214230672
0,0722736935382047
0,0907636797411191
0,0872405637661733
0,065570136346699
0,0795330476140685
0,0652869799411203
0,0687077699775902
0,0634356050498672
0,0645434122932419
0,0800048786813346
0,0853517937341981
0,0762406720928609
0,0704125975812622
0,0647691879335435
0,0715521698370608
0,0874004324449915
0,0651757934403351
0,0720017205632063
0,0977222031566418
0,0809443638847877
0,0673971639768903
0,0609800601624885
0,0603723946480137
0,0648826312287713
0,0671851000367032
0,0720804206083144
0,0659304379730896
0,0626188876732222
0,0670011438704985
0,0731492848906723
0,0973809343814408
0,0663579509853383
0,127823404254702
0,0826323809122723
0,133654415167554
0,0919859044559631
0,0644006279207085
0,138935437587614
0,0798049468534633
0,0770497155173393
0,0622643780965203
0,0636890720419635
0,0665577160989811
0,079692130534933
0,0654753946657661
0,091311463725288
0,107208249270949
0,0751147422581864
0,0755568631835438
0,0679583810780127
0,0617178608847401
0,0896812298708341
0,123700298823035
0,0614445490952055
0,0913546221328043
0,0736167035665957
0,0627072002235895
0,10749248028939
0,115865652323919
0,0659624246793356
0,0800914763654257
0,06365937486839
0,0677386209532762
0,0533958868333294
0,124010964740549
0,0803697470510909
0,0823360583648424
0,0696382804094154
0,0914077640003821
0,147089869272813
0,0959123663511636
0,0740935842093644
0,0658871877600419
0,0621138681237696
0,126442983510093
0,0773252866475954
0,0634716907390401
0,088603566732522
0,0951874193459064
0,0593030620223673
0,0679300567460979
0,0621165918958705
0,0935238144877592
0,0762240764940964
0,0509507852432352
0,0897851962839782
0,175798881307158
0,0728814185589022
0,15860720133719
0,0688692660627981
0,0928749986248061
0,0679777041880351
0,0695180137579576
0,063689099188156
0,0666164871727244
0,0654009004228066
0,069765602513171
0,105585908387182
0,0671760453326923
0,0694666032283566
0,112080813649179
0,0981176095060219
0,0612290727934446
0,148823610423911
0,100373268959619
0,0543458019654233
0,119796274433624
0,0813156446060125
0,0651426880477927
0,0778817247452777
0,11186825700525
0,0703168874490487
0,0677183832766527
0,0581859088325776
0,0752833738138409
0,0822910335179356
0,0811841420858561
0,0599453106612034
0,0820304800440122
0,0476821360388108
0,107836146403141
0,13014017975905
0,121832743480723
0,0703029113113224
0,0842171025306408
0,0415763394411864
0,111438358298462
0,102716601580193
0,06978852944175
0,0706010189523116
0,063666464395359
0,0550895281864312
0,062437013932869
0,056911229669412
0,0676318446869796
0,0354021470302855
0,119331029114199
0,0906561699680009
0,0675416774247215
0,0524140554187689
0,0734393666219117
0,0687931057364211
0,118585344063766
0,1168210943089
0,0654820872762548
0,0770385784091318
0,0623652465894422
0,0910456678967994
0,0892121258937724
0,0641202875606358
0,0695607234714483
0,0588189264830218
0,0599632527354683
0,0576995438888286
0,0546833267376773
0,0595940725123337
0,0657694939175131
0,0605873728702837
0,0678122640266687
0,0704201191627288
0,0844468089313581
0,0708614343187893
0,0635367698356819
0,0644998619819965
0,0602519721112389
0,066373682453411
0,103530574771063
0,0627728202625264
0,0760628415699566
0,0520150885409507
0,0657967311488139
0,0631914741653806
0,0717234188956498
0,0550314978832927
0,0675513783857857
0,0545985164429287
0,118351463142381
0,0754158327314977
0,0675812576992453
0,0592121475834008
0,089270800812516
0,0957972459025923
0,0611851890278923
0,0674199277007305
0,0618555552822498
0,0620124136939434
0,0669303544306519
0,109866048188891
0,0776103507928732
0,0642426604087562
0,0829792504955796
0,0836934274477407
0,0600750686514026
0,0817265088568538
0,0490973110685281
0,1523249073758
0,10653042877419
0,0515752512246586
0,150327513563137
0,10555190688382
0,0862784890551176
0,0763963424894217
0,0392675788095127
0,195132147575631
0,14484255592486
0,0791609429398544
0,0819958863448109
0,0945590888232937
0,0712046336998785
0,0685273236785404
0,088547778221277
0,0718587043150799
0,124911019990509
0,136450253829904
0,160389157853821
0,0617436218539359
0,101821422347881
0,116263935653291
0,069180624480903
0,073793052465962
0,0699023978657544
0,0775601466545091
0,0876635997012942
0,103712241807054
0,0836028599032149
0,0844988927789509
0,0722288262795191
0,108641865093865
0,0763854391245482
0,0707853020858982
0,0777348509924327
0,0896416491925431
0,0680679077786476
0,0693298241670437
0,0671024198282933
0,0810468023764454
0,0729008209963926
0,0635702396511914
0,137080771126211
0,0961781060075434
0,06790121955409
0,112472521662628
0,0729521883807727
0,0651808924321399
0,0647341047874529
0,0679705406876506
0,060122312333346
0,060240978927467
0,0590046974133703
0,102893571498578
0,084430652166248
0,0586741074036997
0,068557061676612
0,057485293406842
0,0653426629618387
0,0640211379812771
0,0722907006492741
0,0623788861401687
0,0701219251236601
0,0639576549718155
0,0970527277795643
0,114288721562122
0,0650261933345072
0,094857486750365
0,125028751144639
0,0706913524321416
0,0773033009233675
0,0591258340563735
0,0692346437915482
0,0641614145704395
0,0685940822757228
0,0644026830864162
0,0751944106186449
0,0891389744272836
0,0887276535845039
0,0711667842965875
0,0906213693243531
0,139498185556609
0,17149971807474
0,0975609147314482
0,0826617274938543
0,0647883917758354
0,104325951174559
0,132857064309392
0,0964848539061524
0,115276677817699
0,0739942874535811
0,0787027510216354
0,0742240259070351
0,073664337997682
0,0778307457331568
0,0752943062479915
0,0758332543649885
0,074937718615152
0,076725140784524
0,0813803432221275
0,0811091403808917
0,0801861561684668
0,132429730148169
0,0966004521520008
0,078705614996366
0,0861782188085216
0,0747986537560442
0,111772005828443
0,142124970042648
0,116186135864952
0,152758354563358
0,117553847496042
0,172205357378919
0,0999413255607093
0,100459557835196
0,0784461860745765
0,0966279224838304
0,102690971141077
0,0992579929370832
0,0855595293630837
0,0963933250910655
0,084225485298041
0,104382670450216
0,0848389475755982
0,0924407968102358
0,0912053040152319
0,12375949016822
0,105257109210224
0,112078161676427
0,104271265215994
0,122859567491201
0,1734316227698
0,175900464399505
0,134959247520393
0,117229334275362
0,119054358916836
0,0935274309535449
0,117235493551219
0,105829996921516
0,116242174964613
0,126200576818669
0,157469118860477
0,160345956170641
0,139447001706638
0,143544762364329
0,113875738990524
0,156641380296763
0,149656498316948
0,136106375226984
0,169764872725149
0,143875504728252
0,118784624079278
0,164218665779468
0,170354572199242
0,142268044526427
0,171126802311268
0,139295685145172
0,134267603977635
0,141080316359562
0,138542712657003
0,144487559972145
0,149490701907983
0,151503793562572
0,151702653661177
0,165745397958282
0,154948844615159
0,161647984635659
0,172786846780909
0,169220300749912
0,152055182266069
0,177506060431173
0,151447888740098
0,160837387596794
0,1617786766737
0,199697418987188
0,208281132278118
0,20052989311595
0,223180613884957
0,17852871786674
0,181458329543831
0,179716996988699
0,174000916168626
0,178432716640696
0,175146287610074
0,195074828604348
0,185931398274786
0,193763916751471
0,18526446711184
0,192482382280067
0,189492750198595
0,20106052309557
0,192340359425728
0,205219596736622
0,199128861722463
0,208010170100929
0,214695564548475
0,247730521431727
0,261608217054885
0,269226885074552
0,273370082586068
0,224636452391413
0,223607528884803
0,233657886171927
0,227978383671391
0,227432484024544
0,242828237692581
0,247800859148027
0,233280972093223
0,23769923446672
0,229433231443804
0,237983289585782
0,24948088741972
0,27627955513536
0,262165498376166
0,261445214560979
0,257324696516892
0,261830400478516
0,264940455353768
0,283689771277051
0,287977799729725
0,291538501367328
0,292608115712058
0,293305498335666
0,274138100730198
0,285757390761837
0,283832436504699
0,299389687661547
0,291185736881224
0,306575942625709
0,300177097796354
0,310828059660721
0,310956404674497
0,314559602410456
0,299988022408994
0,310189055751851
0,305834922013965
0,308649234366898
0,311361473083913
0,331295156456622
0,330576550874321
0,342923751569442
0,342355065745782
0,35731894346458
0,355435467606362
0,346215050794638
0,361774894226304
0,357051450003815
0,345992660952108
0,355469035671956
0,353473694433069
0,364709633493114
0,350923725714377
0,366337625119951
0,367474523476142
0,371593356867496
0,375429996714751
0,403261720674345
0,388612556953235
0,386558957185439
0,387331623173388
0,413852495751496
0,378893212621679
0,385205332526853
0,384642354862705
0,404851387821831
0,409729325666794
0,425999580558981
0,425194616155913
0,446100436940378
0,42991808640026
0,419306245699931
0,423773953738378
0,448962785949054
0,453258903273319
0,445830983683924
0,432950656719082
0,442451704756603
0,439326783662093
0,460423622337842
0,451380317993144
0,462588739648277
0,460455825729084
0,455064155345983
0,477770733277374
0,482681096661381
0,467722699400404
0,485974624163661
0,474026247300429
0,484025851955969
0,480089486338356
0,488016574397262
0,489812008349109
0,50081065369552
0,508402158391301
0,512202350126513
0,505207807355277
0,523378995754177
0,500175829277353
0,510639039684501
0,502827944141458
0,50117391054671
0,492413268646171
0,513051145562862
0,511922360176125
0,533294157149434
0,547008860977699
0,54485614579216
0,550525577557947
0,553768954977519
0,542082165471809
0,548461960771895
0,54580208091691
0,555499572740866
0,556830818268882
0,578285537269384
0,556205595983556
0,573707668227458
0,556814406617912
0,571747047750773
0,593633032129009
0,5906924096916
0,5836276036328
0,597715514778426
0,573675732756759
0,603849238975244
0,585264971598253
0,631948089385108
0,620808494060035
0,603761023166034
0,598812244360296
0,616866447965512
0,593982400079023
0,587254446255501
0,596408020880484
0,606448136918691
0,603660171036902
0,633346180278707
0,607018821111249
0,632293731600005
0,6235377673092
0,658772147741109
0,635887337422876
0,636468251936698
0,652126233069858
0,650747231320674
0,635458568134123
0,660986167334217
0,660181972855287
0,689587525418045
0,659152696770931
0,686201659770438
0,663306566087876
0,665259455430822
0,682810343085732
0,663698638284577
0,688140240297931
0,683650397189064
0,651307836859783
0,684098404780927
0,680038063633135
0,678532397512429
0,653550493884587
0,694191652281627
0,668101025111071
0,705188964412886
0,692165504519316
0,685805884012174
0,669321163120338
0,697818549534519
0,692760464802505
0,708080113288167
0,700932455997088
0,707965839891822
0,725701576797113
0,729309294674121
0,665277982051599
0,69868013239925
0,718208795525505
0,738548444446596
0,727063805299376
0,744546644684963
0,705435872434462
0,698683119459768
0,703926191462682
0,705623877185888
0,703139008569092
0,717564722059276
0,72220774650241
0,736939986125624
0,72956174205708
0,744569684829195
0,758084936877633
0,763852318351828
0,725495733579883
0,737287047209248
0,735850934579876
0,741568211171227
0,731840932557285
0,73634753210136
0,754061354328539
0,783924184400961
0,734287562021369
0,754379412152926
0,741210898100833
0,764479331642328
0,723019337506979
0,757073292481134
0,759059429809831
0,767568244947466
0,742306103435407
0,743355458852415
0,728268639054504
0,781956387292841
0,743053624323761
0,755409554733211
0,751610031440989
0,773474640966584
0,760911252248504
0,75548373979324
0,753446607822795
0,778030224509859
0,789606319850269
0,782582526328952
0,736595140426954
0,758945183472291
0,759111839940756
0,780900172503595
0,757930541045569
0,776237856915308
0,773191937991538
0,756240857813277
0,751608277627496
0,772910246178948
0,771807354878762
0,780440063301809
0,774610634525608
0,778277016161906
0,74949299439161
0,770602375316887
0,752471377658655
0,769493127436516
0,763921786640831
0,779621576412895
0,762732159309646
0,797231162314305
0,763662029585069
0,779252937504069
0,756970779565717
0,785416957106616
0,75753619013857
0,776117560007507
0,768760608746669
0,785321583874873
0,756157672591339
0,756766993545372
0,776673106654765
0,780971389086517
0,752375724567046
0,789058864102391
0,780627541694776
0,792170488096353
0,761670058866894
0,77309183877678
0,741447868984673
0,764763140353603
0,762712253629733
0,765732943446195
0,764727979902219
0,762418612166479
0,754657060333338
0,757943271056351
0,757188671231933
0,763130280258838
0,737292157567527
0,776024857889029
0,754436294682166
0,76066620314371
0,785783749890266
0,761748096794855
0,732217092396828
0,766748179750289
0,746060572732094
0,761025494363705
0,747662340751579
0,761248669646611
0,730688002448368
0,740347962034896
0,755897653392662
0,76603825760989
0,735287964199537
0,773655504304541
0,743078743646179
0,729831709996665
0,730078703578653
0,75376489995663
0,759332433256048
0,751271665812636
0,739102642359459
0,756683528271759
0,739821590807706
0,743757812565717
0,727501332161786
0,752226210710878
0,724034093805331
0,738925639385326
0,735467954793161
0,744462091321321
0,725357617427934
0,723797365198903
0,718530833242897
0,727027539276732
0,702854716883672
0,728771944045716
0,713042513801638
0,70807640159219
0,695703670755224
0,725973905226214
0,714068406707991
0,72538915218463
0,698972312868029
0,714742080919723
0,702421482982829
0,711487385698167
0,697004459509181
0,707150025045147
0,682049164970776
0,702218960718608
0,680541313299292
0,698678960094475
0,697076166557806
0,69509043844196
0,667198750241147
0,686770621268615
0,677752439826197
0,688893631701661
0,701271593197395
0,690305463773421
0,654428123943764
0,665536201268468
0,675530353377148
0,665513330868209
0,658664301965056
0,67406326291952
0,658487008129379
0,667683297882874
0,64769267480996
0,660112172264918
0,638746299043666
0,645582154785387
0,632019137207754
0,644529623442788
0,633326719687818
0,653731087146462
0,629191701679761
0,652904860098656
0,631396418118905
0,6352812317118
0,627352864917348
0,629133695162399
0,616434979568051
0,628904687345795
0,602431433204277
0,629434610259528
0,613722576991131
0,619075796467887
0,598598402639891
0,611432284971426
0,594673599155856
0,600793956557111
0,597448528750671
0,612264836634845
0,572876803595158
0,607730562477405
0,589165226812096
0,595430268453715
0,59320080120506
0,592471715743537
0,564094113585005
0,581230151713488
0,581155007983689
0,580378495439078
0,562565374497828
0,565052739819123
0,550616429575593
0,578029852758425
0,570363262849902
0,571337275810649
0,538121728800119
0,569191908455231
0,53945941612731
0,565700666571583
0,553019075587618
0,547023948972263
0,542199742702914
0,54873034893348
0,529744001963356
0,547380387938344
0,523489674639714
0,532767046206538
0,51965544094088
0,539145857710567
0,512546942981704
0,526484694231309
0,51376333875771
0,535069302610623
0,513876831562209
0,505418369733625
0,490680428922914
0,511084965586353
0,499378144621818
0,499509480385563
0,490505292672815
0,506388876355874
0,483956104409877
0,490117317052818
0,484663945710939
0,493971159602305
0,471587118135887
0,492609979650044
0,476069888617109
0,474018396025296
0,465130079304289
0,472773830775756
0,465172057255536
0,469621446035793
0,462471683922139
0,465165050603595
0,44935464631208
0,46012944027722
0,445584831563109
0,455984307143843
0,452108128658015
0,450233687098906
0,434868414329615
0,452283693117069
0,441504382015497
0,444059025553721
0,425667403280365
0,433150839239601
0,427667533129413
0,422358421343385
0,417640790409068
0,426273196647075
0,42050402384806
0,420688900757482
0,408940026372244
0,41811242161125
0,409789646333565
0,408856189884632
0,408531379448903
0,399986493043396
0,398807906987044
0,407587980243394
0,393290949466527
0,397818341210825
0,383453554101863
0,394470751711998
0,388839226853099
0,390174039274107
0,380315848239331
0,373799847481679
0,377013326160791
0,378500317724727
0,374490376334902
0,370635895443591
0,37087196844417
0,376451515566118
0,356227867445241
0,371595629011817
0,360725362695984
0,361310313993393
0,3523455797447
0,362667455779394
0,344747194245715
0,355610402567371
0,348286944231872
0,353235362707794
0,339067644303455
0,346591325811438
0,34186566805733
0,339865105075993
0,339408180749959
0,346631722984474
0,334790672360641
0,333988980857452
0,331115140592634
0,338308377262467
0,320395150516596
0,331736426365833
0,317155897492602
0,323985614830854
0,321369958027084
0,326491116464811
0,3171347405603
0,32124931848653
0,315125146076695
0,321530763330945
0,303793970510324
0,318429728408705
0,308337572606364
0,311626250458852
0,297529308686671
0,30487341238642
0,299306415368584
0,303828931118338
0,29790709436655
0,298280028970069
0,287968969464575
0,29217756465551
0,284734383000323
0,296705201693159
0,289336974433947
0,295143341235254
0,286469784362402
0,291808120433976
0,281252274576242
0,287957387815872
0,27555475527169
0,283259949486041
0,278477172559602
0,278161459754157
0,26709970778365
0,27848860643087
0,267236647225497
0,272543954976097
0,268537968397852
0,271962474028975
0,260747900307575
0,268254594995701
0,264233604850689
0,269612431000788
0,260435627745547
0,262319414672016
0,256759841603121
0,263280542007102
0,260574469135777
0,259254442513989
0,252005808950725
0,254688292655781
0,243534533077847
0,254647101371696
0,247178802915558
0,249658804332563
0,243936399984991
0,250622634362278
0,238679999347441
0,238575842850442
0,242468160610081
0,238949593931723
0,238836683038845
0,236465079498973
0,235622896838951
0,238321993772759
0,229798265901192
0,239341334849407
0,224084019025922
0,231541238576876
0,221544493244874
0,229703295769723
0,224880834457525
0,225206162004622
0,217456084651815
0,227410214515649
0,213103436492121
0,224671971224254
0,218383326403001
0,22448371272088
0,213099408632694
0,217040050812659
0,211736753413268
0,217422382904956
0,205825552041474
0,218217338325399
0,209195895299969
0,213435610554471
0,202473009870287
0,207774828472082
0,202959434356496
0,206455645861125
0,198020818717932
0,20321711728027
0,199252887785655
0,20280108141368
0,195035087623504
0,204285192774066
0,197389122297435
0,198390212553225
0,195482447352985
0,195319884137857
0,191957721809528
0,193216813503446
0,190623973801259
0,197286335022505
0,189370743031838
0,194038455171934
0,185320926054229
0,190647472385101
0,187242605933666
0,195891347314359
0,185254132123126
0,193712441041092
0,186052664760572
0,186039039988173
0,181630810409386
0,189977978483015
0,181910990965588
0,189398795939703
0,18657332970123
0,190977139612566
0,179370086522988
0,185632474847944
0,185974402398599
0,190433996858867
0,186300137822473
0,189639377169118
0,187316054877934
0,19454531772108
0,18396345189837
0,192063133621994
0,186184709974405
0,190262495623674
0,185419752811681
0,195445682720118
0,187716359531838
0,196652095045429
0,194319816219951
0,195585325369474
0,188666657758339
0,200362719614939
0,196670025998323
0,200980349698151
0,195923280513172
0,204253159008253
0,200727617566981
0,207773114042904
0,201634003358833
0,204453853661237
0,205013913692145
0,207195184137586
0,204216757732316
0,210863675180943
0,211231735091752
0,212786788302114
0,209618920310344
0,217587015646728
0,209881059778977
0,217112054722354
0,217153458351475
0,220326973326037
0,22555831320811
0,227092030957493
0,224647346473505
0,230349623907864
0,224316130307744
0,230484064813346
0,230735996342736
0,232637444854923
0,232466387782329
0,236738728839934
0,235749517006476
0,240513852326381
0,234196763763578
0,244202490728175
0,237716327970309
0,248882154525632
0,246512141109866
0,249422990033274
0,248863706595037
0,253048878481425
0,253771686102441
0,267035641424501
0,257099562169011
0,266703135837082
0,257957064249609
0,26332388445044
0,262074907872262
0,269812313515743
0,270462787722018
0,267434212294998
0,264728591834238
0,272462752843789
0,267055168937703
0,273684468676164
0,276165275547912
0,2815319166387
0,264007856118088
0,276362695414041
0,273577545385045
0,273051463615329
0,27211590448443
0,271304124281335
0,268603768370113
0,27007017005734
0,263413218743312
0,271403230865947
0,261881689101012
0,263762996113206
0,265264567718909
0,267626965791772
0,260044185728899
0,269421915083778
0,259966722970391
0,268239811650259
0,260975109541272
0,265114145316792
0,25874328963098
0,263507190817444
0,255090773591211
0,264287006020318
0,259308742914539
0,261421363299959
0,253475093834825
0,266607423095195
0,257700123419025
0,259066649134278
0,256984842904976
0,258746522930766
0,25936132312405
0,261992384710943
0,258576190273931
0,261607697580999
0,255416317648008
0,26156491826772
0,253407109141234
0,261483048367034
0,254301618662119
0,258486582547521
0,254497825421794
0,256687964271062
0,254043156638758
0,258964805809286
0,254659395373647
0,257029509012912
0,25558784422133
0,250713712387503
0,246219480194752
0,252457685250019
0,244976863509509
0,254338475520537
0,242409536775444
0,252730657729578
0,246145687651011
0,245899667871171
0,244058335539976
0,248429862629315
0,240417701181641
0,244325031084435
0,234584173197647
0,235133749564338
0,228765247545944
0,233330740167855
0,224191408862583
0,230101723137589
0,224528408402953
0,223246050457723
0,220006900772038
0,221569121230818
0,215566543078984
0,219082746398032
0,21131021147143
0,215351846880807
0,202081284335715
0,212246059332243
0,204034530758399
0,204446244917962
0,200675379375678
0,203103279955767
0,188783219561862
0,197128951486223
0,188369914815409
0,198342913830907
0,189137191122566
0,194509228882304
0,184340683121034
0,190597740355777
0,182793878056945
0,182767781520681
0,179266559893999
0,183401731805827
0,172531916361135
0,177742702628157
0,175289355824126
0,18129546500159
0,177550100409186
0,172573561907363
0,172574738301929
0,175627232527123
0,171277647097738
0,17492854424242
0,167114383202959
0,168859816020176
0,165320695248897
0,175594770838956
0,162688360207609
0,166651340602686
0,162912756175955
0,163479834323058
0,162249142047585
0,164522954946669
0,159119880461817
0,163020395486292
0,15845631367063
0,162073060914543
0,158280642664264
0,160234402924373
0,155151123965594
0,155401805427034
0,152800942758106
0,156880584218044
0,148115453101612
0,152892297028416
0,148984579159838
0,154790744438397
0,147762716777719
0,146900079782822
0,147390479753033
0,151540079445762
0,14564774117612
0,151316792812756
0,145091929619038
0,143883117257115
0,143536797652465
0,143263547908267
0,142548068514243
0,142463033458152
0,137950675819372
0,143296211182107
0,14051909740319
0,139571605674714
0,140617767973882
0,137919940469354
0,135216365789278
0,138362871105159
0,136270833829388
0,136276890705309
0,134482039523795
0,133225225876666
0,132732920359809
0,139431071013337
0,134459944786111
0,135685923006534
0,136367244378187
0,137130419203205
0,130490702886133
0,135095530465352
0,13099053122161
0,136488586598847
0,130888528192068
0,135226492454927
0,131689974005348
0,137749316557258
0,13027586029096
0,133569606961945
0,132878867404609
0,130086347379021
0,12705529892032
0,132545501593194
0,124366983761022
0,131550533379909
0,128256154180803
0,131040178322781
0,124874564717686
0,129911406814618
0,128048203183298
0,131905717213752
0,122485364502554
0,127009367920325
0,126751719043876
0,124418337874326
0,123236921932499
0,122960044626111
0,124492099534983
0,12605710590233
0,120739849369359
0,124535366202791
0,118306520743777
0,120170889799441
0,120548994595082
0,121812352675242
0,121564736616199
0,122995823783139
0,119941778984516
0,119897491980342
0,120795097927641
0,121577437911016
0,117111144486505
0,121740141321653
0,120150179305693
0,11804001209865
0,113613172748125
0,119069078147899
0,113797506232386
0,121145867712817
0,113167108272392
0,116723110560272
0,115383586815538
0,120323450025644
0,119881998080712
0,119222279980026
0,115669363251942
0,118889232710228
0,11749904110404
0,121205142742912
0,116281410799855
0,118379144346282
0,116510284498004
0,117391910746711
0,113386081498131
0,116720225942635
0,115768720243766
0,113103967546365
0,115271705491175
0,118700518200362
0,113284034039833
0,114805437856969
0,112772664642628
0,115366194769724
0,110214444865391
0,112736172439633
0,111580834707543
0,111277068091093
0,113739392147241
0,114554172661139
0,112990158123566
0,116924873315421
0,111716994050819
0,112501107348973
0,110320244231636
0,112991407200225
0,108165548471516
0,110947610910803
0,108749359212413
0,110044276035692
0,106545116235838
0,107148977136482
0,104950684183135
0,106366008819545
0,109512098233299
0,108361048352762
0,102654246351252
0,108100972002101
0,104044289766439
0,105248637991747
0,105534240590521
0,105185234852751
0,103727766691079
0,10609697454881
0,102347033876002
0,104927339185191
0,0983715652641926
0,103340026256855
0,100570120184866
0,103317325223961
0,101180244581125
0,100444152261967
0,0966155770933467
0,101606366816394
0,100796054611875
0,098781318121022
0,0998852301917297
0,102646231093731
0,102358656845445
0,101575021231432
0,0974094080139118
0,0987242084155917
0,0989204679332216
0,0999079706383835
0,0952981760507186
0,0994652601427123
0,0982585956453507
0,0983371878108232
0,0959976458882685
0,0982977574633891
0,0945200299190061
0,0976366417798114
0,09298828311699
0,095486688871678
0,0943792815051674
0,0975327691126904
0,0930678960448333
0,0951152458751333
0,0936677059925793
0,0924967699077877
0,0926060061447052
0,0930906917166652
0,0922497513964423
0,0953577505737897
0,0918550825095411
0,0926094798738155
0,0865884941316935
0,08769832134397
0,0879086969341703
0,089900473688346
0,0904014510170136
0,0916744147950924
0,0863351714054255
0,0865763413921349
0,0909229275762185
0,0879206892077064
0,0842122861041201
0,0855873244104561
0,0836278344917564
0,0847686953179766
0,0845568944748066
0,0811648837379841
0,0804873597898285
0,0841683398072706
0,0808204538928491
0,0838941088902804
0,0806840999002044
0,0834645791234897
0,0796289706876057
0,083721669182146
0,0802728349321709
0,0796848723521435
0,0799837471124498
0,0813238116518949
0,0795534221367254
0,0817545004338025
0,0797971455478713
0,0805257777524157
0,0781976933509631
0,0784153214296621
0,079193779228802
0,0788414587267914
0,0780615968686083
0,0804379784980614
0,0793078081442549
0,0794169376531642
0,0777147543739152
0,0795098058603512
0,0770537723273421
0,0784364267540397
0,0780320765133328
0,0786429194425994
0,073601144070841
0,0780802713033158
0,073786249295554
0,0785166077035982
0,0762946918403258
0,0737376186459725
0,0737068704400763
0,0759602995425541
0,0704779736260594
0,075195388129647
0,0726330814492294
0,0723645386727165
0,0716903534457564
0,0739298278269956
0,0748254579665767
0,0738930879146029
0,0695161582137763
0,0711087884441973
0,0713550366542411
0,0735384944029441
0,0717387909205302
0,0752257264868849
0,0683420785517545
0,0727232257314911
0,0699830282527465
0,0706242265795876
0,0691500933213927
0,0704883421236311
0,067137568181803
0,0716544594658275
0,0700017247331129
0,0693140744966399
0,0701128176224243
0,0672181736212657
0,06806668987182
0,0695242354146147
0,067539258586159
0,0646864208054704
0,0690363215893369
0,0695873665815674
0,0691559046409367
0,0691488702604743
0,0668922111168164
0,0709924605525076
0,067358038524453
0,06944307993986
0,0654929973273635
0,0694521603166982
0,0653483299322657
0,0686268135621527
0,0659089918997435
0,0674826482939469
0,0686802402459689
0,0694672653827437
0,0673369426544415
0,0693081322618063
0,066124524336663
0,0676012555533742
0,0689670618072616
0,0687910299539996
0,0669344013971021
0,0678553457920186
0,066108469778661
0,0667444845101794
0,0675726555085919
0,0673630063643279
0,0670881180017053
0,0661200360041143
0,0646592941960358
0,068099405016734
0,0652078387029383
0,0654797196159591
0,0639287546019923
0,0652701245660149
0,0632121090835576
0,0661890355148052
0,0637858921717024
0,0637219674222081
0,0630036263251138
0,0613513935970933
0,0607135025873748
0,0630031993657239
0,0618557397059076
0,0648882404915927
0,0625507731136233
0,0623670654038088
0,0584539216533437
0,061520771509708
0,060178562546799
0,0606305083911438
0,060645185814371
0,0612525931028244
0,0605130165992648
0,0603348550925271
0,0597894520967758
0,0578780721561049
0,0578354477040221
0,0599281787405574
0,0617346089053504
0,0627290385033618
0,0612906298677919
0,0602342058688868
0,0568319512092628
0,0609524982286398
0,0602871156538061
0,0584637460121948
0,0617560522841493
0,0589199444894813
0,0588669456970994
0,0610115990983894
0,0620092051528779
0,0604268486240026
0,0602608123219913
0,059718608063226
0,0598851779271553
0,0617425828942963
0,0593385620991879
0,0584598409908338
0,0590657324247997
0,059408788890785
0,0583287913711705
0,0622688982924325
0,0565519598589874
0,0563236363523048
0,0585881065351142
0,060487803718874
0,0581818916611014
0,0546997612321421
0,0576874071640547
0,0594249292493993
0,0572307964270543
0,0562249251486824
0,0563923822136538
0,058898587063144
0,0557403752351737
0,0536534552876448
0,054595904670947
0,0575320653840242
0,0556033498937455
0,0555703646917072
0,0535364647469424
0,0540996033756837
0,0561119424474656
0,0540600240185328
0,0539575891521751
0,0537288607948123
0,0521290926394026
0,0525252453114504
0,0512518938215903
0,0524167079208561
0,0522083421595245
0,0519598652674281
0,0527727845287375
0,0536640381132648
0,0531991843947863
0,0492674526655256
0,0491135807825742
0,0527860823347956
0,0522998792965741
0,049747217822153
0,0507326044857188
0,0509992589873312
0,0501535026318801
0,0506547204258384
0,048231294223318
0,0496534296612718
0,0510155380653519
0,0520067854714996
0,051453090788216
0,0495114227047731
0,0500937073897227
0,0499079433028498
0,0474299044892722
0,0496954135332244
0,0502315015539057
0,0504997564318278
0,0494939878604518
0,0502462923242554
0,0504050542655852
0,0479812112762422
0,0479940616893756
0,047385957124522
0,0490654092521759
0,0493660740934301
0,0482926000968362
0,0490898936914458
0,0483465808963809
0,0492641330993333
0,0481457047180041
0,0465642437393317
0,047575105640061
0,0471545642310193
0,0465070849776526
0,0481612895200977
0,0494081965776022
0,0455383915808676
0,0458944459231549
0,0448577220246499
0,0462837949070518
0,0439000489137435
0,0431371209712237
0,0472459222649023
0,0471322150105943
0,0447401043617514
0,0429708612608962
0,0442847398034053
0,0426160749114716
0,0429662346881635
0,0443109181971095
0,0399712835245367
0,0434835404841274
0,0454633137472684
0,0430516343448622
0,0427443191200786
0,0440815626888718
0,0416118427106587
0,0423180964892683
0,0415698248554612
0,0437255651528173
0,0408974042316178
0,0427921624191493
0,0420671719005457
0,0426725940123214
0,0418564429950887
0,0429863232437894
0,0403234711334968
0,043890625082034
0,042578764617934
0,0440286321405228
0,0412545562375482
0,0417514048957223
0,0435733770416136
0,047138607230552
0,0441706123679684
0,0441162268968142
0,0443024704796377
0,0466044552302863
0,0448406545945395
0,0456370076200512
0,0453381792593281
0,0489201863426346
0,0470820233648335
0,0488464734052229
0,0466593758817747
0,0532668529958066
0,0484238703132759
0,0444006225026315
0,0414508281365219
0,0422777893297463
0,0413582511383142
0,0527549297648655
0,0537286777008383
0,0485208834192538
0,0363772923894798
0,0497446518713249
0,0469872988360212
0,0431694736097951
0,0395059094844167
0,048365228575063
0,0386617449865415
0,0462204003029572
0,0443284621970225
0,0485078514581666
0,0405030753813841
0,0466125828518742
0,042550080376252
0,0452506999138007
0,0424463409018217
0,0543836117058983
0,0426830064720613
0,045795785116501
0,0375480248129577
0,052476038660234
0,0378725199920964
0,0516282019789926
0,038241858337845
0,0490282104954222
0,0390731578042702
0,0495177303772793
0,0381270698651724
0,0528024856880977
0,0376514355291776
0,0498724890622003
0,0272967915156172
0,0443462039127892
0,0296273436054896
0,0463201228597514
0,0349957252700963
0,0557369441809613
0,0394299162022056
0,0508055757338713
0,0297265875196525
0,0454005297531846
0,0419934983382855
0,0591096014107979
0,0469099658338459
0,0447378422165715
0,0428791495067157
0,0471881695703351
0,0538731421768921
0,038296761969956
0,0540017700010532
0,0365767725234053
0,0637810844876811
0,0231174235539874
0,0588600716829165
0,0313937351742976
0,0620565299450857
0,0265583420704428
0,0625995349838645
0,0301976458112504
0,0535300982468952
0,0347828301711581
0,04678931823539
0,0436091659265226
0,0425821423094422
0,0415095298278283
0,0413079109623721
0,0403191165238942
0,0395683556012078
0,0390512062573928
0,041311053601116
0,03514710066911
0,0425188302747856
0,0346202183903481
0,0425597829302972
0,0350906059381389
0,0407107616563035
0,0366023479875245
0,0380018460636415
0,0343819877708379
0,0364482176580752
0,0351855542316902
0,0389117810523667
0,0344203949346803
0,038078843841751
0,0337796136545648
0,0377235756066022
0,0329978414018994
0,0367791403496669
0,0368335287787838
0,0396399008340711
0,0329249749480329
0,0367507150798351
0,0333799332495538
0,0349475186211774
0,033619148632007
0,0383907840132368
0,0348050023893016
0,0361137179427819
0,0315445102058755
0,0353717898368776
0,0330837577475025
0,0354295334275127
0,0349960339213898
0,0382771266640423
0,0344864451718542
0,0378397281322351
0,0342237269580545
0,0362386363288181
0,0373810348154661
0,0369110846986624
0,0348168115253505
0,0372359685810162
0,0338880720069352
0,0368462323308517
0,0340249010235721
0,0378510858176674
0,0352739386783314
0,0372393448370091
0,0347374245961478
0,033703497142953
0,0331626525190626
0,0375085910377326
0,0334091123664683
0,0365234501064198
0,0352496849217185
0,0360058767881284
0,0344814830402472
0,0366695598445562
0,0339229803044883
0,0351086682408787
0,0353693845394406
0,0367431457688918
0,0345466762785054
0,0348871998396374
0,0337888198157166
0,0353554707077778
0,0352467895945636
0,0350861253733133
0,0334991724011271
0,0351100282899587
0,0325611158337908
0,0331927006911244
0,0332164125825384
0,0331645748633021
0,0319559324666976
0,035196624681804
0,0327654026768521
0,0336384868425317
0,0354127624277305
0,0365184163750857
0,035192729962874
0,0361604708696094
0,0333339916778989
0,0362352023598417
0,0340964972495571
0,0334161114439332
0,0354907500365739
0,0355128830935769
0,0328615453762552
0,0362838306950513
0,0349944382782981
0,034548198526551
0,0339608329827446
0,0362254610391476
0,0339574131000942
0,03393575757637
0,0344218699315468
0,0367203486132447
0,0353279475245658
0,0334465709459176
0,0354250734419279
0,0362574786452967
0,0354958812298655
0,0352420215764545
0,0323667414306538
0,0355584106223544
0,0380914684351837
0,0382371526941102
0,036463566641375
0,0371541101462812
0,0349638614969682
0,0355468466972355
0,0372464618679661
0,0367086549078482
0,0332224520445572
0,0334943284804872
0,0335868403613682
0,0342655815813928
0,034189949878681
0,0355361237726914
0,0347432057390019
0,0353742758928488
0,0349831537045184
0,0360664647448236
0,0360730683925477
0,0359391747176045
0,0341033186324658
0,0336975524489035
0,0345837014367678
0,0357295800300151
0,0345619827679209
0,034106678067802
0,0361605756557584
0,0372362585739186
0,0342908002504521
0,0341619193692374
0,0329087683999164
0,035262178552653
0,0355762193795587
0,0353263369236091
0,0357266407051706
0,0329966226719927
0,0332598203172415
0,036647007930872
0,0374020567543865
0,0364110710785321
0,0360587266262595
0,0368387664706932
0,0354100874690242
0,0370513306500998
0,0365496794591358
0,0371348300496974
0,036610061444319
0,0346280729960643
0,0360185354628429
0,037212509514366
0,0345254956756103
0,0349602224454332
0,034520477076666
0,0353305121021105
0,036820465253663
0,0348973863948661
0,0356661994456032
0,036022987248489
0,035165955788459
0,0360598488535704
0,0333208124485057
0,0343506663223572
0,0360342914124014
0,0353984252500976
0,0363725206193105
0,0351824277533986
0,0341659387340377
0,035808573732702
0,0343961366253663
0,0346242962843428
0,0349469987075314
0,0343115775491358
0,0340080201575504
0,0356688593889691
0,0361789176034766
0,035553601299629
0,0347619748673832
0,0339235928036517
0,0330703869479066
0,0341355635337716
0,033422044176286
0,0342563426459039
0,0345393229522381
0,0331088134995653
0,0338718581061922
0,0331604616427407
0,033149495049414
0,0349567672676759
0,0340881236655923
0,032967293601182
0,0337810515690959
0,0336140683568869
0,0340945934237799
0,0337999975886142
0,0337010279284086
0,0347909350113531
0,0342953013317067
0,0330899535936001
0,0331409391189473
0,0339599222737614
0,0345844181917369
0,033859060417119
0,032809637665274
0,0308506857716952
0,0308054476152828
0,0334577383657037
0,0360754246263895
0,0337295343068278
0,0327625460351175
0,0332506469777864
0,0337056779575536
0,0329467831438379
0,0326673240295434
0,0328453402435188
0,0337971610088723
0,0345278844244089
0,0342403414259124
0,0321100650473607
0,0303023042580087
0,0324625921874903
0,0355292347053602
0,0340937488997344
0,0332012301849657
0,0329642052132915
0,0323130732186263
0,0330810153647172
0,0313992041140227
0,0315598969483711
0,0340719025442681
0,0309185027147757
0,0317960419341711
0,0359433262082298
0,034917596021551
0,0309167313057514
0,0319245260723211
0,0306155278926268
0,0326562471422426
0,0350070132864653
0,0333620253061259
0,0304349885048126
0,0316405294617933
0,03318388906567
0,0332856148179022
0,0338132921450799
0,0327616003037478
0,0318053731120153
0,0340658740390496
0,0362180832098854
0,0345778192435481
0,0301103575594509
0,0310331203796846
0,0322221340080617
0,0320001476941888
0,032924630298884
0,0339337057429779
0,0326856208834503
0,0311654941799771
0,0295361835938025
0,0313913146526125
0,032066585874842
0,0321291718985311
0,0336226496468092
0,0322323552205099
0,0309959302741172
0,0318566785029812
0,0317262922056988
0,0324276430802955
0,0307382383316981
0,0322422930994704
0,0318976180107704
0,0325623228339152
0,0293208445467907
0,033473719715002
0,0357286043639969
0,0325565160776972
0,0298608546786443
0,0305898490624847
0,0307467226667838
0,0319451118856396
0,0308066806667055
0,0327232502119031
0,0311798230272689
0,0324601888450817
0,0323293232162509
0,0297513422951515
0,029267174162048
0,03007493971722
0,0301485771042272
0,0303765340230337
0,0302799502676294
0,0310161182576096
0,0296008490785673
0,0323672791210857
0,0309807394316327
0,0318175999594402
0,0298642608675596
0,0326352436268088
0,0306244458591833
0,0320677355277425
0,0367692916735937
0,0315914927722144
0,0294315343740629
0,0314354569010206
0,0296695999518222
0,0305807116283367
0,0287366459574965
0,0291705569552648
0,0295105476335065
0,0303196915249345
0,0278201825361271
0,0257793243468129
0,0274580897927415
0,0272819608602023
0,0275966316759353
0,0298707159396454
0,0291142242300982
0,0275698707878118
0,0267135936291537
0,0262637283622008
0,0267220370364364
0,0285460234504084
0,0286507912076547
0,0294595150224715
0,0287863119286735
0,0274656424969775
0,0401080377505737
0,0412309794150696
0,0325347805836919
0,0298154703950294
0,030905494974927
0,0316956445360258
0,0285889109160461
0,029454959822839
0,0289425102368021
0,0263351780370484
0,0251155552045062
0,0274094233977087
0,0281267027046293
0,0279903352884617
0,0254290543732991
0,025841165470953
0,0265249379999594
0,0272664989242537
0,0266725510769281
0,0295616992197008
0,0281320433646812
0,0267710841611906
0,0274280375029908
0,028408551635951
0,0277853878806809
0,0258393168806223
0,0291520558859557
0,0383108730903821
0,0342126956828265
0,0311150159224932
0,0272157890087034
0,0274430590996155
0,0259732468313326
0,026791532202238
0,0255382292117628
0,025802036754401
0,0264586084439026
0,0289144706632255
0,0255455443778845
0,0254488045989939
0,0261286455610739
0,0283072382687111
0,0241152944849226
0,0255850627298171
0,0250670987442798
0,0262733511659149
0,0245321648455366
0,027739415315802
0,0245400738152959
0,0295857391694339
0,0293352798069043
0,031597240081921
0,0226739469929013
0,0409281919720248
0,0462608044543349
0,0357400224838521
0,0249705178367228
0,026086726356341
0,0241773334051004
0,0254543215400947
0,0223720569108405
0,0244170933053892
0,0254476864356028
0,0267304788633332
0,0272635896781116
0,0261827636546872
0,0247541800527671
0,0258667359284467
0,0248537990118376
0,0265775252650396
0,0243227612654197
0,0258486555991065
0,0257436051744104
0,0242091879647002
0,0327438695150725
0,0471300627657069
0,0326828314095805
0,0319618328925061
0,0239736754473207
0,0302273265526561
0,0531873511186081
0,0329563492916381
0,0290316594965348
0,0258996051158893
0,0263594483990491
0,0226275264183277
0,0286298139087995
0,0214130537818848
0,0299304940404301
0,0310856039080552
0,0344878342243582
0,0311730387693023
0,028834592469513
0,0260410767919948
0,0257050348835221
0,0270607441251757
0,0242971974415974
0,0260834564576499
0,0264009941542704
0,0236963869958262
0,0231026275106413
0,0232703022907562
0,0247096762356787
0,0206921059203259
0,0322382001613939
0,0330434779406559
0,0267907763311442
0,0235191726158734
0,028133326925272
0,0192509456836681
0,0380903815268444
0,0424246868841119
0,0298413932142977
0,0276906927921535
0,024694898236483
0,0253098161420479
0,0256873645180005
0,026771097199805
0,0267453777195131
0,0267493646339827
0,0232066308322686
0,0258802253545452
0,023310166525198
0,0270671597833054
0,0236458251308457
0,0273203489359696
0,0255371142565012
0,0270175475509698
0,0239991006372448
0,0257163525424367
0,0255618222300633
0,028984427845225
0,0515627157193217
0,0498592609469771
0,0482354584460321
0,0399000181219801
0,0367927529907398
0,0283862385968331
0,0292134638631983
0,0238092829085841
0,0269773899017371
0,025823212561132
0,0268407487009658
0,0267186077853365
0,0291377275647129
0,0249807698907618
0,0257566851882068
0,0217463802827634
0,0249807441138574
0,0224399530409482
0,0253181085120151
0,0241441333064187
0,0258098939954763
0,0244049287721015
0,0243753074547982
0,0378139852780198
0,0352166374720389
0,0314449097271609
0,0252278370285349
0,0710748432626276
0,0461637227086373
0,0448759531686047
0,0283544948943386
0,0310351954724554
0,0250704169545292
0,0259521274513709
0,027452407699675
0,0332829712212828
0,0258370112770171
0,0276777462194089
0,0232462910379614
0,0294407748485692
0,0252261850195026
0,0243361097496162
0,0476267675850385
0,0686503878684233
0,0400770132503967
0,0364407967189556
0,0177042110019101
0,0525466915612749
0,053507402249844
0,0319637767709497
0,0320626030303002
0,0283763621974337
0,0279721544072836
0,0267676198276562
0,0253216949519361
0,0257052658667551
0,0351287199371451
0,0275960225159031
0,0298090225748015
0,025382921253408
0,0228216863495715
0,028774955479296
0,0275841094114568
0,0443820131979094
0,0396924629388778
0,0274768903466426
0,0359762541775765
0,0337770367328795
0,0287994190722428
0,0279483824298072
0,0288752560482685
0,0253960528906319
0,0460028295060497
0,0425403123103753
0,036654243515008
0,0492657707973408
0,04079310659198
0,0276091890439706
0,0350294957941296
0,0424666541995999
0,0448069341660084
0,0151031728244666
0,0614293276205129
0,0506034334556355
0,0698979785467968
0,0467452514787851
0,0371416834274649
0,0290624454858775
0,0310309808177269
0,024569762963795
0,0301211266646392
0,0540538384386465
0,0305872670166502
0,0355860935070512
0,020494128943105
0,0543444469020581
0,0397194342566289
0,0413958840150132
0,0286453098724304
0,0341403413202034
0,0285868764331851
0,0585739743452061
0,0251875645593773
0,0431361297912571
0,0631497131209617
0,0712681103964288
0,0719607471558393
0,0321924094184352
0,0427637206705247
0,0677318590060248
0,0391501275262416
0,0406399666442639
0,0250300601845212
0,0413827037664819
0,0208949585853458
0,0504342790707791
0,0708112815203851
0,0423164370551989
0,0387138746928315
0,0343177254680796
0,0398740974877676
0,0661163565354626
0,0413196751461267
0,0364614397450038
0,0323522384803014
0,038038421515339
0,0328158667590064
0,115584246381114
0,0456709663973919
0,0845219826753192
0,0546819931268013
0,0761946404564895
0,048858945358074
0,0569570030530516
0,0376907986899742
0,0735167910374947
0,0607104430726691
0,0497526341738884
0,0277412970603458
0,0841892388728294
0,0575680137255531
0,0523514588861489
0,0477360671401565
0,0414119772719935
0,0420653605377001
0,100737352657208
0,111927900009634
0,0923389893177559
0,0450127495944116
0,0601327166044035
0,0735310091273638
0,0517226712437091
0,0445171592139376
0,0438996269559456
0,0437378341925685
0,0415586763883602
0,0458815445609381
0,060058061170567
0,0454137697127373
0,0618446586601176
0,0409592513117948
0,0612279284942277
0,0727180411919578
0,141962543853343
0,0822427243204022
0,0778691580062792
0,0993668362737512
0,085873104186816
0,0747651942300571
0,0539785840319377
0,0568728887077359
0,0671250889029942
0,0657298005272727
0,0598948127282214
0,0548330012510453
0,0991859929021237
0,065573756708048
0,108418245047859
0,0756891928197128
0,0817767747996234
0,0656411422011083
0,113339242179443
0,255268392897802
0,107220803017627
0,114023710789843
0,0812250396498815
0,151802225540731
0,146341656529117
0,113117609674534
0,095706719431722
0,0976431501498482
0,0879003863016643
0,11138259503541
0,115086754014128
0,121880393599944
0,132310169599562
0,120556966664559
0,118361346752561
0,162404274949791
0,219520842607188
0,233991580238374
0,155118126803053
0,149622545595508
0,166250535772517
0,168636900455652
0,144769663464349
0,163787108150714
0,136511203307812
0,20684907480587
0,197047551433614
0,190077634937418
0,165657048938715
0,194737592750535
0,21171870121755
0,181609575780308
0,266153249534356
0,211299472166
0,225899257896075
0,183036235404999
0,216035195464038
0,19429671882777
0,21911295064914
0,244432664432074
0,237399501139656
0,231449991717815
0,223689202198947
0,227357540060541
0,231402006553819
0,238857023834747
0,235782520676492
0,246648947774174
0,299626453996273
0,302497655734722
0,486101695678026
0,268695943612818
0,272663556688213
0,231402958907181
0,269637906057898
0,277227308453319
0,281021409945454
0,325768907816998
0,274193996200755
0,254687196673794
0,249995736194568
0,245954482833329
0,242676895292705
0,250522752467133
0,242151535378493
0,232998172776814
0,291050554278466
0,229620622402703
0,353488801656088
0,283215927402026
0,271075001325986
0,231765565011227
0,247055291557904
0,225519388959111
0,24279687883706
0,218508053064881
0,264660211018233
0,247552429588393
0,235727021109178
0,223133834473518
0,222596720201822
0,261969809818952
0,249795664128985
0,232516125458661
0,223691868255126
0,212492846907146
0,225480082162323
0,190266905734347
0,262147593572706
0,243974756036198
0,22229599638631
0,20463288235367
0,203208807797065
0,19777880387357
0,199850503162778
0,189078153356291
0,209761967384353
0,190031652069586
0,199338091332835
0,199682708172949
0,1906954817098
0,187960331032442
0,18645490217972
0,196353348377522
0,187395827263955
0,190122830893705
0,186373804127969
0,18638289279083
0,185399917606198
0,180659987437725
0,189115072254179
0,184388632063593
0,195468372232551
0,190531808210256
0,185886545491611
0,189147656150332
0,186015412117948
0,189417657861624
0,183273496507453
0,183167141609201
0,180475713442408
0,181732242548126
0,181688007076071
0,183859604197302
0,181466361317887
0,185198044408862
0,188217763568098
0,184259422512894
0,180558753084047
0,188458642436133
0,19148839588463
0,18192271778735
0,276284771677189
0,198894628250495
0,206403998549439
0,174693983211658
0,191279587984821
0,169280305944311
0,187003433784792
0,239352535566988
0,209448970483868
0,185657580794937
0,178701501199713
0,173578047387697
0,203191150710544
0,176850007629065
0,177484508458461
0,178283772122552
0,165403376718588
0,262349787278042
0,228506124529598
0,352607398148559
0,252551676482348
0,210858520973315
0,164761668109462
0,22529363693985
0,199499503636328
0,181755204057343
0,175916413598258
0,164637503988519
0,240894552208851
0,178930164294839
0,180849251467529
0,164528901581438
0,166453044422105
0,210263635105779
0,212494347156238
0,190242117197772
0,226322425050127
0,20789533815391
0,209375705814812
0,243884898484464
0,273880714262072
0,203722271774849
0,16140377886694
0,172174651436127
0,156146316017251
0,185266719292218
0,226908851180601
0,167228938792971
0,187317044142005
0,140602396483482
0,157841156040816
0,149206690332602
0,197355043956163
0,151623012534794
0,181777862186116
0,187343392446885
0,14210818007717
0,177216771517384
0,167292863370166
0,235398588064941
0,208020592130717
0,163907133814902
0,125931570996381
0,212601035156457
0,179682232642525
0,16414790647805
0,163256461679147
0,117427101977184
0,149213269896446
0,156562712060388
0,12170949517732
0,167588472730629
0,152033124894434
0,187153545829756
0,202932056935383
0,224717073578316
0,196215276163957
0,132282265156689
0,11539171895456
0,110334406460279
0,118713144813477
0,118773186042056
0,0978581235274628
0,179379246057245
0,101056564670794
0,13596088017507
0,164223826084304
0,117318355197022
0,110884058414768
0,110944749127328
0,0996517424956971
0,12392992011071
0,149500105566384
0,186696243860064
0,123631221007103
0,150875396180018
0,135146440243003
0,127563045269396
0,114312977796693
0,117681606916601
0,111644888724908
0,121515438680801
0,135281464084663
0,126503149430897
0,123654684068734
0,131174300182488
0,117501115453578
0,193026864895352
0,158846325359496
0,14293859621851
0,197468450402361
0,170339619225277
0,244474820558839
0,163218369253319
0,167678232068039
0,157724104197631
0,1610969102653
0,167866782809527
0,160569743460652
0,200214151495205
0,206099870513032
0,175962600468652
0,179894813082704
0,173461781434541
0,185170189189687
0,183668955740299
0,244537202837312
0,204552361549928
0,327364591151634
0,233165621808221
0,245619042306307
0,200792413674006
0,195082492668388
0,210737855144018
0,202918904182844
0,200005620388476
0,190224183156748
0,211036698269657
0,234355499021063
0,200696909155779
0,213389872581493
0,198610972698715
0,20698871067366
0,200449491598446
0,208287660068481
0,205805091607111
0,209408332394566
0,214757197223418
0,208272146813104
0,230944306689087
0,314212127767685
0,224992079789448
0,234463960917071
0,219379909747054
0,243163198169616
0,218336467591532
0,230591085217043
0,250677374983798
0,239149669894894
0,234392341656463
0,235469609384999
0,233133208212746
0,232533384687776
0,261487706137701
0,273103645757039
0,227896737052252
0,262176963468437
0,219537493245672
0,33430841455261
0,270034631535888
0,286305243151033
0,267628880295975
0,264893786638819
0,251462652421849
0,25165922076208
0,244901313578417
0,255413758203526
0,257463755759409
0,254939084351457
0,259877301356206
0,250432262304471
0,253439235097544
0,249743723477857
0,260173903721817
0,290357458965866
0,256886777297085
0,258304324104989
0,248421924432312
0,255955261251924
0,246344903545209
0,294265046337656
0,264586642717248
0,266910895400681
0,257154498632415
0,276041070154452
0,282185019664619
0,266197851282431
0,242908712288743
0,258429969986813
0,238122485062852
0,2599723339902
0,232131133427335
0,272590416411443
0,278869290018654
0,266435835189415
0,247092989497656
0,249056982470963
0,241673003771795
0,248707161274571
0,24401051342155
0,25032955570499
0,251201608600501
0,251206792446853
0,255339441274264
0,248571371394654
0,254079736133619
0,264397941453476
0,274618839962893
0,265622576433374
0,246367556752584
0,251814206240143
0,239845340193954
0,250573144604592
0,248916297874166
0,244443429563822
0,22847507830806
0,239870093123825
0,223836767113615
0,24896514547361
0,269059113153629
0,23337291888782
0,252960421710905
0,222294742583126
0,222629348133022
0,220507777870553
0,218705212995062
0,215060761351971
0,219089747795077
0,222209439314949
0,209302114722638
0,214126700918858
0,209453018756762
0,210420081834951
0,206716627126779
0,212612638890356
0,206451431229066
0,207138379213101
0,204810556059061
0,204170489567803
0,20438300576006
0,206082385148951
0,20193730127129
0,202148433655801
0,229552804136364
0,227310452950424
0,233108934791543
0,210006130150647
0,217308057678372
0,208245411989152
0,204298386565126
0,202057353239518
0,197713474166086
0,203679876239046
0,197822778465102
0,200217943132303
0,199315927120326
0,201365001212219
0,196512178294393
0,200748725376381
0,197620451217165
0,197984570263742
0,194932989550337
0,202108824973675
0,191346203656445
0,202149783187479
0,19401621196963
0,210484383032524
0,197172551673438
0,20447708037878
0,198754648741974
0,19863053478739
0,196131571971458
0,202372824654875
0,205606488621697
0,195355299270765
0,191323048882429
0,194343966149069
0,194594393547753
0,19809340176935
0,192000303273909
0,197259326136152
0,192071464402817
0,195708615254097
0,189196279778278
0,191888761308495
0,18782042125268
0,190526802362223
0,18592173884417
0,184984002740336
0,18046017764844
0,181827087763478
0,182044766450337
0,178180759846139
0,176036431688969
0,177329029156804
0,17189090213217
0,174582406845037
0,169832533024367
0,173327144720564
0,176654732099468
0,175261662608039
0,169785705380504
0,171738780089301
0,168925254798916
0,168821442637833
0,169484765148119
0,170878686729096
0,167033009482015
0,170515554907886
0,166204550321832
0,167383432395315
0,165178863287287
0,170626655477104
0,167044943672989
0,17065123748255
0,16788782316549
0,172300920629956
0,172451097317453
0,17546750682822
0,175346353233498
0,174547463280718
0,174674257292185
0,175798379271057
0,174904053046027
0,178018178856414
0,176336972647119
0,178658368937986
0,178189695850562
0,177242801682723
0,181397019298532
0,180490850406292
0,178129870882478
0,180184586929086
0,178969846621128
0,181358671361002
0,177207009841522
0,176314515168808
0,177515262215641
0,178005430101197
0,175019291721542
0,175522454051914
0,17551840164121
0,177798877496533
0,176864348092507
0,175959392046687
0,175410652803053
0,176804647044956
0,173778320679359
0,174199327167306
0,171295363280993
0,173273350467555
0,171200083600932
0,170893582889461
0,168696320631666
0,17098784981856
0,166605011077199
0,16919668421435
0,166230744928961
0,168562866147898
0,165554405281377
0,165128387240232
0,16396245655004
0,165921016569255
0,161677785480727
0,16161651502453
0,161437333720963
0,160427241922982
0,161047468632793
0,159954408066963
0,157135313728907
0,157577173792525
0,155633100173881
0,15715952518354
0,154409371187177
0,153994359810423
0,150934370669782
0,150302299096109
0,151175779613548
0,148583101521394
0,146677485611583
0,147774546728511
0,145970944604005
0,145349082134889
0,14195232808848
0,144029415273186
0,14275806349659
0,142764296198115
0,140995731740023
0,14167359831699
0,140422742136344
0,142105207560286
0,14069680478274
0,142388534535692
0,14247490137509
0,141443386993191
0,137955159972445
0,139297668754351
0,136286979500596
0,138360811106772
0,135998411408266
0,137807430584858
0,133238977933068
0,133440778999849
0,127925664841509
0,130581250178191
0,128682826037575
0,126396551722719
0,124810756105174
0,128886125194804
0,126189883305339
0,127365475310944
0,127989788121291
0,131117956521181
0,132879304142462
0,138728147853096
0,140663652639908
0,144461690632727
0,149617463880853
0,156028023017807
0,162263854925156
0,168636830323166
0,175622281844481
0,183378519501452
0,190481313037044
0,20141505107178
0,206569682633032
0,217804939563782
0,223538480094712
0,230834336288453
0,239492477122042
0,251533104873684
0,259390580500351
0,266558595271629
0,276870274006243
0,285852440723422
0,291596003616867
0,3010450242544
0,306756062843481
0,313732959740806
0,320244449782815
0,327359149275148
0,333501296446601
0,340605129655009
0,342746898438815
0,347544915194969
0,348332871205628
0,354216881269352
0,35421906011328
0,354846042077457
0,356217868173307
0,357243849556547
0,353393473879473
0,353695651079883
0,35335535148941
0,353889582512371
0,350226031194928
0,355030834459212
0,347048463951016
0,3514498391227
0,347248641489165
0,349850030768083
0,349938702333351
0,351592598252279
0,352536658019448
0,355201108150667
0,357988773175046
0,355924256279891
0,357052322818488
0,364714232229279
0,364528220281223
0,371661754889239
0,37500699174045
0,382593024846189
0,384476011551533
0,388843837576488
0,396241584815105
0,402684353544173
0,40725213646002
0,413884858974928
0,417542354329141
0,42399695078654
0,42475170496477
0,428663208636856
0,428646973523604
0,430309035368728
0,433898757298905
0,434443785512307
0,43108550493407
0,435039207014448
0,436267099578884
0,434269028539415
0,433823014727031
0,439497093942332
0,435471522130986
0,435454485454683
0,438032663322592
0,445215883846534
0,445915424945465
0,455047527775888
0,458214897792366
0,463998838727359
0,470143122722404
0,47989208542347
0,485698375570741
0,492805619119472
0,494664925088078
0,504168069325265
0,514585456973214
0,520373481191001
0,527051051424644
0,537454549281306
0,542895886198123
0,553204310235876
0,563424647442506
0,572382481745488
0,581878034014057
0,592063136774083
0,605351196329641
0,622768847130171
0,632655064855767
0,643031300468483
0,655529823702967
0,66357029818252
0,673372335917791
0,677639207231743
0,693904743455963
0,700143913147013
0,699461326664965
0,705429826522827
0,709297213989992
0,704868540084435
0,709732353056817
0,712847610769406
0,70514469478619
0,702450466400966
0,712000824688355
0,706250811424924
0,698393841591504
0,682475208273016
0,68893590943272
0,689340167042647
0,682586420267399
0,682348900219159
0,679321793548221
0,681363263085553
0,678014813906953
0,684102629143608
0,690688421755729
0,686120515548098
0,6945386198579
0,705875918284581
0,710091594561286
0,712704317991532
0,715377718265909
0,726492681134186
0,724716897669098
0,738905046556116
0,743551306948793
0,746784683171043
0,753513128878627
0,757023930552883
0,762419007646807
0,766992789485536
0,765981398228446
0,769395473692006
0,777262199946165
0,779325870497986
0,779222654120356
0,776635493069697
0,782392467153358
0,787135850486639
0,779463411800501
0,783471340950015
0,787228431035406
0,791910731615191
0,785839610933057
0,773874419902213
0,773442901754175
0,778006716108458
0,766478508230071
0,777302278540207
0,76991850206272
0,762520240780055
0,752778456517929
0,743303964151729
0,741823578834363
0,727968006574467
0,719097968969093
0,709366571923848
0,701816588408817
0,682848951574961
0,666467888655739
0,653446663481512
0,627886236337411
0,612688339762414
0,596727707832603
0,570084663947741
0,539597419232256
0,529115999866886
0,510580755877062
0,487737084282764
0,471643922670205
0,455936396549895
0,44475060988293
0,430617152846741
0,421802699383639
0,416781552386333
0,409568700102136
0,400988309390876
0,394379135260162
0,391377221777663
0,385860334407705
0,382049065464248
0,374386028557409
0,369751402793094
0,364731413883908
0,354674516259277
0,343411353450691
0,340567722236589
0,332047845695776
0,320527717205782
0,312582592613957
0,30592024530299
0,290536939989081
0,282281601007848
0,271593180344041
0,261671440571653
0,250674069746611
0,238551023426782
0,228777565980005
0,218588333456871
0,210038309917858
0,200301926738689
0,191749494305643
0,182788591785652
0,173369481696359
0,163557533138386
0,156016514250742
0,147075365961651
0,140805978704595
0,136835094925243
0,132017348719013
0,126177603627819
0,122660635477783
0,114593578617562
0,111757978325719
0,111261449962594
0,109576225075375
0,106057635442827
0,101509172243447
0,103185323398233
0,0997414944288302
0,101349788064885
0,0994789309507081
0,0969325126704813
0,0982071053518555
0,0961308740571162
0,0979185976643763
0,0966628464869386
0,0960078363956209
0,0953776022856429
0,0976406941000096
0,102396965358351
0,098509644481646
0,0998554248005416
0,104006042179159
0,104846393900325
0,105218868935814
0,104809742726027
0,102804227589554
0,103564393524019
0,103179531766694
0,10860135885874
0,103406143169976
0,101453026061499
0,102010584811082
0,107096961657443
0,100609246597684
0,100372292625835
0,1018982995377
0,101804473177642
0,100283705348054
0,101980478014008
0,104047524153146
0,103326618293176
0,102293459189113
0,106970925718069
0,106817472761907
0,108813620774123
0,111141512675028
0,110042436121204
0,108711768004864
0,108358601941172
0,112338027175158
0,113838038473167
0,114330086024378
0,111815714355837
0,111559835024515
0,114709768118238
0,114588295221759
0,111767450562823
0,111369500057693
0,111209839049599
0,116560194136734
0,113577092547438
0,116038301773991
0,112744660142207
0,116833355427483
0,11653574961882
0,119154277777375
0,122268185676708
0,120611084085706
0,120707264362404
0,126038944599992
0,128180804363888
0,128902925536019
0,131103543067846
0,137603192005902
0,144171533386788
0,142024447554855
0,147053913993293
0,151099389479571
0,146485883848076
0,150908713669262
0,151011067766095
0,149891186692787
0,147080292977492
0,147844237674412
0,139713748707774
0,14394539925788
0,139920282471684
0,130762389767917
0,129009676862171
0,13165113939269
0,128441443680398
0,133630576917708
0,126826039319966
0,127938029439145
0,129288104870724
0,125376206354258
0,123386303930754
0,128670752342369
0,131448031456236
0,129702749818912
0,131906591304978
0,128580273032177
0,125257716724929
0,123129048659052
0,123293310932177
0,124385751923911
0,126028235071063
0,116949939642316
0,120374295799209
0,120343887629639
0,117558221848755
0,119017035645664
0,118414665423167
0,119194158835413
0,120149578400445
0,117335627806832
0,115859953850204
0,119255764026342
0,118865998599178
0,118433892190562
0,118055062997536
0,114493318912795
0,118432509302937
0,119096704052477
0,113539649062122
0,113092715490513
0,117785952169278
0,119161212529199
0,110645780690902
0,114040313973673
0,11113387616021
0,113665904459334
0,110232113281593
0,109617222825243
0,110177798671176
0,10490460896108
0,104216896392018
0,108442789305176
0,105206990018971
0,10533693227708
0,100863745189799
0,10518647373566
0,103151249926489
0,105106508111106
0,0946006203257582
0,102925578574076
0,101421383094393
0,100749668561642
0,0954194247280901
0,0939544829563168
0,0909022454535056
0,0965360561978716
0,097109645070867
0,103490703138096
0,107556355611187
0,10093407934491
0,0958385592795445
0,0995635404138082
0,103407846456329
0,110075044882381
0,103998909442463
0,106922440851621
0,106409557160008
0,101629192688136
0,102922489417852
0,103847636783336
0,107946528570509
0,102901575543409
0,107854461690316
0,120782548073317
0,109106744280814
0,115271577859761
0,126590470926725
0,125156827248216
0,118139689068018
0,121965699198467
0,12537392452775
0,126263823151221
0,119553050279158
0,128009610413
0,122075165471127
0,132767602466187
0,142102692584093
0,150927700619437
0,155587764688077
0,15149018608309
0,161218837709501
0,161927654426829
0,158297735126039
0,180141594863613
0,16761235935426
0,182731627647022
0,181216234910268
0,193603033097371
0,197576756340438
0,202098672497606
0,18677855083273
0,190541243882585
0,195046111483422
0,193206389605693
0,188244176063228
0,184439201473145
0,18103007563644
0,186983278419558
0,170142024193897
0,174021360331396
0,178094650661038
0,183768771532131
0,178143464009628
0,180863120435301
0,176455117907212
0,173547232591021
0,167504895096317
0,181710277024724
0,190187258184988
0,18136900134139
0,16585647819786
0,174793657826826
0,176135419849047
0,167714766189804
0,164983178244291
0,183739766236176
0,1731295169163
0,184347258355168
0,179767757938811
0,188899501297078
0,170940857675412
0,172872045101951
0,170191120779853
0,17068447017154
0,15549875450946
0,175850761962775
0,166123771464749
0,177510861088079
0,179131159713078
0,170962314499153
0,162131701970119
0,150000929445001
0,14433012782124
0,16705102583736
0,171701278268724
0,160961624261587
0,172129168219297
0,18285727996019
0,146229422865405
0,162445657226842
0,15784371713582
0,18699892160623
0,183249824086294
0,16216577181313
0,160631785033336
0,165566282721458
0,179361616541735
0,163376494515731
0,165479706443252
0,196917660180304
0,187353385701363
0,169263774012591
0,190502598521005
0,185161758612969
0,166584746029297
0,204876928426372
0,202883833868049
0,179637005204425
0,190219407810841
0,185748171425584
0,211061389605964
0,209739539518118
0,219939193300943
0,201725684500401
0,18296369697864
0,196475143803535
0,221554080841111
0,209820122779095
0,218058544037392
0,229198973302628
0,211153219418807
0,225464374486584
0,219458070040263
0,239636399864678
0,246101786160149
0,240653908245171
0,236013942520756
0,252568963107493
0,223077247484469
0,235228973731033
0,20855110414403
0,24639898845977
0,233190427298417
0,222301412212692
0,239022108765936
0,235424880154213
0,205473920150778
0,223520142091578
0,240698119854461
0,276920190197766
0,254221688472519
0,239848943946833
0,192577788296593
0,23456980962566
0,261717181000431
0,181996850765664
0,187773169272955
0,221277632824529
0,221874325327534
0,223738305632495
0,256486674086298
0,277901886795477
0,244365686885268
0,240197226442746
0,183865851880318
0,184370725364642
0,247847008508998
0,205888349676095
0,2183187437861
0,206381507178735
0,223467730806925
0,321159561174189
0,215430855362473
0,222437444047352
0,231578051224638
0,253619589124306
0,26368176101789
0,209716612835817
0,159416502027211
0,20265572879046
0,119381275827175
0,310259407166262
0,305841156719791
0,144198433502313
0,209092843357647
0,22478460920686
0,203614120255393
0,265817246508077
0,232521265650381
0,296072346042784
0,367247722441297
0,203177646615817
0,105824931117799
0,362108791171371
0,387129431915619
