3596
4000,36533379555
650,420452594757
1
2
2
0,0983308049607564
0,100790454309013
0,103087509765392
0,105472112009759
0,104183660760103
0,113774001518593
0,102250663022115
0,107322395502859
0,105502064988915
0,113885755139754
0,0991107557078583
0,103856804548785
0,0992769680053489
0,0976914561918841
0,100043218787049
0,0977220392353177
0,10271373455763
0,0989093069820407
0,0985131892029923
0,0947411287337882
0,100621168649541
0,100007052932573
0,0964225190072034
0,0969284662623366
0,109443782433202
0,11245324321216
0,0962797465477218
0,0986875589757097
0,104276210510588
0,105056080601599
0,102970038620681
0,105649911026622
0,106193753326602
0,107361293643986
0,092249879679767
0,1008901809297
0,0977358730358433
0,104237105046701
0,104285674080655
0,105310564614945
0,10589872771895
0,103754641401255
0,107711953144104
0,110100463872
0,106457530692326
0,10824878972815
0,114629122280604
0,109218904084376
0,0967697879276738
0,112018390131265
0,104005040132013
0,103812518487506
0,116879062989501
0,110941671034003
0,118847667528596
0,121748406987301
0,104419248330976
0,103408154732872
0,104590643145383
0,104069602555692
0,119646154714989
0,125282679395417
0,0981337937522903
0,107623454030483
0,100148614696426
0,112040369215542
0,0940566873188854
0,104445352235375
0,0896148367215325
0,115719593506089
0,0985776949862914
0,131032617006812
0,121216873785487
0,10353987791543
0,107094221973373
0,102971439211021
0,0988208030491315
0,0988826547138926
0,0995937705341054
0,122537341893209
0,115985067969713
0,109523141855288
0,106329308699942
0,100611518445479
0,109042181736674
0,118511771507643
0,0939739645576345
0,121477089008992
0,131494873683568
0,112159468622518
0,0954838717831566
0,100615049328606
0,095935064339716
0,104583450907194
0,0951109125611994
0,106392640859418
0,0930774668142513
0,0983639511261849
0,0975753802397968
0,115636955856812
0,129536820393634
0,117854888848192
0,153078294909441
0,117054485337303
0,175446698477049
0,117999436990893
0,1068574202285
0,156042420867473
0,111346381166472
0,118651023876285
0,0925952239188339
0,0950714410496151
0,0936090114397332
0,118999141230478
0,10153930075339
0,14155653183273
0,137736383804773
0,113402602284249
0,102883294616314
0,104810567443188
0,0884187329489631
0,134206387912628
0,156292911263453
0,099026076860534
0,11863877587391
0,108706416646893
0,103557106542035
0,153183828049767
0,130930558843353
0,103250197257796
0,110486407562887
0,0933266633421493
0,0926826011139289
0,10884169393934
0,154270466121046
0,106355160659694
0,116931575145271
0,113702987279274
0,146520761056115
0,17440337512691
0,125748399865816
0,105726762504548
0,0961590487851079
0,0994988184966967
0,152350308338948
0,116198454543361
0,102424089659937
0,127907596702232
0,118445825162012
0,0893386552351361
0,0951986308508716
0,100308261696983
0,135342472238926
0,123200382450479
0,0887677761782255
0,153142840709001
0,198301371473875
0,119656407611865
0,20119209975263
0,0963160763511963
0,119452993899649
0,0935795650590044
0,10422404985213
0,0973044865788966
0,0997545086028876
0,0987401485071232
0,109162430240348
0,134961561169376
0,104612542731866
0,110900388052462
0,149325884621697
0,131761314984729
0,109429042128952
0,184954790707606
0,12627560935798
0,109753474381591
0,151901448007471
0,114335448507435
0,0993727402373289
0,120500714998361
0,144266635311959
0,0999757189420189
0,10424022886082
0,0930736603083315
0,117888303903383
0,119411992281035
0,110693811303324
0,0983851276950798
0,119231537815004
0,095816687122294
0,157940914581592
0,171619682325248
0,151074375686762
0,102238791085735
0,116457738685272
0,0801277109129913
0,162684665620213
0,140494158457137
0,103508499052139
0,0990643627689553
0,0990954049260777
0,097394094890957
0,0923650992409334
0,0941367493794522
0,104396127068767
0,0916251886098119
0,170790543778803
0,124838886757167
0,11191049975257
0,0990503043125231
0,121519689143511
0,12220107371131
0,179088764698259
0,146542838489333
0,0959199924915217
0,114624842120194
0,105211741857365
0,131098101611821
0,121701776845982
0,105226692314612
0,104733066217712
0,0949653289172261
0,102938865823156
0,0943332236437636
0,098636361655776
0,103027463249884
0,102672473257317
0,101759211226244
0,109364534290237
0,115174993856019
0,126688591637801
0,107646515410945
0,104512329170055
0,101757261516581
0,105020116706419
0,116703646965519
0,136918400942783
0,104669223890343
0,115397400012891
0,0903448960623097
0,102525003399629
0,0979093000444132
0,111055805380622
0,0966333978673783
0,109383250482811
0,101956385013105
0,165377176975346
0,10657049918694
0,111371504612631
0,0963006523160845
0,133969676813231
0,12996124805233
0,101072288267084
0,103811821521135
0,104343256403101
0,095222315801605
0,120279255064812
0,160978880460785
0,123067962496724
0,112417911082634
0,129643261806927
0,125563340094038
0,105859903769231
0,125342136540974
0,107531360513249
0,208271836312944
0,149885108960062
0,120869878388918
0,189970221661462
0,139803543016352
0,127280851954936
0,127635949971558
0,109444693363231
0,258398861673217
0,17451181498433
0,124966078134027
0,135122453823422
0,139887878478542
0,113792910759665
0,123788377403506
0,134395916659191
0,126074258824201
0,170620738729657
0,19039723730421
0,203996209130064
0,111184529521332
0,168690826331573
0,151750374422397
0,112758745088398
0,121405372086406
0,116129146314312
0,130781414643628
0,145145526059239
0,150034421552306
0,135767907748892
0,136217134627872
0,130238575862278
0,163939811947584
0,126608109676731
0,127015776204988
0,138324607247458
0,147992669302993
0,1105453289726
0,130214993886349
0,123238384656133
0,131825569307457
0,126334564575809
0,131449936220843
0,192060923574829
0,151543497903135
0,136233758637847
0,180086012744674
0,126607034018396
0,124464055792073
0,1252379571954
0,128270926099665
0,116557054822461
0,12703208888104
0,124459807217606
0,167596502039168
0,143840500029512
0,131086260252311
0,132980689961548
0,126697923550175
0,139543520415643
0,139521367610229
0,136544509999191
0,142227279194646
0,143518701579376
0,147619959737121
0,176591569400782
0,190387402752991
0,13534822385583
0,186116957611806
0,186124687252567
0,140999936489508
0,153415379054739
0,145413042286439
0,156665635172741
0,147503611016959
0,158114416953251
0,157108581923351
0,167836954882251
0,18783633203177
0,182531070540999
0,170165952712743
0,199980038321774
0,251744558569223
0,26445916496725
0,192991776043808
0,182007857597095
0,172589257451021
0,236637120452968
0,238527063527859
0,207147994314864
0,233230467505042
0,184659678088635
0,200883937106856
0,195615830578464
0,202630253485456
0,195318117726508
0,212214626684716
0,209775686029306
0,215718341243966
0,214059273061238
0,222735878551116
0,229264831895664
0,245971136469572
0,278909903980655
0,248118055208528
0,238536057834288
0,247297300167522
0,240531065187688
0,28799812018597
0,311424893669588
0,310968854661004
0,31466915346965
0,294194910564999
0,33998672975283
0,28445506776977
0,282137933124564
0,265850160158749
0,296726655784754
0,299544764022688
0,29326083850308
0,289941685978496
0,298407793497787
0,296249209745109
0,31914514280851
0,302635825732463
0,324860153973647
0,321751524294705
0,356068535204016
0,339877765970706
0,338807056173357
0,341352625148517
0,391755249286611
0,449212414334878
0,424908879091885
0,377108979069495
0,361863871297008
0,372990760379471
0,352118496771615
0,376194063239774
0,372955349279419
0,39875567848258
0,40193240577296
0,44568971616504
0,449355011971486
0,43787291582544
0,427214323525246
0,40869995392654
0,443945974682675
0,450232448581145
0,447644875963794
0,477852237924845
0,448746471318313
0,439588485671891
0,479891295646688
0,487706558740556
0,460101133191366
0,493924574834449
0,457502276016233
0,464865513620312
0,474328167543874
0,486932457085675
0,477170868394617
0,491908736996215
0,49730553012534
0,503503994708665
0,516139015501271
0,52125342881908
0,524526479230395
0,537318846145729
0,538413540256245
0,52500012124622
0,540060078182213
0,525049450637391
0,530096368143157
0,544250975761961
0,586387494775876
0,619436535280102
0,600897875647977
0,62565094181158
0,568999474964332
0,586231461369386
0,591141711265791
0,60770068693686
0,570514893122547
0,603880162774677
0,602878390625507
0,610294121249069
0,609208583583183
0,63215195309994
0,632037737320275
0,612112794819877
0,635237659699975
0,655671326834579
0,638123860319055
0,665650802404259
0,674873364658403
0,681080400484603
0,715194292779242
0,738837770648977
0,719137200752399
0,732905485263044
0,670730696691467
0,681876089852331
0,696136909745486
0,703362240066485
0,697018825456097
0,758979072599091
0,732907561205585
0,703867746135367
0,715950097523913
0,752011672234192
0,731828974357126
0,756020896833536
0,794724370235899
0,780389451215558
0,749039944443562
0,789994329721737
0,793308846151272
0,789556129395043
0,784228520030101
0,790850441331244
0,792523104609988
0,81409700948316
0,818486273070861
0,82227835976541
0,78078825444675
0,803267003659433
0,868447576930766
0,837868479609781
0,821502150981569
0,848385670416221
0,826936087495105
0,841433575525831
0,897915547390432
0,873443090957927
0,874887010690337
0,922342034082358
0,854164273078298
0,878909970022365
0,902493308160011
0,905264948077238
0,885643107612026
0,914240850640882
0,902190023551496
0,915857887916654
0,916977620954439
0,999118561114913
0,961796356167294
0,918024146092921
0,92994808947362
0,991450039037715
0,960606855503086
0,95259369603585
0,920653086626219
0,969514308425668
0,998815390815871
0,971615883920252
1,03300132828518
0,99454134446389
1,00412869355804
1,05215078962068
1,05705476455035
0,991445183938305
0,945182013145709
1,00289405402002
1,02852628786392
1,05852900939698
1,05530365425052
1,06062741618697
1,0509403393236
1,06079867606265
1,03916857139623
1,065244348274
1,07755289415322
1,17317983071049
1,08625575784598
1,05997972434067
1,16297244596815
1,13462564855528
1,09625958427778
1,13780169760712
1,08022786909882
1,10871109317399
1,11804758150997
1,13963794400534
1,16384665769954
1,10704926806664
1,15013147994114
1,20263500654976
1,15870408616445
1,1257463941476
1,10339998722353
1,2207093524986
1,1325804033316
1,15969062484802
1,1624593811448
1,19879196311641
1,22404850789425
1,21724097282388
1,22557401221639
1,18178144600321
1,19369205554517
1,17890295625102
1,16794289746155
1,17304335846622
1,20528816632909
1,27632843004215
1,24289475717189
1,3141394010405
1,25731207293592
1,22946304362332
1,25831417061444
1,28298915851754
1,34466685575734
1,32335230152844
1,21379497868087
1,31861220633714
1,37011413941975
1,3316776822798
1,30154910359282
1,43474355718485
1,44008166629429
1,2750839416913
1,28911044522673
1,30371767927223
1,30548639551137
1,35094580285278
1,37634332158487
1,50805479792431
1,30289169854775
1,24280663206564
1,38974354713015
1,34463851614997
1,33212104882108
1,33302583648672
1,41259673758884
1,37900078057051
1,3310536381071
1,40941587635252
1,42655223219536
1,29676699479307
1,45198109842434
1,53642591546
1,38623467536786
1,43157226151805
1,40334228230162
1,58694150057873
1,60553156807475
1,42030659156295
1,49614327896163
1,50138771694074
1,49964884806767
1,48872951031471
1,52020266491776
1,67227156199099
1,43448829141235
1,35551314932006
1,42386019683496
1,46687480129486
1,5018983397111
1,4438730888593
1,47528411712743
1,58847263815084
1,48716117582914
1,52690824840623
1,66374222785883
1,53307662056036
1,52354994542291
1,561990618098
1,53274544931869
1,5454951359754
1,60186462007876
1,64962391415482
1,70649865763973
1,49261034880397
1,46137240118102
1,48320196578666
1,46592292109824
1,51939352504999
1,67214822841347
1,55037640560757
1,71759775182279
1,69905333515116
1,54374766501265
1,72269569667416
1,72046479732485
1,62583145397704
1,68294613386681
1,62639143470707
1,60604111969859
1,62049235815543
1,61923933702204
1,78016434389092
1,77688155207633
1,60811442733985
1,72863753597188
1,53266615960078
1,53587955551486
1,53620397708069
1,5849629266595
1,56280503395761
1,65049800978615
1,68298866408206
1,61681435819927
1,63980948182018
1,5523820869901
1,66040367552496
1,76376384530059
1,71341386745524
1,63065145335226
1,51795890209131
1,58768228220352
1,84196947251106
1,85924452632538
1,71518720724053
2,0290812448535
1,68641148329733
1,73376789929424
1,62491029308401
1,57600165446791
1,6896779495002
1,68297674291785
1,70518093837334
1,75784497646987
1,6504833382796
1,78398200263944
1,63165611272574
1,58097790673321
1,49455867351969
1,75339957548806
1,80911209822818
1,57714269576839
1,72764428981036
1,93438245017373
2,00495018006767
1,84425096897079
1,70829280638224
1,76303121658252
1,64404108455721
1,64320304710754
1,77036409348804
1,93637782899183
1,75754172814534
1,8210330572689
1,81759193544298
1,75220356467803
1,61659465624302
1,63540044237898
1,7188466682679
1,69891877743177
1,79849727294559
1,77547383514241
1,59738656038281
1,80601204215964
1,6689143481436
1,68318180313765
1,77136629835701
1,73845778927408
1,71214891015867
1,89210812268656
1,80587305693545
1,68330409245364
1,66701685095602
1,62099725338549
1,71244102562904
2,51643923561153
1,83146305862551
1,63581114361576
1,71179181188029
1,6118919590943
1,71206553709281
1,56532886424653
1,56896596602446
1,71601408683288
1,60626321174619
1,78264588106233
1,62909381511276
1,78052724891013
1,90918148287931
1,83353475322276
1,86208678618928
1,7828793833817
1,93962879122152
1,69400165376608
1,70181979057649
1,75830269085084
1,58512877861227
1,76871622080591
1,69899432573639
1,68074618276942
1,65070280995335
1,61653670589202
1,6612740420997
1,8157861961302
1,75295900438533
1,99843071559527
1,67492193067175
1,80388891041606
1,66792837194343
1,6627926278327
1,7747877116984
1,76153124122935
1,70516702617325
1,7598465011944
1,66723846627849
1,75126023902429
1,79171887313657
1,75167412425427
1,76157664044418
1,82362247256214
1,72796520011606
1,81427027334339
1,68479466436064
1,66906036525182
1,62814544301348
1,74107851835277
1,68979213512776
1,70368074704716
1,67246087229375
1,68454738304025
1,89366038653092
1,75434302766094
1,73753384075212
1,91569907635043
1,63991859911666
1,76519107271914
1,76888340347308
1,89665636336987
1,52033136535801
1,75428535417191
1,72267040177222
1,71478905466192
1,80354473199304
1,86005691387093
1,79620822450899
1,85477954575075
1,70231085741079
1,61288644783274
1,83553028085201
1,83914566491346
1,66432758892084
1,84459921763259
1,68737550712424
1,74327987501233
1,71725728644172
1,86909564177502
1,79248220924102
1,8949050711304
1,80519085546887
1,63264853731732
1,67201831785332
1,70566675463915
1,65130075346649
1,65059577698997
1,64319536661095
1,88841228285041
1,57654337588246
1,75882040334892
1,94762895216355
1,72135511318074
1,99014284376703
1,83672970215272
1,61288380277491
1,70146931969822
1,72200422960872
1,73673455599546
1,71823055065949
1,68245265921816
1,6890845069158
1,73078684166169
1,82119476549241
1,62866893206115
1,5821396702539
1,78056268235404
1,69214019500102
1,68990417415861
1,87193154940112
1,97418530907547
1,71974998140159
1,59333911611888
1,54720125134765
1,52027179147312
1,58856584841418
1,77612461249617
1,47864972799791
1,53484610968516
1,50901735227397
1,71751439372811
1,61618264462465
1,53653993880808
1,56077394210472
1,60196731235384
1,5475088001891
1,67257223956467
1,59872065964183
1,6614909584932
1,59424799768661
1,52607201187006
1,43598831647751
1,58890452950406
1,57002376398166
1,6070851049853
1,54716250376942
1,50490399876562
1,52595201997171
1,5263104540071
1,44199675599069
1,53270598145382
1,58851567051525
1,51937299312554
1,4231078981995
1,46351323841642
1,46949979418932
1,44817945065206
1,49076894434623
1,5960272289305
1,47908635792626
1,56121621858295
1,4436991443918
1,48891796035218
1,43715992837575
1,44962736756003
1,42096975787149
1,53227114991238
1,41778743650138
1,48311026468501
1,4163920712192
1,42070184928344
1,39696746956917
1,51516728514669
1,41421415705916
1,36994940528352
1,34202017627709
1,43056475675469
1,42523155073743
1,43299020850962
1,37456853789519
1,4169062324409
1,32866377680532
1,30774864902908
1,36217716908102
1,33144985367787
1,33223153165843
1,37137651855375
1,29749231470908
1,33037284496941
1,28612050031511
1,38008456935885
1,19180873304231
1,28041108116676
1,27610582468465
1,269411454813
1,26635449721598
1,24833294841879
1,25644333253016
1,24198995044944
1,2003374016003
1,25366192368068
1,22679545285692
1,24608392226358
1,22136681069903
1,24844915725873
1,18651760507264
1,20223336374861
1,1750449954302
1,22176922356159
1,20562241153609
1,18153541920609
1,15051505878488
1,18164921375257
1,15005635913716
1,16721866706566
1,12465484850013
1,14128180611918
1,14582463606514
1,15052548081186
1,11185280955193
1,13243057815077
1,08339022264883
1,09316037040926
1,1043207860459
1,09983217882657
1,0879293856141
1,12627398084623
1,07032787113142
1,07297372120508
1,0435346290032
1,05517817912235
1,06616719888987
1,0662897727594
1,03833121838475
1,06725725739938
1,03757614677506
1,05089231580108
1,01452013495349
1,01197888442872
1,04334174101988
1,03213149717992
0,975427036427031
1,00356669921508
0,989072507050304
1,00415173149338
0,97581904079293
0,95468938991158
0,947530379759544
0,986582809716154
0,957944081768832
0,954312557690097
0,934218028022368
0,955995978255939
0,924981904565169
0,955992782627188
0,936581748196049
0,938284315043587
0,912210702889807
0,940630346717663
0,878597842807054
0,917469908889691
0,888371718119712
0,896685474477771
0,90326261069654
0,893801813335416
0,886474682404732
0,900471071308126
0,880239138998512
0,884528422731307
0,848170960642421
0,839112668904794
0,862453754957964
0,869823162572103
0,848835013697209
0,857110475707719
0,82766166851023
0,829816447692244
0,835818861805513
0,827526939798543
0,828399597292035
0,837909550055552
0,821379979685919
0,819651894737807
0,802499342728983
0,813625318297198
0,792969330767504
0,811735524133205
0,789189980556961
0,790444785424829
0,76694528796104
0,771200174890975
0,754902029776383
0,765489668095272
0,766437052314428
0,752951039461131
0,7510586848277
0,767682951391395
0,748695405629058
0,750569834405229
0,726469589424208
0,733743169492127
0,709875587505187
0,729009387491933
0,722554642520349
0,73526850188387
0,702352008177685
0,69858714046822
0,692745463517827
0,698292972585859
0,697502048868275
0,707961729198519
0,683875639787265
0,680733254780582
0,680549946231362
0,687084284794069
0,668584281349056
0,682130838065943
0,666096714762463
0,667179285510483
0,657313157749488
0,654936313554308
0,651689019592457
0,65301157338945
0,625597436374314
0,639351805982821
0,637413933217711
0,641649845496876
0,634634574345198
0,638104952340134
0,609150301258103
0,631537221214706
0,620823647859598
0,621961492961915
0,608699705269988
0,615049509052129
0,60465479099795
0,604636329176845
0,589114582234272
0,612571188640015
0,591972608890945
0,59755559094743
0,585531902291595
0,599879580555403
0,576312346704158
0,587684748521723
0,581301565325883
0,589148317975876
0,566890991520165
0,571506018274579
0,564741933817803
0,56291363941366
0,558278849012361
0,565892753580059
0,558272218752017
0,567375388685015
0,551574485546942
0,560008228463206
0,561398544953519
0,551573388587851
0,546319593215171
0,557569402427165
0,553815458271084
0,564020516264604
0,550139902721348
0,554474617569837
0,548671347518198
0,559319467686376
0,545667652400784
0,539643945633291
0,541490737304116
0,559711150911698
0,54499034232655
0,559472046959714
0,532330666673879
0,556664515890034
0,548463788172975
0,5527246015973
0,542324039142041
0,555397182085157
0,544054569266307
0,557130865248352
0,545794061423033
0,563137751495069
0,550072566790907
0,558214168372687
0,551160872631319
0,556944001469765
0,547243146226896
0,568545752973335
0,555485056394359
0,561118627832428
0,551461260069514
0,564151914071409
0,564013866366761
0,56128176714478
0,565428881702516
0,561565799112887
0,56428636095135
0,558412026787547
0,563666181353484
0,566785380038855
0,563134413979309
0,58164540416149
0,573409023576324
0,585892994387638
0,580272771153573
0,592846365340563
0,578928846778957
0,595702635134046
0,5897233883869
0,595863155180968
0,603105386071886
0,599762266353328
0,601679070528492
0,623513053990981
0,589750054826479
0,610757544685994
0,601336351796597
0,610807284538695
0,607438522918799
0,621875091241391
0,60891421211476
0,612347953074644
0,613358783038031
0,627342209932013
0,601996906047071
0,623146049985746
0,613839279313055
0,61505762636877
0,607410959840389
0,617329072044204
0,596521373362766
0,61722847799444
0,598163374365271
0,616639360236661
0,603718293841014
0,611494854257929
0,600333650255367
0,605428725334813
0,583633392255372
0,600907120251409
0,583539038007536
0,586367785117467
0,589392031047259
0,595403495398022
0,585994761651412
0,591311603502621
0,59190795214143
0,587053171167391
0,58835292241202
0,591010018010469
0,57436471599783
0,578509328250942
0,57579374220664
0,594585490508337
0,578457661831678
0,584089184372762
0,575378383112434
0,576469496361298
0,569372297964773
0,580363133072275
0,570998750037794
0,579720464622609
0,57236062874005
0,579741337073595
0,5693189881569
0,581773733926437
0,57742432688289
0,584417036420099
0,57209219884074
0,568782159450658
0,568649027996585
0,568944497537296
0,563534235309647
0,578320938057898
0,572317091918595
0,570841570026071
0,562447646151133
0,564494019118211
0,566717184044913
0,569605420799103
0,553126451722299
0,567895394415243
0,545847736937249
0,566397478875756
0,550316447788337
0,554040831365816
0,550100964837342
0,539056630044035
0,547083294825665
0,544440935570355
0,526232895352913
0,537097163182612
0,532653852118278
0,530296061570973
0,523074876890914
0,52852210277167
0,51377831618196
0,517852678301652
0,511390396706837
0,511720070233525
0,49590243353843
0,504121159755623
0,493813196418752
0,499832166678644
0,491187194860484
0,487266785737638
0,488548683804828
0,485603698393181
0,475577819015393
0,475648971930169
0,466968335393807
0,476884676114822
0,468046303736867
0,472323345567166
0,456521817787438
0,466212710683138
0,452826939564006
0,451281730654769
0,446085786655248
0,449513189158806
0,44212474041993
0,441129698663639
0,433174121956083
0,434574662305719
0,430078864985905
0,435029808160389
0,429062737150975
0,427055216442053
0,423941552946953
0,425869939937381
0,420669026581485
0,422699341665421
0,416618837964663
0,419585077974877
0,412488100273502
0,41660409986212
0,403706902416692
0,413806160474994
0,40550545298658
0,404781217679749
0,400112044159408
0,397817927852452
0,39533734530105
0,395528955836614
0,39341372140453
0,398937466277974
0,383248958022864
0,389375334394153
0,385742305011532
0,381802169089192
0,375462853150043
0,381997446289031
0,367717207788967
0,383876635280431
0,380254557012254
0,383334904888854
0,379589161082642
0,376787615600846
0,371143363855438
0,371015086620222
0,359231451565624
0,368106533413442
0,36488785546778
0,361300290407639
0,362193813601389
0,364365682101627
0,348878527081688
0,35478528207327
0,349365392944051
0,353128636268536
0,346761328191063
0,347126934054621
0,352715587516674
0,349504615778258
0,347115594188513
0,349282277027506
0,337660547726585
0,344902241623989
0,340787077002505
0,340144677070508
0,33494862935383
0,3422771401503
0,334188392910625
0,341558975513335
0,335818274929273
0,344276113695589
0,327215273611874
0,333709469305112
0,33153076311012
0,334294135583586
0,325259298335283
0,33222112071229
0,323420314970858
0,329682063836751
0,322396432359029
0,330694287470095
0,324982584370961
0,326101669138422
0,322879706101954
0,325519978652342
0,323178622019621
0,325117458916038
0,316974520262856
0,319676136931253
0,316583562462831
0,315876898374878
0,308668895639172
0,32129956471832
0,31614163094173
0,318048702706842
0,308347913045717
0,314845649155688
0,308160482750648
0,308544355696033
0,303089851514725
0,312278134966283
0,303785688288495
0,308555798177538
0,301608858619174
0,307316565775697
0,304682686602556
0,303995835782772
0,303287808730645
0,303321931542549
0,299726077087217
0,300835215346662
0,299580534753114
0,300723123658349
0,29102674943636
0,298083989052488
0,297518111386467
0,299339648566965
0,287367496603189
0,299618497081655
0,290271581048137
0,293282365062588
0,294912069296601
0,29406868149873
0,28734087823799
0,294442333445244
0,293420994789193
0,294878754091967
0,287595197160744
0,289943130766818
0,28582047137101
0,288574657191492
0,287430215859416
0,289837377349565
0,280893830859497
0,287771395223305
0,28032943005062
0,281503265406434
0,283721266928454
0,28647685501503
0,279655554556867
0,286940842093097
0,281684375283139
0,280371483287349
0,281731649314766
0,278179296025055
0,273130198783557
0,279346840534616
0,271635728903539
0,282941595883143
0,27003765729812
0,278803350640109
0,272653997087615
0,275360483471537
0,26793907558737
0,274029853633013
0,267459397187065
0,270248827731397
0,270525664046057
0,268392568056848
0,26924233273502
0,267958685607227
0,265599700398513
0,271939850659275
0,261808018762397
0,262192305473454
0,264955373684342
0,260643185864844
0,260535591545724
0,266473925314994
0,257122389298694
0,254501784076898
0,258081034204595
0,259000397743518
0,2529974081474
0,256930796461416
0,249450118885685
0,253325909254375
0,245811749798984
0,25270961382975
0,250961239008984
0,254995797271829
0,25027295006906
0,247654500758655
0,246342100716472
0,251263685563511
0,242479345651012
0,245950171022178
0,241770438520789
0,246733025661603
0,240624958338831
0,24476586949526
0,241135281985884
0,240149338166375
0,237461268381602
0,241627754203186
0,237137968698051
0,240070612150879
0,240850498383695
0,236395652399351
0,231453645402829
0,237145039045051
0,232979858195363
0,234599240542902
0,230283815145657
0,228957186435774
0,224328822195653
0,226468340870077
0,223087342048158
0,226290618667343
0,22633353862874
0,226160933342928
0,221662214804139
0,22521987225599
0,217628991224825
0,222633100968307
0,220185711460025
0,218652024065577
0,215430062527714
0,215579818840613
0,212973047823508
0,218740133439456
0,212716297245599
0,21119933032283
0,208838977812187
0,214013819221691
0,209768002132676
0,212062675445742
0,206365690934756
0,209313498929326
0,20353979602733
0,205749491339565
0,200112167879391
0,202281522373577
0,200891609934643
0,203658375722606
0,202617411720116
0,20391823440173
0,199541548772809
0,201695664581801
0,195950532708361
0,200606215808714
0,197340844147593
0,19789059431481
0,194116940714914
0,197155710179296
0,190410149880127
0,194275979155763
0,191182270654323
0,194420349984302
0,194240191974739
0,191838200597587
0,193641026915566
0,189449074383167
0,18916355705181
0,195838171363445
0,188394332223797
0,18873575751671
0,189050005414764
0,189484421862691
0,187549288584731
0,190582871651191
0,183970795651571
0,187172150059655
0,187766061853306
0,183218669531521
0,180083312283407
0,187261817324937
0,1859488005003
0,183412074244365
0,182250693573104
0,181291049184432
0,179206455758181
0,181320650128522
0,17801859819175
0,181716344882884
0,181019585198074
0,180827691404958
0,178698761868271
0,180013292358757
0,176680999956819
0,178600042483405
0,175856499682003
0,176814717115574
0,174267545276077
0,179899616254615
0,173722232216465
0,171902707310532
0,174750435009554
0,174898878705261
0,172706025041402
0,174170067152808
0,17138374335352
0,173145085404781
0,172920612757775
0,17169469215854
0,17271889382509
0,170382923399685
0,169944942171853
0,175384786588516
0,169261460255298
0,16915971911493
0,172565960215241
0,171614402007703
0,169056277974288
0,171594151659256
0,167498836684868
0,169238496080441
0,17021521116747
0,171302919236405
0,166086990861778
0,171027636440391
0,16618830063656
0,166279408109449
0,166454888222997
0,166246907337793
0,167297410325531
0,16761654801288
0,164755370528469
0,168703620111884
0,167705642762909
0,170740544851306
0,168906534882496
0,166994365326936
0,163533618225855
0,161875363973571
0,162455456347913
0,163337917416858
0,164329958592544
0,163282685815662
0,162230806166162
0,165951080048938
0,162523022232681
0,163111695223723
0,160735682244982
0,161806962103169
0,161118922787894
0,163040427463844
0,161172219631817
0,161726564597607
0,159278165765694
0,163019975584278
0,157435779870862
0,158935733173515
0,156375305850588
0,158746667398995
0,156571205446945
0,162000538167276
0,156805869428688
0,158824916274486
0,154094174823256
0,157015957474242
0,15597945006609
0,155957967154074
0,154189880657214
0,15546802964346
0,153949234272027
0,157031359830655
0,153009310838522
0,153114852631086
0,149565444372191
0,153157108910611
0,153875793166657
0,155949617951876
0,155333609035812
0,153704942111466
0,150623294248109
0,153375685241904
0,152708171153609
0,151734008141443
0,154135509175113
0,154389477582246
0,15079091732203
0,152794089900971
0,151739367236771
0,155643997777825
0,151413756786021
0,152054110495657
0,151574397473505
0,15680220139494
0,148186082810518
0,148715534727645
0,14995891186072
0,14869378605857
0,149787860019128
0,149803213345981
0,147367528195581
0,148396762445743
0,147600247376984
0,148255557950156
0,14443925365055
0,14634898991216
0,145898861548386
0,145428181915789
0,148124990306069
0,146199030191752
0,144556687256894
0,147718631887235
0,143409300206546
0,14219958070263
0,145726076546128
0,142646273007805
0,142544546669029
0,144870105546577
0,141319507929981
0,142534986303268
0,140568106452426
0,14060927538182
0,137732337808009
0,139395395056165
0,141371460896094
0,142695460543424
0,138649086198839
0,138766832940013
0,137804440371421
0,139850111660253
0,136987052065192
0,138374656507436
0,135747258242604
0,132866167024343
0,135316652124388
0,135720434741566
0,136733158420699
0,134258952076535
0,135782533595256
0,133996640127419
0,133406611576829
0,134937146952842
0,132367577935609
0,13390223404804
0,137277657244642
0,133697059216401
0,131543265668759
0,133131038261052
0,135030061005379
0,133620223693855
0,134486812866062
0,133815704643989
0,131809012940738
0,130068819699891
0,130481628852169
0,131293510720574
0,132687474740273
0,133429056019674
0,131928815883335
0,129855321836043
0,131113553361285
0,129912878221111
0,12906462919409
0,130948169903373
0,129613370221854
0,131718953206333
0,127993488330347
0,129428307300129
0,128907875539726
0,127226809443026
0,12905038501024
0,129134494662166
0,129004650301945
0,126017210597059
0,129172448745919
0,127804710586123
0,126243706337222
0,123918490131941
0,12370698749254
0,124981001759078
0,126515193931696
0,124308133401075
0,125296750888902
0,123298938905603
0,124048860622482
0,124145179904307
0,124278390417798
0,122131206895974
0,125328679302379
0,12508797312308
0,123078546261729
0,123946477259122
0,125933914321397
0,122501349333754
0,122987869132433
0,122648374131374
0,122515607761536
0,12009031450784
0,123690067004359
0,124409958754413
0,123593231601707
0,121150205835585
0,12418546819744
0,123069046046195
0,123868578419304
0,123195903524832
0,124049042860621
0,121247621477265
0,125400306595045
0,125130491814991
0,129772010951579
0,12647820311702
0,126380827473067
0,125475331133876
0,129214334319964
0,12655307512106
0,128714455553926
0,125571641800521
0,130382245673801
0,129828096951284
0,133757720325386
0,12979723810197
0,133141308050241
0,128020721691891
0,128596620940211
0,127623657070584
0,126523494496071
0,120765881377172
0,135896832806418
0,137826924980206
0,134088326757598
0,11966579659606
0,134765753909551
0,130019499564168
0,126693541747035
0,123059016296818
0,133665714118101
0,12441319226897
0,129630488027587
0,127611378343366
0,125649186952932
0,126882508679479
0,132581723328038
0,125048537317675
0,134739094581726
0,125063086667107
0,13875694526715
0,123892260462606
0,130833865742166
0,121497084491079
0,141092493590876
0,12275639225882
0,138565218162205
0,119890229201892
0,138865235607972
0,119771701019661
0,134264408301442
0,117136959746175
0,140468525774987
0,117454110113042
0,1339325819648
0,11023197009377
0,130687583981508
0,109037639922145
0,134020442036949
0,11410448885372
0,147079800401911
0,1233282298356
0,142665026982442
0,115700411683095
0,137499239968575
0,122024665532656
0,147515224540165
0,127093159238827
0,135080746182999
0,122656643737995
0,139654698189318
0,138056843896684
0,127783819525769
0,137074484086107
0,122680020834992
0,1510723523856
0,112144193118456
0,150178193784563
0,115144398262505
0,151476350684334
0,112638136652755
0,158291198369108
0,112359208028791
0,149615530269761
0,12185693726754
0,138018522731366
0,128613812350281
0,135762853227041
0,127621703577837
0,130586593958897
0,133447393267398
0,128132289407267
0,125860761792377
0,131118322172779
0,125650055288586
0,134871449039389
0,125247663336061
0,133903753602031
0,123480810288901
0,133389475667879
0,127850266458283
0,129325035790937
0,124186251403509
0,127924704339712
0,127025960945916
0,131917120734906
0,126760240955217
0,131848151799363
0,127075113369105
0,13055471831805
0,125451901505291
0,130578915729396
0,127216201868137
0,13258430984229
0,126198938778174
0,131338384857109
0,1268284831324
0,128964579803463
0,128704608504848
0,133121596904537
0,129659878972518
0,132174277856919
0,128007017039721
0,132729405037986
0,129248766684089
0,130669397611315
0,129928055685871
0,136891879032981
0,129933532887116
0,133193077942523
0,129004766010822
0,133137213736535
0,133509981897252
0,136685975493275
0,131516553089556
0,133414675136955
0,131181350564829
0,135212945604869
0,131627783196239
0,135603753815833
0,135576828111817
0,13718456797445
0,133163720021283
0,135954434258001
0,131911383434482
0,137607065213089
0,135295070435235
0,138309322800813
0,134266035888537
0,136890572941526
0,134546019597247
0,138538238718699
0,135839396549026
0,13896143620536
0,137229042951906
0,140456294978484
0,135843959588153
0,137828456744356
0,136356679404275
0,140047740984211
0,138971458483717
0,13904564501452
0,135111392851961
0,139678881196867
0,137105699996192
0,137443190563816
0,139693856831863
0,139690610564265
0,138014063136983
0,14037016725744
0,138055718273265
0,139207148314534
0,137726186159078
0,143499185871605
0,144638437169653
0,143437255644143
0,139311966788499
0,145648379003674
0,142032172003459
0,143213961107508
0,141566034098985
0,142614715220962
0,143164150516345
0,145360444958356
0,14417666178615
0,143490226707606
0,144112618272311
0,147101645851496
0,14558863453823
0,149033149287054
0,145620617359799
0,147154239718917
0,146870606957534
0,147349839266445
0,147459663426528
0,150933461364817
0,146763776467722
0,148060368515929
0,146387447010197
0,150322098633729
0,149683538872902
0,150080230360474
0,150278182584628
0,152301152225589
0,151047235924908
0,152208529482456
0,150305791426013
0,15284100523469
0,150997710050791
0,149629263081889
0,149622800257661
0,151655125546984
0,150897357931569
0,152451911933709
0,149329756811815
0,15006111371726
0,151772351807596
0,153476022286755
0,152905078315859
0,155217314103099
0,152509463755707
0,154160367453988
0,15100173495337
0,154050062384656
0,153958296414276
0,153012746359855
0,153558484046165
0,154906802032875
0,155546973402819
0,154567803936614
0,152282474880277
0,156044136569429
0,1571346675374
0,156287803007402
0,155675357630071
0,155756429066019
0,154109629669252
0,158461349276622
0,156643449060865
0,158632232107603
0,158239057514456
0,157363120119072
0,159856694645677
0,161114027346083
0,159342474671557
0,160346267041722
0,160520796946838
0,160536112207499
0,15839754982645
0,162811068919435
0,160854983130753
0,160760300106422
0,159106460662044
0,161671219552488
0,162203257340772
0,16146775589217
0,160487556767115
0,161703810111304
0,16134870067487
0,160651372453736
0,159074238157594
0,159938948568124
0,160081228554096
0,157955584867596
0,158269934591605
0,160685595311962
0,160826399560755
0,161176848095252
0,161851339358825
0,16155182387124
0,158854340458994
0,161584433402232
0,159195613449133
0,161071467733151
0,16043226281886
0,161290538162172
0,16103497053571
0,159388217070509
0,157154398550285
0,159443577040891
0,160918319546797
0,160190177161752
0,158594866504185
0,15973970902194
0,159026566587234
0,157301059552154
0,157359541309301
0,159880094157171
0,160096666653808
0,158693622948623
0,157886912605173
0,158914133284076
0,158102578258432
0,159739890299156
0,158954978653146
0,157011068507502
0,157540564244813
0,158411738322408
0,156966556643302
0,159447652159769
0,159273003610351
0,158520819471716
0,157900078098897
0,157098895081386
0,155655666872496
0,157087417684513
0,159966069607547
0,159453640909882
0,156253755883318
0,157574791266187
0,157554357993857
0,154125911739774
0,155550114801452
0,157526098335988
0,155974069988682
0,156888865613504
0,157209932065479
0,156265651829637
0,153906831017134
0,15645786693592
0,155587359741786
0,155879831518736
0,15673139523889
0,15514228258792
0,154160797561942
0,153901495148627
0,156178140637137
0,156471006938507
0,155026569986511
0,153180276054287
0,15452488067198
0,158542402787362
0,154594462233286
0,154744013174269
0,155713640406452
0,154372431657146
0,155572766455167
0,153378330566183
0,15162612502401
0,152672395284315
0,151704508187281
0,152318360082095
0,153745647163407
0,15257950561862
0,152188617880398
0,151315501941414
0,152483274258805
0,15633934468839
0,155002955773526
0,150352244061014
0,150356303704904
0,151908250926845
0,150443546337033
0,150456819500984
0,152860481917097
0,151290125612749
0,149514437044885
0,150471365718285
0,148516270821058
0,146810291322603
0,148373765077068
0,149388474231075
0,147486433311522
0,148301551519195
0,149507825605945
0,147158511261224
0,146747323589442
0,148155003907527
0,147098603342914
0,146291297746575
0,145753392880425
0,143893856502728
0,147512884957225
0,149176824827551
0,145010778006309
0,14549247071426
0,144923313241561
0,141224313598816
0,143811632072356
0,144652390486572
0,144570078808355
0,143566488387262
0,143348828578348
0,141568702788145
0,140591672549622
0,138590535371751
0,13825192393025
0,140340965432447
0,139541252370065
0,138837397111802
0,140041732012067
0,139594576631384
0,139964810083929
0,135937355169472
0,137112430767416
0,135005180281532
0,136535523081875
0,138526417735326
0,138497611822664
0,14277376943612
0,138741111460259
0,133003674224951
0,132672328639618
0,134203533551243
0,134475026863341
0,132857240041705
0,133020072757217
0,13155472768784
0,131836975523395
0,129151769987338
0,129048839573686
0,12999842904268
0,128116870830469
0,131198274385092
0,130929780231818
0,128115756444113
0,129618438398478
0,128179009477806
0,125516223783372
0,126578916015334
0,128571296059005
0,128464533326504
0,128237552332963
0,127541897946044
0,126119711772328
0,138504018685677
0,142774267960987
0,130323925223837
0,12513723097261
0,12891392438348
0,129377474618468
0,124717150853496
0,123733951282012
0,125381532394521
0,123251432387957
0,123655311466189
0,124555279669462
0,121999625616619
0,122798263592225
0,119719811532773
0,121343305949879
0,122164957667175
0,122008987310835
0,120931164545879
0,12199059475988
0,12034158462498
0,121831331761869
0,123093765857618
0,12082526944789
0,120133956125078
0,119887995519828
0,123065736903372
0,130175703341589
0,127039131552429
0,121928455048368
0,118402364030895
0,119055419110843
0,116835890819731
0,117205657208073
0,117496843763568
0,117788880562501
0,11670111359484
0,117657526674762
0,116761473261113
0,116191947398528
0,115387021281129
0,115389598709419
0,114408048496547
0,115848714944584
0,114232009146389
0,116402770957436
0,113702967266401
0,114347378402251
0,113799878987896
0,115676887727659
0,118007609845249
0,119980369521494
0,109509215418437
0,130868902938807
0,135164579972115
0,120943684805641
0,113281164596167
0,114979064317392
0,111092129775694
0,112534632587194
0,109422998944593
0,111373115000938
0,110807672307064
0,111469212033718
0,112719521135532
0,111074393924472
0,109533366482103
0,113978449540035
0,114311019723348
0,111796168128661
0,109926233000637
0,112809913563668
0,110174281281357
0,110313608390446
0,119756144397677
0,133021942776025
0,118238813403982
0,116205655674293
0,108162167491666
0,118549859100414
0,136786408836682
0,118357768391279
0,112785303267895
0,110789716637308
0,111246315068929
0,110534131346204
0,112301237728132
0,10531084021618
0,113903180950404
0,11482825061992
0,116829378836688
0,113962738374784
0,113022983560072
0,108198304547428
0,110028531436686
0,109310314473914
0,108221403800678
0,109582731186932
0,107048859500039
0,107158301523898
0,10799377817137
0,106829364415635
0,107678542800283
0,104261402145347
0,117269043267777
0,116003377219831
0,110202275555813
0,109691766274978
0,108626419271512
0,103107587064879
0,124651322946525
0,127230168042938
0,114532262493524
0,108594281039148
0,109049893394523
0,110778791775824
0,108734614867783
0,109487563580845
0,109804917453387
0,106654530730829
0,10591811775232
0,110524206920506
0,108927714786271
0,110259463392795
0,106894182875558
0,109591298576198
0,107044799721976
0,110729612754669
0,106362512723204
0,108862319744495
0,108994913047263
0,114520085018982
0,136147841328582
0,134660352427003
0,130486685285651
0,122771192701001
0,118340905197046
0,110416508863326
0,111786987734894
0,105822462529328
0,109995102913996
0,110700633890951
0,111284145947282
0,10872439949045
0,113346084550945
0,107682670467364
0,109111637737069
0,103839418779624
0,107112599678664
0,106907855037578
0,109595124643266
0,107380827643993
0,10848468599003
0,106701028844629
0,109968685833471
0,121786925639415
0,120477468657264
0,114688530262143
0,113161551030997
0,157453623534899
0,130240105449823
0,124236061779037
0,110054133216228
0,115117431997701
0,109327770114256
0,109553852242341
0,112823217154931
0,119950246230869
0,111157376342539
0,111899874133888
0,108848603252815
0,112468911640361
0,108566811874626
0,110635282031206
0,137812260146754
0,154920670785009
0,125278495084519
0,12136847160864
0,105240725186236
0,142426173610124
0,140723692961803
0,119178853727255
0,115988569395571
0,116010402736052
0,114801926089077
0,113057475605107
0,111534764855663
0,115715118524516
0,123845906322739
0,114278594248013
0,117255152682363
0,116690211874324
0,114686469639068
0,118794205680321
0,117379720515837
0,134409864969603
0,127634920125519
0,119342233667353
0,126438081673065
0,12394605263753
0,118959839301827
0,11803702725736
0,116978327743876
0,117827195869827
0,139111763486796
0,134669180951192
0,129072028341338
0,139995775868993
0,130453407166084
0,120706971578904
0,127018630239373
0,136553751276382
0,135800088107193
0,112217757598074
0,160530021205881
0,147557049161629
0,168557478958864
0,140958313725053
0,13433095908836
0,12397282865899
0,128972466515392
0,117887341177138
0,129055938372634
0,149020197674395
0,127000076085351
0,133304012071545
0,122137685534877
0,151479922006668
0,136703926262174
0,141021085996779
0,13067299792742
0,132498159509919
0,132695274933754
0,160548131602183
0,128039944422426
0,149493458492919
0,165760516607726
0,174968862518906
0,174367423159201
0,136107555131559
0,152659772756814
0,172434468792285
0,146593007285679
0,143964601138738
0,132261115730299
0,14731874781234
0,130073353464511
0,165383517533146
0,181396081047989
0,152298341245722
0,148233346901274
0,145079583005475
0,156185658102979
0,182800038028548
0,156251034048231
0,152311084871373
0,148667402374629
0,153320362603793
0,154974457496748
0,228250630290363
0,163379956929134
0,203500936838357
0,178884029730304
0,19817608131582
0,17447359497602
0,179483824643013
0,161352901334523
0,198555397773812
0,186594895234903
0,177201851928301
0,158783086740819
0,221750040928847
0,191150775048819
0,189544232648506
0,180223146683394
0,179861120525772
0,185627675946822
0,251012556223528
0,25148862152667
0,234080032152616
0,187923942922856
0,209899817004765
0,22176563102484
0,200796105499908
0,19670678351734
0,199231266421848
0,201398436358276
0,199883274063775
0,205703932946335
0,222825654034155
0,207348198575192
0,223857762974027
0,207508969558924
0,232556179048092
0,249672921688399
0,324503887995885
0,260874196374608
0,261911862063277
0,279569452069047
0,271788931563186
0,257926823651417
0,247556733216735
0,253096473249249
0,264741542972751
0,265185391227664
0,264104787728544
0,270128966213606
0,314829606063957
0,281563641651495
0,331314752655493
0,297461175478746
0,311068052513798
0,290348583369189
0,357376283632007
0,489783872296204
0,357605106662215
0,356412502440847
0,334460575684016
0,411653482968557
0,413360426121623
0,382073319086005
0,362295296694727
0,370449282043897
0,373191448635967
0,395717105510594
0,406175902210008
0,427631109836101
0,44059112696634
0,427324559480489
0,427663861011935
0,49337166778492
0,584732377450518
0,575172665138333
0,491724969854287
0,485386009573738
0,514938163866072
0,527024559432579
0,503082507143708
0,527526348092006
0,521043650667037
0,585450270662171
0,613756359105068
0,576785081251466
0,560585087189731
0,596630863250204
0,629431593647953
0,60526778475431
0,70573392752625
0,657658118635138
0,669074606670442
0,627388327476592
0,67809057188369
0,64987542305717
0,667682887942586
0,710083592378027
0,71833547233419
0,708220098492857
0,71259104963057
0,717873609245793
0,740212609962154
0,748042777685511
0,755154900347332
0,759170197594106
0,837332544516611
0,854855307086513
1,16246216005773
0,811009935306109
0,816703518887701
0,769973884689789
0,831724551498433
0,852353929519809
0,847991208776791
0,919588073219792
0,851684544601354
0,826646844361047
0,833778921397196
0,820052632057019
0,839930908216436
0,827188389760004
0,832330712671496
0,819958717433994
0,916344503964962
0,80646947808583
0,973210823992064
0,904180412629447
0,876656453339388
0,817456469265142
0,84900014570561
0,799019875006848
0,836112842621245
0,783211548792195
0,847277142546477
0,837587503661785
0,799021255671133
0,801458432740359
0,788384286754559
0,828932373102191
0,834098815855916
0,780226611525072
0,765776782941994
0,748099996166354
0,760723076682868
0,703440548468343
0,790986761147316
0,781951722001899
0,725476362888788
0,696988380827843
0,681083907257466
0,679475967305596
0,682006099657431
0,648967968903429
0,677699468364998
0,654008610193622
0,657960723916796
0,639886726288774
0,623791980634734
0,627846234076429
0,625537148520801
0,622495665365296
0,615271301839926
0,610698725870167
0,600427293244967
0,587026033747503
0,580081635894965
0,579010089455009
0,584536336874033
0,569443644021153
0,588271181421053
0,572071836635974
0,570842436870866
0,563037272857924
0,565942519386163
0,554393549579133
0,555164811488976
0,551712060165316
0,539559629819122
0,545780483734094
0,540317916560287
0,538378738096054
0,532110421633865
0,538314238400304
0,533546506070009
0,529857700314263
0,526848403179002
0,530238967454728
0,528018972664347
0,525383849532799
0,645466215645321
0,540767781352547
0,540824257195868
0,51783189420027
0,53205324802295
0,505454674376496
0,523047634935971
0,580067506311583
0,547513538656035
0,522643181277682
0,502543083038759
0,500010412129315
0,534314048118362
0,514411563982836
0,503864085895481
0,497916031668784
0,484216881437211
0,590578161538022
0,580176263400043
0,714644600671666
0,585096520228267
0,523375847322596
0,474527905327854
0,544037633127689
0,525197707990298
0,487771398844501
0,480699562557954
0,464114701457655
0,548271824080612
0,484323837891858
0,479128493775037
0,463308246800037
0,46522023695362
0,510591591628259
0,497952517405467
0,481925660021403
0,518550777001314
0,486429345342007
0,491838253225206
0,54492044875837
0,577227334644226
0,489825203561355
0,440205983165578
0,442733678599231
0,424587096507393
0,459883431017461
0,505588557375262
0,438932412173155
0,458788434297357
0,400921554956085
0,419903018463263
0,411789971804576
0,457509048234807
0,411852743131959
0,446836587751599
0,44026625459967
0,403865673068103
0,430696772106929
0,425576908349593
0,501156216478523
0,468415704019738
0,417172936121522
0,377158002888936
0,470622453834383
0,423537507864714
0,409961859744921
0,407476506228555
0,363222661058939
0,395939285138471
0,395416950499621
0,361543522021852
0,410893002027849
0,398878839053869
0,434328212618171
0,462367290070954
0,48548827914855
0,439385728744473
0,370988963986613
0,356443263551218
0,347623738043558
0,358357232334931
0,349831736782133
0,340220152829246
0,419541988800457
0,335178633137192
0,380531344796438
0,401960132817037
0,360117095161662
0,350612933831523
0,349757428320519
0,341855469684691
0,359088063351728
0,395970395541812
0,438473634122488
0,37279820842304
0,401285011833697
0,38426846988295
0,372408988288838
0,359896601190734
0,368680729842789
0,367649065872835
0,375863784924041
0,395387820372042
0,388687079169346
0,386644640129042
0,398704185738789
0,384564447990366
0,458380877287138
0,429403660630448
0,421584712095217
0,477836379761825
0,453762852081046
0,537288931759091
0,448298925321889
0,462896289622212
0,450973734879976
0,461994562691564
0,46869166014652
0,461504994981664
0,507470613942801
0,52131706757326
0,489536856423706
0,498562278665681
0,493272783902294
0,505654896516524
0,508128217230173
0,578598293596427
0,525969870867233
0,665044198740959
0,560281946875955
0,585080333175325
0,532113517244858
0,525556469221211
0,535228537670505
0,543105482967223
0,53181835204294
0,52326600747776
0,542546613637301
0,577729193039821
0,531464739704873
0,548113548596273
0,535954179492523
0,543181710322542
0,541539675815471
0,545153410858458
0,545678774406039
0,55074044150102
0,561189206956121
0,55535542788091
0,569806153041095
0,667706136398518
0,578954067351886
0,58035219054441
0,565124960448769
0,598159182632096
0,573175584725462
0,594095803074172
0,615382573786928
0,600289224529228
0,588415417622945
0,595336984108277
0,594702005080165
0,59669424308125
0,615088771366614
0,646429285212023
0,598171378792007
0,636415135953673
0,577878373502649
0,721458557463295
0,650197197356872
0,667749367037375
0,638067548377821
0,632515047456927
0,62117461911523
0,62730941119975
0,612238244405581
0,633096103151615
0,630103220553123
0,637004365036623
0,629789258644376
0,62341351066505
0,62144820390879
0,625689295749832
0,63208570867764
0,670235044634747
0,628440011816145
0,629995399722279
0,62049871535168
0,625515709901293
0,613681075319804
0,671248428069104
0,646906212353898
0,649832446145959
0,624646536422922
0,655203006623665
0,652980333282575
0,641899664324591
0,60934633502999
0,626037685504703
0,610485345107793
0,639074226912142
0,601676603936938
0,654222701819376
0,65429668471783
0,64665360326723
0,633947486983459
0,640393316708461
0,622623825611645
0,64132789379537
0,630710734039712
0,647074275359308
0,645400892655417
0,65775606203584
0,663891246086111
0,664087211865537
0,660555281539051
0,68185279810543
0,681292804663217
0,681223279995461
0,647820012615235
0,667104095639043
0,651451859385304
0,661609871516159
0,655876836222832
0,654878412749721
0,638212236433417
0,65240538073587
0,627886105198005
0,661459570049143
0,68347122252767
0,639593313758801
0,654295461530178
0,630814445928778
0,624543176447496
0,624139712308694
0,621728048792117
0,610728798040456
0,61524135037035
0,618437506571746
0,599497170056206
0,603898456818604
0,593785549744724
0,602176537902131
0,59337449051635
0,59990225311828
0,59295214694635
0,589270814255981
0,595884716220938
0,591008959015423
0,591314492165414
0,585893085375614
0,587008400022761
0,584633039150112
0,621274644373624
0,610061940896228
0,611456009388683
0,590771559486955
0,602251064158294
0,600656305161797
0,581750871626919
0,585330853274965
0,581943527555333
0,584157493833185
0,579919674078422
0,57734226033433
0,578282930564014
0,576915162296288
0,570727580193463
0,583469646033654
0,569635325983473
0,57524154584276
0,569939838684675
0,567911063376293
0,563244478382519
0,57239607759781
0,567745478067599
0,581198885186344
0,56866100017243
0,576123957715578
0,56631575308336
0,566158464007942
0,561366220298861
0,573471604343915
0,573147589048975
0,566057266571597
0,557485378317616
0,557203391487896
0,554631177687341
0,567486852034443
0,555330174792881
0,557720549527794
0,555202661855082
0,552731572286181
0,553039697728624
0,550796948553423
0,546506794564701
0,546569313605989
0,543169576107259
0,542620929909239
0,533401948508659
0,533850721423095
0,527436373194463
0,527345198793194
0,521052940782148
0,520954851930453
0,512383632756121
0,518792206671632
0,50835078025074
0,512346491244416
0,513355468647607
0,515407198477167
0,509694751775925
0,509420494171126
0,505845473023354
0,502284367003948
0,504714502960182
0,506091225201857
0,5023826582619
0,507399977778402
0,500841818307578
0,502996077268319
0,496673044632285
0,506703715210007
0,501155421925863
0,508229792744752
0,503397560456568
0,508075689375275
0,513116590733243
0,51056492349222
0,521630401665636
0,517313901052096
0,515747474249229
0,517131785734293
0,515922535744821
0,515161595060248
0,523079509405582
0,523824110816549
0,525022022081646
0,522115083029017
0,529271807921053
0,523519014775202
0,524758732463028
0,526877622231842
0,528099105328349
0,524834699040807
0,521448119878826
0,524568653807098
0,518367614680872
0,525375820745434
0,515462071810058
0,519776691917962
0,512547169246748
0,513389162321503
0,515104905188306
0,510968152902335
0,513045774915527
0,512965530180738
0,511315487409715
0,505951391819003
0,504480355264238
0,504544599790042
0,503231414273777
0,502102570312536
0,496345555337548
0,498230332991784
0,493801133906554
0,494872604872412
0,494247719329012
0,495283406219321
0,490701341292068
0,487723694937077
0,48371672994214
0,487727664201016
0,483388848430965
0,480811816236937
0,478002584391956
0,475685614893625
0,478242190009534
0,47807884948033
0,474456410736184
0,4706910568067
0,468135407908298
0,469150936695463
0,464930528557369
0,463571613542659
0,455450026307282
0,457141852233524
0,453917431234617
0,453001434944645
0,446266479143351
0,449596960605497
0,443552118529815
0,441386612437885
0,438421330349654
0,435934049540082
0,433928190703519
0,434229032165312
0,429666888340164
0,434711484883561
0,433836541958461
0,429795811335131
0,427562205161861
0,42852828667388
0,429531755091162
0,426958965051697
0,423278034244839
0,423611929638847
0,417030970990304
0,417317144178938
0,413321695168651
0,408818274940346
0,401915144714416
0,396444740932101
0,392526676651903
0,388376891731874
0,384843397114614
0,38194755019724
0,381267502489091
0,384260545642168
0,380634047982694
0,380496583363064
0,381350387081482
0,386136577421715
0,387941124628809
0,396115014799161
0,399631843274785
0,406382330959086
0,415820936684545
0,424113860064935
0,436469267353094
0,448441177180165
0,458869400193303
0,475938250950268
0,491464951903129
0,506999859211353
0,524207784524634
0,537269482749992
0,551365124987243
0,572139458444637
0,5848750793093
0,608955104720606
0,628158147080129
0,648061457810012
0,666277785673536
0,685455826308657
0,707098425698836
0,72554412905993
0,735730407913916
0,754018537950989
0,77846834670485
0,79256287041365
0,796848243610373
0,812488111727995
0,823657399237686
0,83731508310845
0,842069268352847
0,845292717727184
0,863768347026729
0,850101882273848
0,84869323668252
0,852473155919264
0,848325778868762
0,841558172869227
0,844282260542193
0,834530583624853
0,840768230658246
0,834949740247674
0,822081496548008
0,820865003763873
0,820795190007932
0,814931602789996
0,812438979445858
0,818440569716418
0,813298684585072
0,824519557326897
0,828508292106823
0,829484863701413
0,83786459720464
0,842461413253463
0,840363766366059
0,852287540406886
0,861158157985867
0,866819402968403
0,872492290569558
0,890685408692519
0,911781970502515
0,924599303642845
0,927700442012032
0,93852127559195
0,955704531419298
0,955453667942826
0,958846103602411
0,971544053833574
0,985853240998801
0,983335997166831
0,988263034356867
0,984295888461588
0,991360436262379
0,980858476714705
0,96732977349013
0,97368600280617
0,958415797783327
0,975451869284275
0,982214601273165
0,976962537726203
0,983917183736347
0,977335319634506
0,984417955853744
0,998200095950698
1,00173187215976
1,00704047518052
1,01774852679464
1,0266535832795
1,04950138310413
1,04167559043005
1,05140232860906
1,06838605620233
1,09968592923612
1,09587218451298
1,10295106192691
1,12965604938023
1,14311087529004
1,1493243574196
1,16499376769589
1,17609530132336
1,18427321027416
1,21543517587432
1,24767927514084
1,25835997780948
1,27951442009292
1,30661752527167
1,33073423922572
1,38043334597964
1,40115742308134
1,43266091825592
1,41050771149773
1,45543535458921
1,45536361056818
1,46038184148945
1,44173360362334
1,45755715564199
1,51651725040347
1,49142818907124
1,48790170251438
1,52116554700454
1,4960478851483
1,49195830404606
1,50839581314036
1,43443135287038
1,46319353665874
1,46221241646475
1,45401404609727
1,45435227274376
1,48387294033036
1,48142076659221
1,49381197463205
1,42826764626168
1,46365007717438
1,46005058328045
1,48140751877415
1,45881206242417
1,54202406261159
1,46479807212335
1,52745372369905
1,56813523904257
1,58569397752418
1,54195484106974
1,54642668591034
1,5517960855352
1,64701743836614
1,61957138772332
1,69731196162276
1,60214183325032
1,73638323746889
1,68392420798015
1,70407032541425
1,73198148556213
1,76174458971702
1,64915342541631
1,77938254157252
1,78108437908909
1,75616398776713
1,78083740628904
1,81383519178757
1,79045039164055
1,77887345974061
1,79345477612778
1,81608921696078
1,74186640978888
1,83891790600573
1,84405829578485
1,80143241753511
1,90466499907521
1,84049932411562
1,75967613662151
1,91093535840482
1,85073972458795
1,96371541417524
1,78314610327763
1,78096312446919
1,86134724009931
1,90823988741132
1,77022862194132
1,79132886306807
1,66772588914118
1,75408169433193
1,70016530787932
1,65371911794189
1,52402410065241
1,50083025510661
1,58101149086842
1,50917864547016
1,39874621020137
1,4496071504727
1,37340185583692
1,42445365098407
1,35455223927994
1,34928962851535
1,35113067382851
1,33225076581662
1,33269009178365
1,31551399191892
1,26776432078454
1,2875332790394
1,29777346503797
1,28129292202921
1,23465263947443
1,24657715251586
1,21359729472338
1,19032454344251
1,18691907108203
1,1475663771648
1,12331321036509
1,09155667140602
1,07487499118927
1,0428819096234
1,01611617217577
0,988435256873163
0,962664992434055
0,920602916519462
0,893934858576286
0,873195758102289
0,826342106642442
0,807187365529251
0,769408215208739
0,7500061664424
0,733589071139268
0,695879365879588
0,681525129129821
0,671462385708597
0,643804086847376
0,634647510013019
0,620603867802776
0,611644090158395
0,602306816323796
0,581788976264645
0,575456359751066
0,571353869947812
0,561979895508602
0,557412559179952
0,553443318737468
0,546825258582544
0,538671623050568
0,542689003056269
0,541980387371327
0,539488465197418
0,536172169175227
0,538786369041108
0,533705766973758
0,540551438708996
0,534892112844453
0,540469832801587
0,545677997979744
0,549002026279599
0,552891109891536
0,552573853796621
0,558933867114446
0,559031025233919
0,555764871550807
0,554991252280631
0,556423921353683
0,558054607298915
0,566026307727426
0,563462942334112
0,553502890403327
0,561373552353494
0,568478752092468
0,559784230388535
0,557523182967604
0,562113593911731
0,564325366179628
0,56936811531625
0,569463232019086
0,567670372880594
0,572101400230139
0,575707794996445
0,58000910683503
0,585424827817458
0,575855835222863
0,582047522926364
0,583908526522406
0,586998127441724
0,595980908421765
0,591574417052777
0,594996356545267
0,600557016409406
0,598275714151793
0,601366612066027
0,603022148508889
0,606785292898245
0,599114084318592
0,600628844480589
0,599278447788974
0,606178605299833
0,601444462280421
0,603123853965985
0,59641573153499
0,612220384148162
0,610746637832951
0,621600167020034
0,628610527613219
0,626404221507312
0,627773251414678
0,638477298828907
0,6495278267667
0,657317142883867
0,668167426951336
0,681585642874057
0,697202756309968
0,700994499196044
0,709074620544482
0,720021913284363
0,721967712762363
0,734749963990762
0,725744522820558
0,721947719486378
0,720350820903707
0,713210767427647
0,722241160898839
0,721485935983455
0,700014331140006
0,696715651805302
0,698616626135378
0,70944616513954
0,699684122755446
0,699553640340906
0,701573650985001
0,708869494502482
0,713190217262426
0,710219740664097
0,72281343184916
0,717626843085206
0,71610707131235
0,715395477311826
0,708725772515199
0,715857022531802
0,708248183962033
0,722842863661199
0,728448455015612
0,715259129791716
0,716194518359793
0,735202719111331
0,733784995495654
0,724824489094523
0,712982538243477
0,721287664998062
0,734485627799607
0,752555992604967
0,745278274661846
0,732032437502331
0,73361767204351
0,75109838263469
0,770841687565087
0,758101626836276
0,732911396840907
0,744857831088526
0,749870282830704
0,766505161409257
0,751913981615207
0,762178067942474
0,757148844644305
0,774127289356013
0,748133782617082
0,75169687857419
0,779421900539645
0,788458773569712
0,779154763520974
0,761130697864422
0,751122389113064
0,779230945335215
0,778571240287801
0,763303042267149
0,788734179295861
0,780134784118552
0,759937743396236
0,78999350918893
0,809674871359148
0,806932431481958
0,774113934880504
0,793622253941424
0,783661532390252
0,791336641786292
0,790286675099554
0,787146142199551
0,809587770495948
0,813563998037119
0,812012879007402
0,817122467700434
0,824355518854616
0,815124747073248
0,797945186157754
0,860302941235943
0,824008492945132
0,823884146675085
0,838199074046635
0,817872383721222
0,825743453904473
0,82625622148697
0,813674743528637
0,836252232711253
0,835391587758193
0,869127927842988
0,869262576759483
0,871081752920941
0,84604521429684
0,861281425757204
0,845101124895246
0,880323940697987
0,855753583284598
0,907621545046665
0,952669315716899
0,905331407577088
0,870352018806447
0,944148834610157
0,945460058573232
1,00941706990994
0,948225936280662
0,948614842287066
1,00549223320379
1,01381981780111
0,965424797556234
0,995146313829204
1,06384021692229
1,10498016242816
1,02630058642491
1,09012299888782
1,03509497302986
1,0353214880526
1,06271170279386
1,11075986725215
1,13551923174707
1,1687437137116
1,10916274530426
1,03836251482934
1,04331377635197
1,08063706795274
1,14462423205522
1,1828992942848
1,07163706863501
1,14551938728822
1,16553094254002
1,18072014294813
1,1361864742739
1,1623692770299
1,12135686631395
1,12107144618086
1,10008540883186
1,25165255824619
1,18435850199684
1,2059849601742
1,13911698661031
1,18198681113907
1,23831238556399
1,26763788297293
1,16677047437244
1,12352179414489
1,17634201746169
1,12884007853417
1,20173033892936
1,23112954432668
1,12401979105337
1,22167212024408
1,18019508314129
1,15075180350268
1,22192307440409
1,24332283301696
1,12316582441584
1,1305210269179
1,08519643739768
1,16252093234345
1,21140709166883
1,2532441620759
1,1678236706742
1,15824041191492
1,29018314493355
1,256620112002
1,10609885711128
1,17246012162988
1,27873320400382
1,25290596362874
1,13068542832587
1,15148247269538
1,10597049605508
1,15178124640033
1,23408768803782
1,14955421488592
1,15405643341003
1,34713258057216
1,25643810511538
1,24413452371717
1,14606149343956
1,22837907309753
1,17786392616446
1,2724423576538
1,48168127114865
1,34334779784158
1,2677047697709
1,25669743923018
1,09750822452631
1,22743595319793
1,50167943492201
1,38275472544928
1,29333739506019
1,61110621732759
1,36301040691448
1,30891926793016
1,66608481158224
1,614597859095
1,34424921957215
1,44043827672602
1,41503945514709
1,53448700907813
1,36511210996187
1,12423452432594
1,50034954020712
1,43008445900782
1,71487199303393
1,47094503731094
1,07883221184339
1,16212799015412
1,56842434849172
1,63497935973003
1,17103075116283
1,65677741471224
5
1,54064102372675
2,77540485868874
1,67491053369755
1,25549284284342
1,29598946836716
1,29943049470078
1,73763811216626
1,38733095567201
1,29161933876199
1,56316611768921
1,63715758948455
1,20596328316122
1,16336689885332
1,19915905407637
2,43816388675548
1,67383536890184
2,27059002716993
2,6097882433209
1,1022233095484
1,51792488707153
5
2,3897284898807
1,10002974075232
1,64861107084154
5
5
1,08254781843657
1,05221644725924
5
5
0,940459946576068
5
5
5
1,6263962159688
1,25989783195217
1,51735883194836
0,891942076186365
2,10827564915946
1,08231156788826
0,802233617804917
5
1,52365187522424
1,06365252051109
0,981898907390519
1,04788153344445
5
5
1,31826732407514
0,690754490690543
