3596
4000,36533379555
650,420452594757
1
2
2
0,0720509530123762
0,0705875333999043
0,069195116210834
0,0694360897537458
0,06285295412167
0,0727718084203813
0,0698811947008017
0,0780145882183023
0,0691698776203716
0,0790545231170188
0,0742929491447305
0,0726591511127533
0,0692456514908172
0,0679034552653194
0,0695579288613753
0,0643077283738813
0,0672458842812321
0,0718785273208643
0,0665322751707625
0,0670190657617641
0,0687545310762038
0,0661100784842847
0,0689842138621857
0,0656177958433055
0,0725105586366762
0,0730357451535613
0,0669153818148782
0,0589663741809153
0,0701086113455651
0,0723408835926465
0,0785536977647754
0,0717381600104692
0,0701729279694548
0,0742297989777003
0,0639381094402641
0,0712197176617253
0,0656548672034451
0,0733376274040114
0,0706466552984962
0,0737672661935461
0,0777382849427531
0,0738758430792044
0,0799568302111746
0,0684445013981521
0,0748848770252623
0,0806931625389544
0,0789490101472456
0,068207067093012
0,0650628909234594
0,0749534255804451
0,0689605626437062
0,0750713767645061
0,0893973566001131
0,0855138067766804
0,0815436895138606
0,0882174900063309
0,0689839498931953
0,0684823803804994
0,0718362877279977
0,0730227642984299
0,0908287813293483
0,0954214392375909
0,0661331550996779
0,0732978915540159
0,0590477745017632
0,0700477077308751
0,0575613325175977
0,0699889100721503
0,0614121882202338
0,083198131906322
0,0682983211571756
0,0978354389857039
0,089498926713504
0,07989012560227
0,0836709231312874
0,0665402691005609
0,0753391483326269
0,0696447892432308
0,0673427368101777
0,0842927337472036
0,0840975537478277
0,0828976172239314
0,0750129688811322
0,0716041424038674
0,0738408652815583
0,0874710973344164
0,0650471677871721
0,0832492175167819
0,0924327700655301
0,0796346523949068
0,0693368224531448
0,0727898003143926
0,0666861613228433
0,0705377775735773
0,06062090106716
0,0727191561674678
0,0642639755722419
0,066874826971644
0,0607716397907674
0,0870427379678071
0,0874205550825549
0,0892319814626098
0,131292893935662
0,0830803914593125
0,146100249219404
0,0922184960138546
0,0775261107568617
0,132051338738135
0,0826344107372953
0,0835953453134877
0,0649953806842275
0,0708694673965975
0,0696728851241025
0,0865117891284027
0,0608930326012162
0,107667900181168
0,108256247944866
0,0801804839115548
0,0684758799046477
0,0746362467686079
0,0563253555951507
0,110447463023064
0,126732183227285
0,0756725564991819
0,089716068496557
0,0724217781292355
0,0688698415033795
0,124855755027558
0,108957195776868
0,0723784720824141
0,0729977974913584
0,0621182553518119
0,0638917951205618
0,071969689379552
0,125826639845063
0,0810597157469058
0,0769456423365038
0,0720293379743497
0,10872838907132
0,157070250082966
0,0846136799691967
0,0814269511675856
0,0620009862911965
0,0763643150084121
0,125287688152499
0,0923836852926581
0,0707040127943795
0,107373932043401
0,0890410909201597
0,062089058111586
0,0622060651466712
0,0708688721695341
0,0989145718594176
0,091419736918853
0,0524455478644308
0,128369100641352
0,164814936809853
0,0895039192280047
0,170648109718528
0,0709690209459315
0,08940192964483
0,0680508185921939
0,0745771890028015
0,0685388407684166
0,0724690096184388
0,062631571706531
0,0828645503404628
0,112487795527103
0,0722452650599739
0,0767808339980969
0,117797517291107
0,103038326073762
0,0723847931538985
0,168975111070023
0,0964998843482306
0,0593650979907357
0,117696158715691
0,0911320382877086
0,0635200522499014
0,0843613254369234
0,109017646381238
0,0716801798117598
0,0713051192339812
0,0590119018853412
0,078160098979702
0,0911856392292796
0,0757952983177646
0,0712505144117644
0,0860554607200523
0,0554556556524808
0,105851351441715
0,134426247314689
0,118754796922325
0,0698168110204955
0,086856682445779
0,04679626806996
0,118441289301441
0,102707822578916
0,0733762046822405
0,0713070576054018
0,0663042673221256
0,0653053972723178
0,0684426265706937
0,0618323319145373
0,0705109332792665
0,0520652534746234
0,120725755230791
0,0942553421794634
0,0732246902509585
0,0628788434912077
0,0820925130418515
0,0770379689800016
0,135855191672665
0,112233910689035
0,0604799113524993
0,0829770135100493
0,0665184645751451
0,0950993778648957
0,0936229698628316
0,0740703953060516
0,0658867062584699
0,0583720576064211
0,0652671210944376
0,0624645182151195
0,0586634061783808
0,0653044402339543
0,0647332961942311
0,0661911204810877
0,0689913685564815
0,0703528469163492
0,0888001816110196
0,074894847370029
0,0694022024025555
0,0663667586426811
0,0624254503867161
0,0792517874832807
0,105213179619521
0,0681297201981356
0,0738686782730554
0,0585238311432812
0,0645452708691392
0,0643896873448328
0,0728039615495817
0,0551736540032672
0,0689694444754712
0,0531583450230632
0,127110275148759
0,0756204675510324
0,0778442690590861
0,0633078870837121
0,0963612491443418
0,0902059565572812
0,064930622072367
0,0658749773013176
0,0668853222616421
0,0554789124084777
0,076538301680922
0,117993338361553
0,082583266715722
0,0672945875210877
0,0972214398352498
0,0857337091101764
0,0678001529967172
0,0855980911322105
0,0561488539711894
0,171505457006642
0,104627479448733
0,0652136499109448
0,162544957766387
0,101429123856375
0,091560354667497
0,079128033019547
0,0391902949935858
0,217553682723677
0,146251986697791
0,0883830734569867
0,0879265032968743
0,10504200428842
0,072894190654042
0,0835292660761216
0,0905128412560726
0,0889404181628305
0,127317516144101
0,137847621892798
0,182015707549575
0,0631870572358884
0,121409215460568
0,119564999113015
0,0731358354965391
0,0768855033878319
0,0750556418420536
0,0758183072442113
0,0924829486522031
0,108179738587533
0,0869143943240808
0,092350480791083
0,0848133502742303
0,123679743716679
0,0834107777944071
0,0801032092895258
0,086252935397855
0,102610268344596
0,0668742357940127
0,0756103627646792
0,0713803777648627
0,089556567056973
0,074158343818536
0,0676237369817636
0,149510308429325
0,104561808620742
0,07984775602798
0,129539309218548
0,0838632142124521
0,076177309678985
0,0686876352705022
0,0740972027052224
0,065462798305801
0,0701308846077746
0,0590770675620751
0,109270741000915
0,0864741281633082
0,0697632896213259
0,071278971805102
0,0703594250458406
0,0777447508747331
0,0721579776320888
0,074222580616984
0,0742458229836045
0,0785278614232805
0,0706893727324526
0,111342614842517
0,13136484445094
0,0667920446473751
0,118537462210466
0,131583354491165
0,0797918555784481
0,0857087160590126
0,0761416577250068
0,0810551603358734
0,0720151769440732
0,0802364798251436
0,0730535748424651
0,0814555867453276
0,106656715545315
0,102390179192386
0,0933705058488015
0,109560916619619
0,165392290133368
0,199823699194037
0,110761229383501
0,100750367232669
0,0804831742304636
0,132658353390703
0,157687896278131
0,116886180379588
0,135942860490448
0,0800631216965227
0,0979589300027012
0,0869116436387847
0,0983719178247114
0,0842966412362563
0,0949426281188779
0,0927875004571599
0,0966803009445776
0,0908149072048314
0,100560094353894
0,0936876832972959
0,107234818588999
0,152853174529498
0,123684146687939
0,108803672421128
0,119638387235399
0,100600328900579
0,149221731527203
0,169216934192667
0,168907097119056
0,180968001632103
0,147361731744123
0,199350602062425
0,122987048748276
0,128648078928017
0,115797968718185
0,127732287093672
0,131052605493584
0,128914361213314
0,11554118686959
0,13631935704574
0,121314352088967
0,137235898131252
0,120928866496081
0,139809220244673
0,130116258764735
0,178000567647509
0,143971964795855
0,153814378838422
0,145154319050288
0,184875190934716
0,218654452150761
0,221091660258279
0,178887168858185
0,164901340738444
0,167959416502748
0,146399975233144
0,162852534867178
0,151554037171509
0,168238419732302
0,1776349902685
0,216289828219037
0,203539883502146
0,202917815413805
0,2027268310303
0,170194058665489
0,211646005282191
0,210482912965724
0,202275133918167
0,2220153081275
0,207720517514306
0,1780801292023
0,224234626010858
0,236334702051612
0,202808908850554
0,239196543882789
0,192030685839646
0,206676253048696
0,206231968716
0,215843145449971
0,211445640496741
0,219978639777091
0,225107293418034
0,222954534460244
0,226793363894132
0,225596341345635
0,223565312218914
0,245414388261081
0,241691468752678
0,233307213892469
0,254625855948753
0,229336761284285
0,240266515970521
0,241139857235872
0,284451425635885
0,270152647524181
0,267350581312738
0,308805809459403
0,247138571522006
0,272791023297811
0,262480477444819
0,254134875297905
0,2507827609584
0,265100151150853
0,271876737602152
0,270963048826434
0,273560368567284
0,278780886482684
0,277002318119863
0,273277282325916
0,275747339248181
0,279858908562191
0,292956935370693
0,297753059217883
0,302651910942764
0,299797782785337
0,322118063857995
0,35149321578157
0,346589150187879
0,370701413893469
0,311937970288317
0,328730044327576
0,319795818699707
0,330888752976862
0,323322007684093
0,340050292538021
0,33777716457696
0,327937501060447
0,330996426191374
0,349913253414692
0,326611956603975
0,350492615486125
0,361755457366817
0,366669369793888
0,357125830110171
0,360820672644317
0,36728438352549
0,3573164278397
0,371052817904302
0,370840362170826
0,366146593733395
0,401548489702308
0,384553282084398
0,369436122316233
0,38867680361844
0,387378435227725
0,40333442598285
0,390411766669986
0,402399755196076
0,395224640456659
0,410388306679067
0,418022881354941
0,414196668337259
0,405601499616036
0,418999153413309
0,418246182405167
0,400019608665557
0,408901148474027
0,438525400753464
0,449305222174135
0,439286309130456
0,447284790728713
0,448937458739035
0,450749720681535
0,432968437365666
0,451292427155535
0,456409428046457
0,433974052819793
0,458656827368024
0,453601272002254
0,453616519159854
0,462821631280047
0,458768509880476
0,483961928149314
0,4569688175746
0,464307455594047
0,482537001268799
0,485125183092485
0,475328865079163
0,485598006872795
0,499492168433792
0,480653442370175
0,475805293027253
0,493721838515723
0,506744706915016
0,505766358691234
0,52237035446469
0,525209172955608
0,523889704463666
0,517072139175628
0,492325033677193
0,509205104188818
0,517999303384629
0,516731771532923
0,527626173302533
0,520838608027087
0,526200212130794
0,552656417206788
0,541315513018168
0,546998562289855
0,53530852778588
0,555062213087982
0,545184750122441
0,536995991592341
0,551383610526417
0,575369172814494
0,553321847426494
0,570463107344051
0,566718515674328
0,572966801602143
0,576845641104599
0,574518533811516
0,56689767643876
0,581484114698701
0,584611261665927
0,568033300077096
0,591367650388522
0,590295228428672
0,576909142081149
0,582707398480041
0,596588994312968
0,603520356799975
0,574300663579287
0,580845094565963
0,607247951970537
0,618233051240227
0,602783452297769
0,628336964950437
0,620151826365696
0,628575043333217
0,630007060399172
0,605967853802261
0,621530324759578
0,622651816520104
0,638884301029869
0,643137606760885
0,630141859067313
0,663177338553763
0,624537376946971
0,631175314941252
0,655719023580782
0,655959775084577
0,647963241072553
0,658526363591562
0,655249526306354
0,639615246607157
0,664223830329233
0,67404293486705
0,661930043502389
0,663483088719826
0,64695484076827
0,662391189765654
0,690393740515433
0,678985983733796
0,690320066040175
0,672408280116953
0,660620363802347
0,666356989622274
0,675024950206645
0,680672399389266
0,688317544215418
0,706709413897057
0,694169933640595
0,698440909059697
0,707214238298077
0,708058060486063
0,689095466770735
0,705317685107377
0,729787950398693
0,719350515325049
0,710390500970347
0,732372558121821
0,738050901468492
0,73699087488697
0,712051465149555
0,722750170909431
0,742341034094009
0,708570562964443
0,714802914663166
0,714762551188017
0,710454868281157
0,705738106429867
0,715205069579895
0,724763925444417
0,726522047638905
0,72252150855962
0,722809680724605
0,752655595112069
0,744287861063697
0,766904017398644
0,745691360889802
0,736525636964587
0,74655668839845
0,744666883913438
0,741376479725815
0,751520894338629
0,751560490439532
0,744437117365488
0,762505657424801
0,774250474015663
0,776461036976071
0,756934489230116
0,764209798918034
0,751681420718344
0,763108314294642
0,773070127869467
0,752612794333665
0,768849784398026
0,765859687000684
0,781996699318381
0,791526681970747
0,779038807696313
0,782122432740501
0,763656268066772
0,783911830360559
0,775629874094248
0,761684647224887
0,749260587030734
0,769327759344055
0,781145199415046
0,771615474906783
0,778623935281103
0,785161939575396
0,793639503176084
0,789020483343476
0,783091707930714
0,769089720378415
0,774057593636383
0,78954752078259
0,763267173588779
0,773006840996558
0,78093397704612
0,769388512537796
0,777054293748389
0,779275793402438
0,786595693165307
0,810635447057611
0,783296285905022
0,777515238583212
0,779280701069332
0,811775573797636
0,80565165940655
0,783026336875725
0,799601970096109
0,800314259434317
0,799817829586139
0,789732999914437
0,755794237100014
0,789171065619685
0,777464473554505
0,750065926399847
0,755492080957727
0,784271014547885
0,78702339841847
0,782921954707724
0,770110628200142
0,791506476210381
0,791129191648721
0,774665854769099
0,781650873281495
0,788899036798072
0,796629243637909
0,783362704326656
0,777216469653805
0,814221030719091
0,791620661764409
0,7833228618169
0,763867631132986
0,769971693363346
0,786205049087062
0,784740380459302
0,777245158841991
0,764294392978284
0,758570613627951
0,770443429984765
0,760702440610372
0,780710337223481
0,778011686765867
0,784727460303661
0,758031312243887
0,769904686853994
0,766523708743386
0,76337204460385
0,773408398398242
0,762239948794458
0,761477138356918
0,769937191507568
0,754437614849026
0,769649157270683
0,740481407586143
0,735091655204102
0,777711814299344
0,762698208242435
0,753024248163053
0,769113894544722
0,754347916879153
0,749707850978711
0,746858541765192
0,762283402636199
0,76190334702905
0,759665386966386
0,743087017801468
0,753851376256824
0,758208235176821
0,749770079966135
0,731865043321017
0,729931372366742
0,733040508845677
0,754481727284003
0,744461436587535
0,735144638393288
0,738261106749117
0,755737455177353
0,744906205591309
0,752217271670945
0,734958110712902
0,738099841325126
0,737369016477283
0,741487748454584
0,730521848259714
0,727484611118297
0,727262099176708
0,746413495214958
0,726766067963817
0,737854899343704
0,720092295936709
0,730106907310816
0,733733660793267
0,720082683028168
0,732494007153074
0,739288991758105
0,704263504494063
0,721676194518537
0,722547387000358
0,716768017233815
0,707334788250696
0,728271312548097
0,70649229001197
0,713475512110689
0,712346040010027
0,709303498002027
0,71623316826949
0,707387297647809
0,682299186751351
0,71512368293633
0,691516308847571
0,688574004658261
0,687697623938621
0,681134433555903
0,686633133562538
0,706012043062843
0,687113069167697
0,686192369599797
0,690143709590703
0,68358215277322
0,678380948136806
0,69245147157879
0,665777078493085
0,672166454017252
0,668034433057942
0,664631039542168
0,671683775353283
0,689365593935877
0,662327191881995
0,658080634723799
0,653477721310762
0,654895406391858
0,647692885604449
0,646547291776171
0,644026029402157
0,647175995803109
0,643151581343663
0,657447804229483
0,642216783962135
0,641871645311983
0,643531005770459
0,632731303272175
0,618489060849053
0,634256100243779
0,633358991258573
0,633521642280663
0,609444175235329
0,632354994770561
0,62826436588457
0,621371499326757
0,61849442842188
0,625733756369524
0,609264395838071
0,621333432200968
0,591416103356322
0,608496791264487
0,596419566934821
0,601847215194601
0,597595792310869
0,593387637561444
0,591419130036419
0,605696205912557
0,585893624358488
0,581434434353155
0,577729121936465
0,589811885306442
0,58086320202182
0,578297753973421
0,562376810182578
0,579199541651754
0,580829990283537
0,566879228727851
0,55121927127141
0,565366049827709
0,555828940376775
0,558677412486913
0,546796077238621
0,554816660129917
0,558430487700448
0,549868563972402
0,53908432974014
0,549049584634897
0,528806046629667
0,523447328178965
0,526190445128319
0,537392189967817
0,533594041915866
0,534671860542928
0,515078061048305
0,520887376844328
0,512584530841165
0,516067529330162
0,510943015637764
0,514679617795571
0,499935813781749
0,503245487137185
0,500769261905687
0,505776487586802
0,49856575554131
0,500501072877698
0,486350903904386
0,496207695073186
0,477746120431299
0,488423290701016
0,478783645360491
0,478787934867711
0,468719255413129
0,477193144824239
0,457823620979421
0,469089778872536
0,455388139496685
0,457391137388128
0,462532530146901
0,466815964766581
0,447714525691562
0,450676043502559
0,458893508475062
0,456816590753503
0,439384533950641
0,444030960147798
0,430050876804946
0,432494141888358
0,423217614581921
0,4373787348575
0,424205110848406
0,426714652771304
0,43230799215368
0,425756787868862
0,424372813457991
0,428644316117519
0,404588834756133
0,411026576998657
0,407517074242193
0,404588360245096
0,39519729832442
0,407102212497918
0,404324912953948
0,398279008293413
0,394015229708674
0,396246544374919
0,388415285732531
0,388652010141365
0,379742276154871
0,382337420417351
0,377734230874291
0,376425611240697
0,370879672880867
0,376958829596167
0,374451494328928
0,379122312405215
0,368498904599748
0,363412718198741
0,360622506484038
0,366737725658491
0,358471192247141
0,363198560918572
0,357028333888364
0,35693444392901
0,34734852642737
0,34857490557494
0,346125082485113
0,348039591599946
0,335721422778073
0,342469088594097
0,339616095747764
0,337521177950284
0,332620199902083
0,335419385655188
0,330859454656313
0,332521174558921
0,318119086519155
0,325561152317555
0,320501744635521
0,324130575006168
0,320493186907544
0,316182064404608
0,312204628789159
0,314899357138917
0,310438191168406
0,315397984862935
0,302024154439037
0,309800310578807
0,298117971056243
0,298549514087765
0,296086764406487
0,305298373847367
0,294619304970563
0,297540341345912
0,290423727603576
0,297369433025157
0,29256771348646
0,28784572076593
0,275293374455427
0,288782021384949
0,28418316402824
0,284043165005792
0,280352796516559
0,282457868424122
0,2731071993552
0,277481763582211
0,266640573138662
0,273186161866911
0,269648206334755
0,270794853261187
0,271494049769348
0,265931943122025
0,259095931535286
0,26781538273667
0,262454831105235
0,259826432370935
0,257014500125345
0,256285453190512
0,251638121622404
0,254490634678557
0,25302656333271
0,251283911341983
0,246146627221451
0,248512707969801
0,248080936082681
0,243980724183898
0,240766583447604
0,252051181392455
0,239714928075625
0,244791382764265
0,245327318816984
0,243128412628837
0,232060608496943
0,231600759243085
0,232915987110818
0,235696680278865
0,228713197476151
0,230061294352659
0,223449269531185
0,226105788597129
0,222558444941937
0,224473024785047
0,219652762415315
0,222172750123109
0,221294879644173
0,219639516926674
0,217747653125057
0,218934402815043
0,208987332304963
0,221112771672818
0,209924521367616
0,211408032196187
0,204236666346077
0,209789965215789
0,208919209225299
0,210622570884195
0,200023829682121
0,20591626496207
0,199312007269181
0,204967617581422
0,197591682426977
0,200726578952005
0,195908887864025
0,199869860667705
0,19103584108757
0,198135620971509
0,188919341397927
0,194041934589895
0,188896487554927
0,195538410346224
0,190519919432049
0,187126396677262
0,186421339408275
0,189161270781823
0,182456198709651
0,183832324492025
0,181475197304446
0,182074391498574
0,179779977954782
0,184621175133012
0,179177751718703
0,18114663479353
0,173652311655327
0,179746763754891
0,179142517751602
0,181990202291414
0,175160916424284
0,175469876311712
0,176303810982063
0,175447253104608
0,167131256878337
0,177444115143585
0,172276250411336
0,171740475079362
0,168511128169266
0,174294212373262
0,168327777916485
0,172211964114225
0,171832592345747
0,168327792985448
0,168776309435321
0,172457586821808
0,168841430546439
0,169730929337481
0,166898430135352
0,175194518369497
0,171573045720876
0,171069681164279
0,168883111401675
0,174487760453639
0,170791968053309
0,174166256005864
0,167199184318747
0,175004577060629
0,170463620504669
0,17228735407733
0,173407041283343
0,177489700141434
0,170257427095217
0,179725900879776
0,172441934854056
0,176573233691116
0,172022448261946
0,178848718963516
0,174608836359594
0,183632280696256
0,177566774871151
0,182526311337098
0,180888416175123
0,180509046731065
0,178647948987342
0,179477437769988
0,180227887685619
0,185763356124865
0,18057550117617
0,187912529617081
0,181217458078886
0,18473465146288
0,18628581424011
0,189835022147116
0,195014705505641
0,193986691102879
0,19098389620788
0,19540019286098
0,190579643198433
0,195884302023694
0,192218976899588
0,20241470663904
0,195930845467105
0,205110343238645
0,20195472800392
0,207348140834712
0,201402263638463
0,208718877293491
0,205793758432971
0,212720350108115
0,211043735229215
0,21640421965471
0,212371582748626
0,22291199876291
0,217949008488486
0,224642475827962
0,223744483923061
0,225930846624477
0,22222931969899
0,231190984835477
0,221734570456124
0,228424531371904
0,225739208927665
0,232859990787686
0,224501541871726
0,227083132200091
0,223591533936684
0,235401015201987
0,227436658262765
0,234259886170854
0,225708089317693
0,230790915470999
0,228127898026608
0,228943894622378
0,22658554416701
0,228313741309815
0,222066028198999
0,225203878838136
0,21484479259459
0,220701174647392
0,218625423212057
0,220012778876273
0,214640576115334
0,217518752832521
0,211421788490054
0,21726115175243
0,2132890984203
0,218913932085336
0,21353509657242
0,214130560455053
0,21219811336139
0,213960450767221
0,212396609637819
0,218336366721168
0,215254003060551
0,206499623885691
0,200876827311104
0,212405235253509
0,20228148710374
0,212473628988125
0,206630184791981
0,209507379663701
0,202318210757104
0,216587659296622
0,207460201865218
0,210411738066237
0,202670116330709
0,210911320538939
0,205537651812386
0,210457834465755
0,208183953212784
0,209130847564323
0,203134806059745
0,205558470146913
0,201221807862037
0,205238348114948
0,205820538343091
0,20759248251065
0,198699013241696
0,20613874581111
0,200164679865461
0,205853424948676
0,197691306029846
0,202868839172045
0,197449791431029
0,19744637028924
0,193399471843046
0,197271512532757
0,191299739550113
0,194053787436142
0,188406779905781
0,188770684933426
0,18697924916289
0,187205298824942
0,177322343703413
0,185343703790346
0,180966347266516
0,18087759592346
0,17713459671844
0,174409995090137
0,175220416553605
0,172850141004331
0,166566253642895
0,173870218653032
0,1722202664417
0,171407764210434
0,161368787775893
0,164930212157326
0,160825109485572
0,158480130430019
0,154908791363264
0,158406098838461
0,154497656855906
0,155540508761619
0,150916167711836
0,15747010785009
0,149526681218941
0,153094194815029
0,151635997234215
0,148160680572983
0,144396972711486
0,151390757143922
0,146376994345969
0,148685628098563
0,141167446309192
0,144416343529216
0,14421746971343
0,145090474251598
0,144165487156424
0,139279192654082
0,139139665825235
0,144094873099402
0,13424597070611
0,14214280491288
0,136875777183973
0,141697678444369
0,136721173276697
0,140378558820689
0,133480555689325
0,133840253027952
0,133680337609106
0,131563970743458
0,128497223990586
0,132755242001098
0,12701457943867
0,129137457097328
0,124162791803875
0,131911336808354
0,129536403727674
0,128762222049888
0,125756956641004
0,12454847706317
0,119449871302416
0,125946359093395
0,121562176801281
0,122858690488658
0,122320635216285
0,124520216481546
0,122811763872134
0,123542567434849
0,119793786270866
0,120049906605101
0,113108250807146
0,119975427756954
0,117319915007093
0,119708908961313
0,11303310896383
0,118338738218138
0,11297921509156
0,112288772811273
0,111598922257492
0,118027909293249
0,105338246739726
0,111827813504275
0,113296414904979
0,113012565287444
0,111164986677836
0,111784821987807
0,109191184613401
0,110873179057269
0,110687164139868
0,108113526373295
0,110919987266914
0,11068922050612
0,105397832496479
0,108589382870078
0,105683730468695
0,10892404773637
0,106034111541942
0,111893102273648
0,107628996123321
0,110402626354122
0,0997108857355929
0,1108153286835
0,105023727484105
0,108666376647829
0,106013699501999
0,10442588646025
0,105335506617524
0,105456488840852
0,102394016388626
0,108654083511777
0,101550445357125
0,104303318297288
0,104338865861353
0,110735466724984
0,100747022312311
0,105613010072958
0,102351963707075
0,107467341389215
0,0994515187248087
0,102544812570427
0,100222299370212
0,10517451758039
0,0946344916531349
0,10106337987472
0,0988258675260149
0,103946246150356
0,0958225481053068
0,0985761338111193
0,0976676667434944
0,0998842938193454
0,101591866581006
0,0981433650310454
0,0952657974228407
0,0988452495496947
0,0937464836261615
0,0957903871502681
0,0949501848689779
0,0989116424348625
0,0931108664169988
0,0988966945374666
0,0950267891776299
0,0961390124108239
0,0902452463883033
0,0973665524557061
0,0922610977007749
0,0928809198529201
0,0921745812296143
0,0973928675082826
0,0908650930884397
0,0941112386862475
0,0947143320013367
0,0955957583402089
0,0931284637237423
0,0978578618426597
0,0909201769435523
0,0948449237831638
0,0954671925492388
0,0947479857433118
0,0914714914197687
0,0930339649830286
0,0900915855323327
0,0970224724348858
0,0911653082583173
0,0944037581951074
0,0914749063568437
0,0980690358005488
0,0936667084715627
0,0879823863407139
0,0900346106771787
0,0910275433101822
0,0880036879704248
0,089846867829265
0,0884251420051741
0,0907507937280547
0,0870979154031623
0,0934559516232274
0,0895529683842745
0,0902246794746602
0,0917944161979701
0,0905921229953902
0,0901574348881236
0,0900487936975795
0,087657911570577
0,0875460631283411
0,0837526439773961
0,0873660099910291
0,0830761997577055
0,0898116685808914
0,0831820401828567
0,0858404688277191
0,0838741764186333
0,085691005493696
0,0825756715932587
0,0838476966920874
0,0809011904055526
0,0840532660521318
0,0837727556822912
0,0827078784353492
0,0802633902314979
0,0843769725892359
0,0785523534740105
0,0825243834969596
0,0764291832080326
0,0816181728213561
0,0818388683531748
0,0827069476337617
0,0797267073934573
0,0796189257552858
0,0773704847610189
0,0809578850274792
0,0793229196515971
0,0814849823685397
0,0788394765074781
0,0820227600664857
0,0779909732051517
0,0800529166109253
0,0775529277152668
0,0780415050809142
0,0765618819579506
0,0813244536037665
0,0748894841444088
0,0796908335724238
0,0751975327637209
0,0796769980441208
0,0749579316159334
0,0750052994479224
0,0777405350864156
0,0772751401106198
0,0725799060182386
0,0776487376584433
0,0726162752001183
0,0755138300600302
0,0745342019737659
0,0750843592652494
0,07213449793604
0,0753252717268041
0,0751960462090247
0,0738121209256933
0,0702728857205925
0,0741798451907512
0,0727365669567816
0,0746371225072483
0,0691096508121784
0,0723735605549236
0,0697008286070177
0,0716231380904014
0,069263635692929
0,0711198088626681
0,0684693085755322
0,0698337746196047
0,0716893339683534
0,0707458690434343
0,0679032491932576
0,0683529716056671
0,0672296377613894
0,0682826216062946
0,0650243429753396
0,0639278939471379
0,0624020466021875
0,0644588554927372
0,0649444245075319
0,0668794670977707
0,0642115737531289
0,0640840234734105
0,0631244770700574
0,066494374239951
0,0603540365287495
0,0633445136301432
0,0607554427153384
0,065021235009472
0,0631183067088286
0,0657055698782998
0,0598957278683011
0,0664126330589975
0,0599100851038252
0,0646130699775875
0,064056359726316
0,0612507908419108
0,0621279638585146
0,0636274479544742
0,064144579864608
0,0632450691583684
0,0625398143581242
0,0645757454886624
0,0590349199634688
0,0631704291791624
0,0615134823786984
0,0619753087790205
0,0624234235299893
0,0609277546133971
0,060266214185294
0,061732299201998
0,0609284251239998
0,0626270267692121
0,0620815834449827
0,0622728732710307
0,0573439174819653
0,0620086659826798
0,056695642344982
0,0587177533207892
0,0581599982054848
0,0590620363176926
0,0546064976799765
0,0609468388745985
0,0561030436679465
0,0585344102347536
0,0598423564699296
0,0572671423640371
0,0569858081313045
0,0603044957734208
0,0594291190104084
0,0587312430917622
0,0570179041322251
0,0529155732917801
0,0563987707611567
0,0588561385167131
0,0555502246165828
0,0573173937821837
0,0566395193048915
0,0561453033757323
0,0552834081711812
0,0562354703829967
0,0542947148511213
0,0530227061014318
0,0534247495969532
0,0522169604715296
0,0556676888459387
0,0567544541304764
0,0536069878193767
0,0557751395908589
0,0541083197832497
0,0574921651127795
0,0566552873710679
0,056643236763706
0,0553075002130607
0,0554295300237734
0,0556847408669959
0,0534617146050103
0,0542800840571493
0,0570536923172543
0,0565971110431668
0,0556380890935335
0,0522201862708529
0,0576537555752634
0,0528613750831616
0,0593576538013819
0,057057952686345
0,0555184381742356
0,0535609734878341
0,0544911775155508
0,0546144667567326
0,0559314441727199
0,0552723174359774
0,0562798413970546
0,0548393778190704
0,0560512962147293
0,0533326839542065
0,0539146056968768
0,0503659257643687
0,0521085456453543
0,0539967440582643
0,0542468818033348
0,0528756451198602
0,0515263654717269
0,054321988633853
0,0526299886361168
0,0543348280681629
0,0525367610031824
0,0497232919424132
0,051869400948389
0,0492869912280138
0,0518288526851249
0,049902654216761
0,0518186024227339
0,0500788786496773
0,0494681025390832
0,0505251371750123
0,0498329276231805
0,0521206663083005
0,0509640991447121
0,0503996241030999
0,0500836753790948
0,0470118149135746
0,0482253693140272
0,0464030969737966
0,0502940388562421
0,050479782808843
0,0514745661616618
0,0509377330196109
0,0486748801367583
0,0484427746825195
0,0499817073137868
0,0496286847420813
0,0502535934515677
0,0493061670979585
0,0484492273717491
0,0470482491034675
0,0520987085386898
0,0486824447983137
0,0501767052780362
0,0495185444507193
0,0506830221804174
0,0493869581261073
0,0539342199662799
0,0496361634527514
0,0484863277342746
0,0492212910931151
0,0451597446085052
0,0497973182731156
0,0511156817140947
0,0484124941949588
0,0489009190248194
0,0460952516317463
0,0532428305778154
0,0481888783800739
0,0467217090453776
0,0480014039920377
0,0514296956229427
0,0459438269402182
0,0484601732964094
0,0483163759925486
0,0497927125966141
0,0485318641430349
0,0446730256942403
0,0453522199807961
0,0471053877486979
0,0445861204978258
0,0478614131140599
0,0482050620445484
0,0440914298365992
0,0456841927497438
0,0444235282578256
0,0437947174443756
0,0454006929906925
0,046349164959986
0,0467945881690382
0,0420583859731695
0,042304409337916
0,0437696764528514
0,0436142312694747
0,0442063545169929
0,0433655343001147
0,0458615171214769
0,0418772501520027
0,0417061893668488
0,0440592935010265
0,0457102918834135
0,0411613786273619
0,0426290332075004
0,0457796811881122
0,0439045515717037
0,045640147969267
0,0412310332833724
0,0418980162619013
0,0442626018045192
0,0455070572518915
0,0430754947794585
0,0413768174745647
0,0437690924057031
0,0439875995650181
0,0441879759070886
0,0408744473983824
0,040448510313137
0,0426833019206685
0,0418554360423504
0,044600571427557
0,0420693686560781
0,0431226796580501
0,0415947154174182
0,0407344840997866
0,0413640177014007
0,0420623300863982
0,0410396173789753
0,0404580303455421
0,0433806821042697
0,0430370589311995
0,0414787608980606
0,0422568101661746
0,0411672145255412
0,0409406148968998
0,0414176148581398
0,0427395597162628
0,0430089982141574
0,0380598191685219
0,0413565917376511
0,0395126367716531
0,0393703233222471
0,0386116597437925
0,0382182455855887
0,0405644382269069
0,0403681093009451
0,0392042961793631
0,0392415066107761
0,0382436663471288
0,039897779067482
0,0385401224520397
0,0385463495345181
0,036265319715194
0,0388872816902154
0,0375130940914562
0,0382869760381928
0,0339065701156523
0,038628924530167
0,0381655325840675
0,03922357983694
0,0378998222495649
0,0390499019857051
0,0339371614104474
0,0393069018234548
0,0371005618061638
0,0389215890101415
0,0353431553053149
0,0402007358058248
0,0367840184729095
0,0410419773662872
0,0381272578137283
0,0394991463148886
0,0390631187299442
0,0400439600429508
0,0376454400689016
0,0428339442485339
0,0394202795004232
0,0369747111309784
0,0399537289607191
0,0450384136109744
0,042901831870781
0,0440522769571538
0,0396063126673998
0,0445725171776466
0,0442208189186084
0,0464926053016668
0,0440546734368671
0,0504007373218844
0,0438865189734369
0,0451033176186595
0,0409459843669379
0,0383485635892011
0,0356668733112624
0,0517227863744917
0,0503124932051476
0,0475641085847869
0,0344988704857664
0,0441638869969044
0,0423944332149689
0,0422325339117706
0,0355572330724587
0,0448127936891219
0,0335761485275796
0,0422347574315767
0,044243990978826
0,0451485923317591
0,0431957628326864
0,0412429193347491
0,0391652369577801
0,0477533815764278
0,0363785205456927
0,0531673600161516
0,0396399925364579
0,0434445474255916
0,0323678752059993
0,0536083334335511
0,036848244479493
0,0534710437608188
0,0326719703805187
0,0506965761593731
0,0310487492475051
0,0521121277803989
0,0312928847850288
0,0541514197839262
0,0320850956994036
0,049515690648895
0,0224789924177791
0,0477322728528059
0,022153110918785
0,0485346507996957
0,025484336598456
0,0599275181591208
0,029441998038052
0,0598217201996903
0,0226699168625545
0,0500530644921039
0,032951281127556
0,0624620022904854
0,0349329108135948
0,0483537494920974
0,0329510035219982
0,0498394842037417
0,0494593168403765
0,0440235347849058
0,0466191112331816
0,0350012106330187
0,0620105793975896
0,0209542523032069
0,0628471076164482
0,0259766846942823
0,0694052455131294
0,0215347469994068
0,0678364338936046
0,0216043250935746
0,0606112479802598
0,0304995551504178
0,0518710120679799
0,037612744558003
0,0436427971937229
0,037887864375956
0,0416538936192024
0,0430038501086823
0,0404476478788233
0,0381071936242856
0,0432544578254852
0,0339723599395452
0,0418852766983039
0,0342814384710054
0,0428016220468792
0,0297289892330064
0,0420638956858677
0,0348224466649635
0,0379596447504791
0,0332554295789517
0,0353683943575513
0,0324863245282582
0,0413272000631541
0,0340406372852734
0,037508726405824
0,0339557329701638
0,0388619953662858
0,0332718269031108
0,0351244529326007
0,0338912683276873
0,0375378906474907
0,0313452166140687
0,0388413533134436
0,0324521473834808
0,0358236085425746
0,0324618465042357
0,0370215709535233
0,0339374451015765
0,0371609427277359
0,0316905318408853
0,0360276234920533
0,0318078359115673
0,0359292636517623
0,0330259424788212
0,0390543359371037
0,0344028163710232
0,0366306739334184
0,0341942485223263
0,0375410483057191
0,0364511325694833
0,0386223737348264
0,0327325714169801
0,0377947368569932
0,0356789070615435
0,0364102624939714
0,0333096985718193
0,0381940721997898
0,0344582808673217
0,039841263637564
0,034744411872596
0,0346228164957734
0,0335449618766252
0,0380330455535214
0,0332517875616616
0,038057461481096
0,0348332495644618
0,0370151441975675
0,0334362386952219
0,0365249312281248
0,032981973387261
0,0350963543771844
0,0348445277674389
0,0369785932643821
0,0356900778706648
0,0368619932985958
0,0339921808106216
0,0361638195381795
0,0362001114425261
0,0374062094301079
0,0320581099616545
0,0338351919764456
0,0310506790248133
0,0361683806792013
0,0358956765832545
0,0355180556480322
0,0327802824454809
0,0361730611829081
0,0330323585842786
0,0343711310904657
0,0347592709562507
0,0375361611114834
0,0350698876821815
0,0374236602863023
0,035545375834645
0,0382703648605728
0,0350551631937397
0,037579314933088
0,0349171995478456
0,0353019727825306
0,0332738346791677
0,0378512532833361
0,036428891424019
0,0359948576771509
0,033972572038673
0,0380457886566824
0,0368150336146537
0,0367065803108798
0,0356655939615967
0,0388436253281454
0,0363918354636345
0,036794159554976
0,0366873227386971
0,0388829995720148
0,0361086489191529
0,0379304057918972
0,0332246054841508
0,0380442708487554
0,0385977683716877
0,0381441122897279
0,0365128324505524
0,0388974281297274
0,0369202753231632
0,0384474281101942
0,0386171106100153
0,0401644317832821
0,0366061517030092
0,0363223519626427
0,0349385219488674
0,0372940545708441
0,0375860936974156
0,0384301539911365
0,0347581076572074
0,0375081965244732
0,0367061279474254
0,0365198450510332
0,0374068672083539
0,0396344261501175
0,0358713771939497
0,0376696699576947
0,0344288582198919
0,0361766508756855
0,0384253161549815
0,0393534699288125
0,0382478003889205
0,0386546765187448
0,0361405582527005
0,0377534031084002
0,0352076873940008
0,0380833523453451
0,0377688733622043
0,0379682580708789
0,0355663963826571
0,0342844336018492
0,0338072090669461
0,0382189790264063
0,0376326785230112
0,0386310693560693
0,0372361882803295
0,0385363654551631
0,0382404499656503
0,0393245109299835
0,0390554002648406
0,0403631955943245
0,0389303891030923
0,0391813880975338
0,0391697987463603
0,0402093907998274
0,0393938792848612
0,03943972718566
0,0359485981767079
0,03829729773212
0,0391525951479757
0,0384978103417633
0,0373599598723048
0,038737236246382
0,0384097709366918
0,0387009040507652
0,0367357803890414
0,0380353098047929
0,0368445938813237
0,0392976575848657
0,0387000306906268
0,0384010235236734
0,0388088672580858
0,0409001156255334
0,0383878524154408
0,0376700576967085
0,0373326371286289
0,0386915664579389
0,0382585155764325
0,0392306715311435
0,0387493536493181
0,0383452753887238
0,0369494208394655
0,0357641653596004
0,0343966651378469
0,0366767246834342
0,0358738162919879
0,037542091890886
0,0368559152320298
0,0375759432843962
0,0369367568588539
0,0362619733948388
0,0346754570148146
0,0360132072540526
0,0369871740289007
0,0371612888763447
0,0362300845076467
0,035973675980434
0,0368500413555439
0,0371307493170057
0,0364549268187623
0,0380789491135236
0,0366525053794392
0,0378491640160061
0,0364791142792454
0,0365516349198909
0,0369103907220712
0,0380036680283475
0,036298810083491
0,0365042978276521
0,0347694966266085
0,0388315394700354
0,0393479479450592
0,0362171829257331
0,0354705893993625
0,0368935433767067
0,0354339986713004
0,035279912689381
0,0378651111206747
0,0369887302937031
0,0355757416385831
0,0372082388075764
0,0367413375067193
0,0364469600720786
0,0333248614624759
0,0370928940678913
0,0394993019739993
0,0388591368037774
0,0372221824378183
0,0356675830767323
0,0366343729883371
0,0366382193439928
0,0361769037758305
0,0374547445016807
0,037341977022687
0,0353101974420341
0,0344872409465486
0,0381296655380973
0,0376985964978227
0,0366469195147971
0,0363052034731166
0,034809036037101
0,0354697409726465
0,0372694541417247
0,0337590434603701
0,0324027411887878
0,0340132627562779
0,0338011482622846
0,0348995044606751
0,0363532703896716
0,0359490064959019
0,0353031164816178
0,037390081114992
0,0410034775061033
0,0378032395270923
0,0340642988450645
0,0354512531671081
0,0351143839882974
0,0347243684671336
0,0347406167140211
0,0363826618695988
0,0366045571148735
0,0330821344659637
0,0344818381382521
0,0334671892197371
0,0324573416519984
0,0339045942314535
0,0358536615414344
0,0354043205167472
0,0350302012328746
0,0343437964182949
0,0340123682726982
0,0339353849453654
0,0347720612174115
0,0348183638368047
0,0354569371802067
0,0347582233639377
0,0325434326033355
0,0368567496768666
0,0386603891648672
0,0341924534660834
0,0342555861786521
0,0338514166298787
0,0321917034860445
0,0333923147229846
0,0337274319841722
0,0343072086379607
0,0345357026990533
0,0343302894338214
0,0337083692555347
0,0324148316783903
0,032552306178073
0,0345867191046997
0,0340160137352419
0,0319036975606037
0,0336508207021777
0,0330854699876581
0,0325126591069549
0,0333568365509693
0,0317171354665399
0,0334110886501164
0,033286486133616
0,0336439592286387
0,0345689105385944
0,0336897035353541
0,0388422991699296
0,0333536515455503
0,0303461369570512
0,0302780107609607
0,0295703510937868
0,0323448807035064
0,0306885151015825
0,0326976559226976
0,0318606022531212
0,0302243570756294
0,0295152103464993
0,0294192276566398
0,0297368188515985
0,0293305600254757
0,030669076477349
0,029808298349362
0,0302817507669239
0,0306103675653001
0,0281201697714103
0,0280334231113854
0,0297139588050756
0,0304570274718432
0,0299686223913165
0,0301552124153352
0,0288519683885224
0,0289570330175382
0,0418162766467938
0,0454829562979427
0,0328001755111318
0,0295964996113218
0,033186167722924
0,0333181998532419
0,0303963338648397
0,0300869057899169
0,0301627201178115
0,0293172387748154
0,0297612965710943
0,0291663618799313
0,0281007285070964
0,028935043786758
0,0278587562354583
0,0277603326721122
0,0285842289563479
0,0297254551047288
0,0304169791586136
0,0310090462541329
0,0303915803216014
0,0287649773095744
0,0287484791062769
0,0308889067444662
0,0297534223881497
0,0258777349628119
0,0312497531923705
0,0400040771857166
0,0348754866918889
0,0313884239040638
0,0286082390569173
0,0278021814352955
0,0267729940204702
0,0264096033315625
0,028308234433708
0,0269497102743044
0,0273393728254192
0,029253391884447
0,0261869527736701
0,0269913216929799
0,0279222870888071
0,027625404538046
0,0264128123527046
0,0274971076295445
0,0273211978225704
0,0263024830873007
0,0240939736484915
0,0265892201475869
0,025318161154718
0,0280276499052674
0,0314367395605208
0,0326562219390794
0,0247226814258253
0,0399251028998431
0,0475312940680047
0,037698944574218
0,0277186619627696
0,0282984017063396
0,0266433294296204
0,0283385527192655
0,0264505381395089
0,0256367221805928
0,0263814981891575
0,0274823039273613
0,0284273534295742
0,0272935305636824
0,0259564836040592
0,0271168730128804
0,025374155721964
0,0269011998285346
0,0266837567206367
0,0273523807668353
0,026896549797337
0,0266095119429486
0,0355954526310517
0,0485673506902818
0,0354887486072024
0,03210137056036
0,0247926930594036
0,0318375633522715
0,0500298436949365
0,0371958751735272
0,0306217325333383
0,0282953082608666
0,0276828217481267
0,0256468250251498
0,0267577509925817
0,023274744696757
0,0321076323453927
0,0312798458597473
0,0327604676244799
0,0332907137811361
0,0289806928281766
0,0272138438293226
0,0270112519731843
0,0269100757298354
0,0260194582006514
0,0272914138861366
0,0268987184347905
0,0244043497731857
0,0235802593812593
0,023497922171122
0,0262751131387876
0,0236221323502209
0,0338426695814041
0,0353297817002285
0,0294681023071041
0,0249417804937867
0,0261361516162595
0,0232917367861097
0,0413665210762318
0,0453292411466375
0,0325823876553273
0,027316399250341
0,0276634815279748
0,026523764817173
0,0271998346582065
0,0272431955785922
0,0260703038152084
0,0253306799611203
0,0244399306528062
0,0266495744249217
0,025003195001294
0,0273948257313759
0,0243903369829106
0,0271174685280472
0,02608839651691
0,0264657284522565
0,0240784710119907
0,026849993349829
0,0256800533832399
0,0320290585685001
0,0525459787754994
0,0528001899783751
0,0506072181767822
0,0415944243900439
0,0374654112072825
0,0292150142471954
0,0290871534376225
0,0256199369169128
0,0281032090665105
0,028094489505894
0,0286368178010589
0,0273365599554678
0,0293639213788666
0,025974419631464
0,0267845608819788
0,0232336134013428
0,0248125063651112
0,0243352973636228
0,0276569483479508
0,0240337407850894
0,0264847232151636
0,0232358739302054
0,0283630909853491
0,0389934934695623
0,0373357540289523
0,0299529457915469
0,0310241941509831
0,0692771000007466
0,0490031929711733
0,0424685289647631
0,0305767845144683
0,0314870895069781
0,0250394736794129
0,0247004618761814
0,0269290724147891
0,0353764790208799
0,0269661449748103
0,0276310235537008
0,0248778818983239
0,0278070221476107
0,0271517545716465
0,0261272898672725
0,0489209175320695
0,067481897847619
0,0425128085001845
0,0336358019101852
0,020794329304255
0,0541583048285055
0,0570338897532463
0,0335809747421928
0,0304643769443178
0,0320736131768934
0,0307604088911698
0,0285655165858916
0,0246978426883653
0,0274282339410635
0,0362521157996989
0,0289033239514035
0,0293213091524581
0,0271883866089475
0,0278354683915094
0,0300039935536369
0,0289218856551998
0,0448243965940185
0,0398157031780679
0,0301111176761805
0,0371795545138579
0,0347483987595556
0,0280360441325002
0,0263547491586738
0,0285994991387088
0,0266423701365347
0,0468305814387834
0,0444112029334343
0,0402338402518515
0,0523324427800117
0,0406909246128732
0,0279236247429306
0,0340798844499987
0,0462700646100517
0,0447734464261777
0,0208639709333972
0,0590599887735735
0,0517806249614273
0,0738256801455972
0,0487567937495945
0,0407152872383502
0,0282107642565605
0,0336252163575235
0,0235473861038269
0,034692108657931
0,0504092683020607
0,0334594706664854
0,0346065786134346
0,0254448930374508
0,0522362940789276
0,0428247657174364
0,0410370656805904
0,0326121581083167
0,0342374212646703
0,0317799370723638
0,0583942465989019
0,027112420402459
0,0456910884380021
0,0692167157424579
0,0782323469416042
0,0730251081862511
0,0316884815055315
0,0473729635363663
0,0666254900599251
0,0434955597675874
0,0383567137769771
0,0296818535089082
0,0410469200544004
0,0249019400490164
0,0547552467490955
0,073864297206105
0,0445837774160386
0,0377827708912694
0,035716353444716
0,0450828452187473
0,0655043141750012
0,0437947446707676
0,0368766746359388
0,0358876032151662
0,03693154092498
0,0409726716232796
0,107550321431667
0,0509741694408688
0,0825915860423504
0,0639529207393207
0,0791007887713553
0,05179158322674
0,0559161013332465
0,0413207348142322
0,0718843103276778
0,0640706379739946
0,0519094410160925
0,0311203806200293
0,0866921860277013
0,0592013742637739
0,0555776525568972
0,0458642993867908
0,0444866651166329
0,0428345321952762
0,102864212272337
0,110360409203623
0,0952536071249426
0,0478395922364315
0,0641654757535213
0,0759653108747544
0,0542937050359319
0,0474189438294939
0,0470025470744428
0,0456582681529772
0,040754128822865
0,0470080866816087
0,0625698920027672
0,0469599005885057
0,05887224220212
0,0413913231991415
0,0620996682646016
0,0782196153777922
0,151964620075227
0,0846561855584078
0,0847624606364584
0,094843454162396
0,0897131927666408
0,0744544379670535
0,0553302939966298
0,0589331304395764
0,0678307853535154
0,0667670178711217
0,0601442802938593
0,0624143329019257
0,0979587163858897
0,0721856274522333
0,111114885870874
0,0769150857259368
0,0846829161236893
0,0646272341593335
0,122738368756941
0,221430879725392
0,116100391207408
0,108517116201794
0,0861125013180913
0,156200090378445
0,145104925522216
0,110346122756612
0,0900283754475577
0,0899700568843648
0,0835302293460588
0,103764320535163
0,106265967903924
0,115597453428691
0,124142828588156
0,109125510616424
0,107773550578681
0,15469486675153
0,214586915710305
0,215796281992621
0,136893967528553
0,13453730229052
0,150890040829672
0,149597685985785
0,125732915871614
0,140510167465829
0,116753959108732
0,186957800045702
0,177059015905539
0,166623645711606
0,136116148447944
0,173374667591366
0,175122534669023
0,166349355305391
0,233358396862248
0,184953143119345
0,190957393541654
0,157131550890553
0,1842538666845
0,15646445660484
0,186809057676005
0,2079759461188
0,200374600387725
0,193882558955251
0,18510227950369
0,190810764210842
0,186996000906052
0,199624836792527
0,19513308095659
0,21121779611949
0,251205338806506
0,26630251521261
0,428059054841991
0,23192372000089
0,232730295261452
0,192871989857342
0,237903261534228
0,248185443635644
0,252799171989843
0,283525956243739
0,234944329869884
0,216764855954171
0,2057501902591
0,213531292407173
0,202899828261842
0,214089608938039
0,211225193823407
0,203089890105814
0,244223726784649
0,195128366254259
0,323488357097861
0,242772625534544
0,233076515972018
0,194834827108424
0,208524582126792
0,183952800167019
0,203516977971172
0,172856772039792
0,223435130340502
0,19745115919798
0,198779243491278
0,181713859425032
0,178270743372546
0,219584856116107
0,207320736654348
0,183899401488658
0,175291251974104
0,170496305259897
0,177728966065774
0,151015935955049
0,223240711489828
0,185443978889037
0,1760429826176
0,155261806212079
0,153228130801615
0,148526794151539
0,14634476252784
0,141660053604591
0,159055645519771
0,139342799999154
0,149386089016463
0,14702437405771
0,142289984582717
0,136377310230886
0,135976293942156
0,141269612535188
0,134902341336521
0,142016552959731
0,13366368116458
0,131993575101453
0,131563726091186
0,127089542802679
0,135703004745475
0,129573254375956
0,136727728159736
0,131494269182844
0,12658082509912
0,129500165202417
0,126313126622812
0,129378089985925
0,123856370473839
0,122922499045864
0,123048640248716
0,124510405655124
0,124996461541532
0,121734350572358
0,119864324509905
0,126068259960826
0,125309483857144
0,125028499955793
0,118839762425491
0,127754419029847
0,124888849268489
0,13062891138304
0,215854916060268
0,135318590786608
0,14204788643806
0,11195106848554
0,132977808730094
0,11178373872524
0,131667155222677
0,180307104544783
0,14998732096756
0,128082504344707
0,117312934293698
0,116336153143626
0,150246254034599
0,119254919538805
0,123970899352729
0,117022957230937
0,117109757436307
0,212590107706347
0,1745764139364
0,296321694299246
0,189574387614652
0,155526959886829
0,107139406650346
0,173443940869741
0,145860638314244
0,126488038458961
0,115550786200586
0,111891473067715
0,184380495974106
0,122977049962161
0,124127616972439
0,106834592528523
0,113993682346056
0,163748623655618
0,15277055061283
0,138311112645114
0,177488525444593
0,153249409090964
0,160946889100661
0,199032607145177
0,22097336847086
0,146198975030459
0,108561490564718
0,120910546571907
0,106038905442176
0,143299471199589
0,172637557703929
0,118633487390572
0,13640090150656
0,0909984947288283
0,110932954325908
0,103395576339729
0,15674374796134
0,104433475268728
0,149075941831567
0,139035211707122
0,102441738866598
0,136827966875823
0,127412061263377
0,195005644132755
0,166525847533552
0,123412562962224
0,0892735341507137
0,176326051841114
0,143079158674101
0,132112483517271
0,12194714127491
0,0835324080401691
0,117021766306989
0,114158274430616
0,0910965207652756
0,130592686317879
0,121335959181411
0,161063185394407
0,171565835482747
0,210600925002093
0,16545182391725
0,101431160847123
0,0896589158990805
0,0840037294078141
0,0929302493461577
0,0901884224790237
0,0767187506438362
0,155643431763637
0,0748476450830517
0,116112506614259
0,131082411893978
0,0965230579174611
0,0868198387923985
0,0869036145423246
0,0782559743203413
0,101915497782259
0,13361872139994
0,163586928571478
0,101097535500697
0,132557556165445
0,106637624892173
0,10629280240119
0,0873012198055545
0,0963286009489302
0,0863999814613718
0,0967569524495744
0,108237706709753
0,102056152936544
0,0949330022248712
0,104917217299282
0,0912233014936059
0,172907873311638
0,121445191423301
0,122309190633366
0,162219790108311
0,149214236094723
0,212458657242122
0,13150906600236
0,136035620388563
0,122613841873764
0,128834277823026
0,132018559881897
0,121738848869544
0,174157220604611
0,168034431950571
0,139635975843977
0,140641949706281
0,137717070182709
0,142941251197317
0,149840061849055
0,201002693102032
0,171636865818992
0,287129578292713
0,1893330980862
0,203650726107483
0,151966204188903
0,152395574884568
0,16504224676346
0,155786821612161
0,155466008256317
0,14086186136539
0,166422182160867
0,187881246126887
0,151236115012819
0,160657140918712
0,147935265416048
0,157564088429148
0,151467689356397
0,155579814890581
0,152401588382078
0,157813994694601
0,163747379718633
0,150813189476758
0,181930190842401
0,25779040335218
0,17877466208593
0,178697520000316
0,159948692364229
0,185184761010388
0,161717150249326
0,17536191386436
0,193520488445159
0,182420712290415
0,175740165845613
0,170870076590587
0,176037334002831
0,169067343311298
0,200315334242225
0,207032805973362
0,171037971044781
0,197801692798215
0,156661605964245
0,280577137233238
0,203743534277793
0,230908450468879
0,197545053821213
0,199966069268686
0,176679672132117
0,184983769105
0,176262022185234
0,190297044956071
0,185581518685669
0,186592599575183
0,186907687763338
0,178941598577777
0,184045133501272
0,175956505047129
0,189999673102301
0,214250900578584
0,182532410787662
0,185678416091388
0,175736236785421
0,180621436614843
0,175314300578411
0,224695169409389
0,189461477987339
0,196553045407233
0,179601905212762
0,209310224988917
0,213030239169301
0,192745547719408
0,170073869812109
0,180949882439709
0,166562067810317
0,186302269098614
0,161242809901284
0,206147512653293
0,201875265044025
0,195276925823709
0,180018937922212
0,182519181906098
0,173903435853521
0,180966867698713
0,176339142917702
0,185445066720696
0,183356205638295
0,188988427137871
0,189730393219916
0,182311379086053
0,187840250239831
0,200278025930276
0,215471922718683
0,20554455048842
0,182875743057373
0,193311042603267
0,176704469695307
0,194380409072681
0,188807462963251
0,18625899563833
0,173541147884036
0,185146455722356
0,167698266486555
0,197542509777882
0,216396286012522
0,185891760456683
0,202841635225933
0,171607880341379
0,174619037993359
0,170588179043974
0,170515879188364
0,164181783799171
0,171906068263858
0,17173813941991
0,162777043737603
0,162784600259017
0,159855205521197
0,160223061449678
0,162860009027072
0,165592621213328
0,15961062467763
0,161761639761477
0,156868166070063
0,162382761099531
0,157088440552016
0,157782637151514
0,156045368711329
0,155419173362376
0,186259378962932
0,18249924946759
0,188672487371286
0,162964290413382
0,17111097798447
0,159532962661364
0,156766976182648
0,156336363105163
0,152975513700922
0,155643345777763
0,152921981366201
0,156360270496855
0,151827698829841
0,151539788366369
0,150783155473603
0,154372899859979
0,151260748979468
0,152496986621358
0,147381674836148
0,152358348490676
0,146482310009174
0,153934339488328
0,146098468362544
0,162468675812235
0,147689498070976
0,154953433203191
0,14768411926846
0,150482776791998
0,147176968940305
0,150624484935033
0,155966010359517
0,147362693794809
0,144533637586299
0,145101163442894
0,144631625853239
0,148130025704402
0,142118099646315
0,142797929242
0,141247266186309
0,143356738673332
0,139915365436242
0,140790771069001
0,139956551855481
0,139436989911491
0,135035452647164
0,138410549203561
0,131091161826986
0,135689368348455
0,131723705065392
0,133519727503304
0,128970060730941
0,130004877715972
0,127372525032686
0,129317553331538
0,125193775494764
0,129009135206232
0,129360554147122
0,13225750751164
0,124803528930258
0,126246333782474
0,126840626436659
0,125858766414809
0,124516643499956
0,125109829360261
0,122405166210213
0,124112617516228
0,121213035643375
0,123842674060685
0,123276254312452
0,125345383788402
0,121931367211608
0,124454886267349
0,123279653954395
0,129225648465639
0,127174019354838
0,130821045774929
0,129560271648654
0,130331411133659
0,127942497343539
0,130231612801908
0,129399922724207
0,131389027325302
0,130983418535149
0,133180848793296
0,131467547661106
0,130933974579421
0,13270486388211
0,133128098223892
0,132136015375361
0,13122963503937
0,133257339206277
0,131562661605865
0,130868760701418
0,131867970967965
0,127149623655209
0,131671998426688
0,128869661339378
0,131688977122518
0,129454852835885
0,129456901175202
0,127550356018461
0,12759317104146
0,128838351688549
0,132452302149653
0,126436110065342
0,128131755403887
0,125403655801854
0,12591662423508
0,12806739728437
0,126606031361921
0,122746959684802
0,126712187467489
0,123201085807323
0,123346725181409
0,120353385545071
0,123846030102837
0,122197715870215
0,121144658490125
0,11830936785929
0,123329587558099
0,117594965433534
0,119472846903512
0,117216992754339
0,118082117868258
0,117721668202231
0,117752919487309
0,117059061451567
0,115778459736501
0,114592382311186
0,11566148982947
0,11300150112194
0,112495252575654
0,11006586729675
0,110886423155729
0,108807996997573
0,110419848966541
0,108334739312684
0,110401411059919
0,109171185774556
0,107384734713662
0,105301141778293
0,108243238221238
0,107393806871595
0,106272886586999
0,107284238660117
0,105895070060865
0,105037565331282
0,108164259652145
0,108095869504048
0,107308250969318
0,107031809005791
0,104998201225611
0,103610173946952
0,104028094230668
0,102101249766154
0,101954708414787
0,100560027315187
0,102734699978035
0,0982905602574003
0,0982333756395229
0,0959034421504763
0,0971888929855085
0,0945033559301184
0,0935078447679496
0,0933316967688255
0,096321801262048
0,0932027344927142
0,0950262561144763
0,0931287075876297
0,0967755159014756
0,0994661829680843
0,101029186629674
0,103183387348998
0,104544668513991
0,109372425412959
0,114338376545202
0,118573185746984
0,123494174520939
0,128116739246082
0,134243687388983
0,139683230783889
0,147000122098917
0,153170091674606
0,159865970050211
0,165190386629149
0,1725208256755
0,180694011137607
0,190010975007561
0,197831590283879
0,20546455836601
0,216205410917522
0,226441326896894
0,23103896097453
0,244723858510249
0,249075288017717
0,255845303161857
0,264387956212654
0,270251972725718
0,277612386406275
0,285499731041859
0,284977948625941
0,290824649285428
0,291345282069812
0,29425296092824
0,294090560391642
0,294385921549473
0,290880075242644
0,291517652253447
0,289457132113823
0,287895500022733
0,284555818055918
0,283327233902812
0,279876087139757
0,278350417044018
0,273687359111569
0,271658814467976
0,269821212661361
0,271454045131764
0,266141647127055
0,266584706242083
0,266499031751389
0,266972330272043
0,266667025123838
0,271575758500491
0,27088221240372
0,273902891868492
0,275280195531709
0,281633186439679
0,283981036109911
0,286224126695918
0,290578653112515
0,296640485520591
0,30013052110371
0,304130904658679
0,306226094245675
0,312272698331179
0,313809170410406
0,319241537885304
0,321569266775134
0,322585537981211
0,320336279703116
0,325669760816765
0,326755250245221
0,329495247087273
0,325986243949671
0,331747002459319
0,325846918786808
0,327144496766809
0,326697379163446
0,326508250569554
0,332333460952703
0,328864982018603
0,331249069149869
0,335518713277525
0,338065427085987
0,343529132752944
0,344487763201047
0,35190629321125
0,353734833408191
0,358110989926153
0,360916510005569
0,365793327269574
0,370253047381665
0,376114935937593
0,378393276093394
0,387115294814022
0,389450067462101
0,396880366898826
0,400349223427015
0,411294257724541
0,420291636906281
0,427750244048882
0,43594220793479
0,450285654030581
0,454078681737102
0,469744511728524
0,483330198148989
0,496368544152141
0,504840817555801
0,512752945484439
0,520002612552552
0,528402045533585
0,530465375065124
0,537544006453273
0,53167891259382
0,53760842540647
0,529081961611963
0,531775858287956
0,525328688867655
0,521884184473557
0,519520899535239
0,516019381790904
0,505685310094103
0,507199530316989
0,501071016732641
0,496933538073875
0,492349073928624
0,496833638845661
0,496514582759922
0,498170366138344
0,496125923384764
0,494791843253429
0,501131339202803
0,509677049419216
0,51294914498799
0,52125584736796
0,520866583606856
0,533233609814237
0,536806806680636
0,535154365559856
0,549001245909613
0,557682025911964
0,561197460129931
0,567407038968462
0,576716528717698
0,572898732162137
0,578553350656707
0,587988143043466
0,598606257677028
0,60272735954083
0,607255141741492
0,611512733276625
0,606888396321154
0,614005503667021
0,618217486571836
0,619801918606289
0,615106140905717
0,621925252020186
0,624831598263086
0,631307115745827
0,63932459909511
0,637734438061237
0,636669503295665
0,634721030773862
0,626955354644964
0,630185099637835
0,626942513585185
0,63446395631947
0,619658277743949
0,622460797278986
0,621935762219473
0,605148197192253
0,601620671911731
0,602804857629718
0,586108333328095
0,575145571448103
0,567523923527111
0,548967334374263
0,534934389388462
0,520020589103223
0,502718602476957
0,482112025813658
0,467143518390437
0,444184518589146
0,426748268777031
0,415038008140894
0,398897913311103
0,384339565028819
0,373535998803243
0,364240838328554
0,351168433041622
0,347711301567591
0,336960519100509
0,330965601011299
0,325541773064269
0,32244543921595
0,318663508313934
0,312427687322865
0,304769748722245
0,301654310439249
0,293890509662018
0,287781827308727
0,279066751668731
0,272131057292355
0,265110826843011
0,260196651611704
0,250066857267346
0,240661646846512
0,232885986196645
0,222770929603354
0,210400307580287
0,206610047419816
0,19279226935479
0,1823827084254
0,173943328312321
0,165459625658856
0,158031548298223
0,152643044382938
0,140681258720099
0,13469284978585
0,132085469622866
0,124502692267729
0,118571412629271
0,113307165396677
0,105137189724644
0,102491983933437
0,0994868842394336
0,0948302787038829
0,0935141446446075
0,0897523335508124
0,0886028556240999
0,084729526589467
0,0828715146152497
0,0811498772855202
0,0810067618885916
0,0794795739433309
0,0786368144860925
0,0789209557885974
0,0780319205956811
0,077158105944322
0,076238518522194
0,0765085684493994
0,0786392964911111
0,0753445607863054
0,0794613853489148
0,0775553505572677
0,0766692843134277
0,0765066318644371
0,0772111272295388
0,080015167148206
0,0806608995081438
0,0827995596780303
0,0832112260170216
0,0847262226032888
0,0857548553770437
0,0855721350917532
0,0854170000961576
0,0870682693717883
0,0871796785760531
0,0894332714061619
0,0876833055160406
0,0834436033855371
0,0910481853643219
0,0937889772822058
0,0884169131623221
0,0888541239258668
0,0898077703773413
0,0908814614039723
0,0899215304975053
0,0931170927736426
0,0932178739871488
0,0962866753362374
0,0920324959258321
0,0938502992832865
0,0967879574325628
0,0956732545847781
0,0958568342166655
0,0947214609660221
0,0948630205353015
0,0964505551755534
0,0959724330392192
0,100430717560665
0,100451608673174
0,0945809497263323
0,0946720477612948
0,0958856534662948
0,0946171055957641
0,0945256339733005
0,0940998221732589
0,0961745022542534
0,0982772663765929
0,0918401348166066
0,101300123010764
0,0961441896069698
0,0998096814184267
0,0980107552968158
0,0997499942622188
0,102336965818857
0,100912135142691
0,103530201181108
0,103859729803949
0,109064594785591
0,104067798712289
0,107432425622783
0,116026469451884
0,115780817806086
0,117541564588708
0,119174541469322
0,117954297498701
0,116810644677559
0,122749481483837
0,119411115737186
0,116801614054028
0,110347357995526
0,116005828913457
0,109375642960215
0,113120722591466
0,112671653980923
0,108881245559573
0,104274773076519
0,109711770309606
0,10744170413717
0,107629738781751
0,106105721867048
0,107770285651136
0,108638358375157
0,106542500396679
0,108249941166138
0,113986550280729
0,108478281276739
0,107094890993137
0,112072133581103
0,111395750714082
0,10765942460475
0,109426471272052
0,111930303127168
0,106015925032402
0,113578711086728
0,109319197937461
0,108385366974271
0,109010624505545
0,116014804324749
0,118108076377305
0,113853610582122
0,115391877269547
0,114206697552924
0,108825875879915
0,111020517296121
0,118030392086997
0,112172887827416
0,113061108382816
0,114688022312083
0,1134174125917
0,118950371048655
0,113072780043131
0,113594158437294
0,112895042838183
0,111176670369471
0,121071380310687
0,109823094508286
0,114099815063075
0,111517954020764
0,115064456728757
0,11791130734298
0,118853163877397
0,117730504432284
0,106678633638812
0,108117342246664
0,115778003645504
0,115573733042167
0,113198993936496
0,104325673216449
0,112449434659767
0,109166407706803
0,113282762483539
0,102459715555016
0,108114980275651
0,101836894938548
0,1112046776331
0,106915889235282
0,101081342733424
0,10683068622336
0,102843757738482
0,104053889214966
0,113744870217549
0,113495037281707
0,11414613117634
0,111558788975006
0,111078845195814
0,117150587562011
0,127097161890069
0,12022599646338
0,11613562313927
0,114558103672693
0,116144296473722
0,118979128750231
0,119489732185617
0,122829926606528
0,116537346560149
0,123520474600208
0,14116313322157
0,130387198297555
0,128279837665362
0,126969204791939
0,134848539237208
0,130634184713519
0,139099885637928
0,129060181611927
0,130649334964125
0,137622096493604
0,140310582121151
0,141620747886838
0,14785045265777
0,144514113159873
0,154959673084751
0,162778968762715
0,164466937205603
0,166085460220246
0,158589386128792
0,160898550923838
0,175325726588548
0,165603520320848
0,173286597799226
0,163994925862995
0,182813938156232
0,184922021283177
0,192107943861433
0,174438508819148
0,187617972806715
0,194674384665809
0,188244464832813
0,172491824483384
0,175383243599797
0,169106400209084
0,176546242584607
0,167815635103943
0,176477497661974
0,175646631744628
0,180429027495785
0,182655752929343
0,175733117069566
0,175128239979107
0,189312640152895
0,175808446699316
0,193658290442545
0,1769678793768
0,179847644186512
0,184062628423929
0,169451516272106
0,172584714598167
0,172661393373916
0,173384195348779
0,194843069843892
0,176208898646657
0,186553811678921
0,174508216354438
0,181579271808344
0,182221187883713
0,186750028865115
0,18112971881609
0,171887837143014
0,161589540654298
0,18698188493099
0,173121730184162
0,183231372138046
0,173412992524908
0,181044867017496
0,189486079707482
0,180472331695496
0,170319702955137
0,182504031689215
0,192953211215228
0,198920187378241
0,194418480781424
0,179855142439868
0,160426510574299
0,174992044519664
0,175834793152286
0,193840046670417
0,200064829386122
0,185961207016646
0,165348814722285
0,181265302312964
0,182913970320244
0,19893325611676
0,202326463576857
0,197052250242444
0,169413821937823
0,18120832108108
0,186919268543019
0,197774646274943
0,204892647078897
0,206814522816479
0,215848195353181
0,206666041945284
0,192776709611938
0,191190419249236
0,206690804822972
0,219869309851273
0,234288681742449
0,219693388720033
0,215522843897184
0,181309429841732
0,198390972464514
0,184008204282798
0,202863114494716
0,241616601286821
0,19559285912026
0,223929676969438
0,230278464635799
0,233198114783866
0,242507838204184
0,253481880796345
0,229817705987569
0,235478340271548
0,240032597590635
0,249846785950302
0,204108441296978
0,21325563084488
0,204002084937636
0,241242843288151
0,247824588186843
0,238249711684918
0,198045095383551
0,223248835163726
0,24025973482434
0,253585744644361
0,213422465917339
0,181966518869643
0,197466773821293
0,246116980047018
0,244735131128662
0,232417178426624
0,187955764639981
0,158946908610862
0,199114433941264
0,252386133414491
0,240231602962855
0,241737872286282
0,28127508044421
0,26353020811641
0,204865856932366
0,21535833269754
0,283657451961498
0,227231778763134
0,172255688868338
0,26439344156935
0,214618379961962
0,21648157498743
0,223209405174147
0,192571990238802
0,224705857476483
0,317423749658444
0,15077158341972
0,193193297042002
0,0963480756654414
0,211312106410246
0,309949651513346
0,318312184888577
0,184612323707908
0,146603319733832
0,253106967844506
0,222165093965406
0,119663280892616
0,440276383941733
0,240555982255745
0,058196528126839
0,231688904221232
0,207573014480594
0,077178394447587
0,389259422388121
0,370108605898877
