3596
4000,36533379555
650,420452594757
1
2
2
0,0924422225135675
0,0930957156885665
0,0843078278690491
0,0979825434408066
0,0918401882742772
0,0960751665558718
0,08881771574287
0,100622733408879
0,095155227181721
0,097147145801969
0,0925376576197759
0,0894621697588549
0,0928146289541114
0,0846110375192067
0,0866207095165117
0,0843254357456401
0,0878812459523242
0,0888731085448172
0,0841646987618106
0,0830143323201459
0,0940728221630097
0,0876129898845309
0,0859195608484851
0,0808004821402961
0,0966001854597311
0,102917831774358
0,0914673890647114
0,0879963961827962
0,0960303107675211
0,0911893191718009
0,0947880284648353
0,0959015906014035
0,0897622736567414
0,0868866617153744
0,0851149941227643
0,0899562813916888
0,0837544163680954
0,0941837857403971
0,0841007613291943
0,094298327166993
0,0960678029437179
0,0864711008056653
0,0996095335329008
0,0913147636828914
0,097812182648396
0,0960110519525577
0,0949147844492424
0,0962776865102132
0,0831220588537892
0,102670590377743
0,0976442959731081
0,0909539447423685
0,114585160267203
0,0987273290742082
0,100230213643415
0,106250636127524
0,0935495252502098
0,0961266393864014
0,0934197816337705
0,0945414180980326
0,113534890816941
0,108489819142559
0,0910419085190267
0,0915835667618951
0,0852109015148181
0,0929401819555875
0,0795502319103628
0,0873096144708102
0,0918908317222118
0,102369886265637
0,0897975571644932
0,117875188837265
0,103917814331154
0,0982756863149755
0,104107489218869
0,0921395080107576
0,0827211190083851
0,077776910427012
0,0825983518858083
0,115408257012228
0,104632767761125
0,0986921969982604
0,0830832755798722
0,0859998927626393
0,0978960105762493
0,108500552561732
0,0777257290032657
0,101546554994821
0,111280913201028
0,110430120046997
0,0813006464798409
0,0868715527790222
0,084997599067195
0,0926361649084863
0,0835096642735546
0,088976010641337
0,0839162044354278
0,0870364893173829
0,0806710317842477
0,109235033911163
0,104449773676394
0,115765358326947
0,135135672428652
0,106701065807563
0,166107155089487
0,105473782151415
0,0970396688523259
0,148809404369929
0,103883647602261
0,102782534058615
0,0858822372494184
0,0845709090332125
0,0837100181395379
0,0975711082209773
0,0858451534715652
0,124475843487169
0,11387590217477
0,0993488184640643
0,0939273593763841
0,0981853301527255
0,0741360713738417
0,137773753972553
0,137892756003947
0,0958087806758414
0,101569024822214
0,0904001667168956
0,0924262116278786
0,144516892859915
0,126071494791412
0,0920059702876741
0,091131507380227
0,0903640996972989
0,0798320930121262
0,0866729231134148
0,138647163766309
0,10342865100966
0,0921953697634529
0,0868698046806465
0,126885291600844
0,163549178020032
0,108545494269172
0,0937767673785696
0,0766021493494311
0,103408650239335
0,135386088527582
0,111148390524895
0,0886081771872273
0,124205192350462
0,103654661180026
0,0875452089878358
0,0792202842796361
0,0854833665355344
0,111537591829389
0,0990199189988589
0,0660717763866398
0,141365263611337
0,164441122938691
0,126371576625253
0,173702445108162
0,0885946589462298
0,113021044771785
0,0872600233243306
0,0888891915090089
0,0873492270919973
0,0892713035307237
0,0827444599225546
0,109622235270663
0,124030116116262
0,087067029773601
0,0945851337402255
0,136679667423452
0,116266723971652
0,0875241783715689
0,193883807439319
0,10452213989597
0,0882338763002235
0,126637495231738
0,110076542362294
0,0766499891149289
0,11105628259997
0,122249171898954
0,0914027330751227
0,089966220674677
0,0758776577356187
0,100728229588743
0,113010495704801
0,0907619490444294
0,0881377394106181
0,0912468347226779
0,0766358183308803
0,13174543296149
0,159269221159178
0,127483064295006
0,0927554469655071
0,10153941662115
0,0610146440710301
0,145213394324128
0,117110406324779
0,0853535907361452
0,0917484120063369
0,0765619686810918
0,0841032222598143
0,0786851995312479
0,0827518881772887
0,0819930748819816
0,0742514933800645
0,142161252330474
0,103378969430653
0,0880128731470643
0,0787790409261535
0,0927564361716388
0,091604649316636
0,162390735997336
0,116984693802268
0,0914388376368238
0,0920049854855612
0,0841767320512056
0,118179269041324
0,0985252037252416
0,0930335442672847
0,0783224961365808
0,0780936501776644
0,0807956422055083
0,0817449267632323
0,0766265561054851
0,081453816174281
0,0822186658536449
0,0867746843130646
0,0818263981534634
0,0839894056333391
0,102404943609571
0,0948768403178295
0,0830703113309174
0,084986061354713
0,076368571917304
0,106797820345896
0,11577844042971
0,0840759316622253
0,0880575390607969
0,0771682499105994
0,0814915602801042
0,0872749043782523
0,0864068449081692
0,0745930406004898
0,0845327561960076
0,0814895920049744
0,141318809996058
0,0944279359585189
0,0945905755910264
0,0693815869498721
0,115678137583443
0,10089538351061
0,087163378452625
0,080453306729654
0,0873935956044779
0,0762724463229058
0,0976025797584056
0,13366075004968
0,096558379925268
0,0838843700490707
0,119874351944531
0,103388799221815
0,0895288430117816
0,098776757494223
0,080790491738933
0,194470282435442
0,121240134521465
0,0918339844351157
0,177611529368136
0,119481102400768
0,112977037597114
0,0935151173488521
0,075878171644264
0,254109596769186
0,156036848125316
0,0969761300956393
0,104886203983405
0,121319265867136
0,0906762776105396
0,103445431765168
0,0976428681107061
0,114228733625935
0,133443233379956
0,167289869405699
0,186051726730756
0,0781976079287315
0,153005245466296
0,12734843714328
0,0930719712567062
0,0950894028814103
0,0945306534738323
0,0969587325910928
0,126723091655582
0,121836310341901
0,122145223455607
0,103036703273568
0,105011599283857
0,142573455166079
0,0982545574270299
0,0939341992807959
0,109499049612765
0,118386138264036
0,0862898286007557
0,0969650697450586
0,0848870637303644
0,114700768768337
0,0942993042082109
0,10426377014164
0,163719290500953
0,113330863209972
0,101270153023538
0,146351608008661
0,0952288505563303
0,0924037024331524
0,0872042376937106
0,0896109833129174
0,0832413263477966
0,0868232339069708
0,0805403722603329
0,135468634724327
0,104322612416475
0,0921208226662335
0,0862446358029758
0,0881017292360236
0,09642840443713
0,0926098383671512
0,0968831164613462
0,0970339205657703
0,0977878060884421
0,0900021284984602
0,133052581207136
0,157777752846352
0,0874987665753284
0,154928962589665
0,13559423927741
0,102374162222272
0,104075640352995
0,0929633637448708
0,100549883239518
0,0970110923353227
0,101219965768481
0,0998431801767896
0,110949580517178
0,128668726902194
0,116818365896293
0,109691324738905
0,129180370117749
0,186152056239899
0,205250295133171
0,133611326775555
0,128457656040903
0,103493346387199
0,165414220900937
0,160640324167544
0,150372958279566
0,157406702317115
0,108395608737331
0,120126862041461
0,113032454056776
0,12515395912647
0,113333579498663
0,132287728060576
0,118067109355586
0,12828542379096
0,115347284636257
0,129002531962551
0,122115772637148
0,145663047338019
0,181905961232411
0,144048537349247
0,128608932904299
0,143006544257077
0,13118841449021
0,193641827129441
0,187329974976945
0,205794565698593
0,196168364859877
0,194194165990048
0,231125206589868
0,152258270765793
0,160971223313699
0,138232953332261
0,155880106832776
0,157973535629495
0,155950508242519
0,148440621208237
0,161368482734463
0,156287672699494
0,171718535024176
0,156088267570616
0,168826058943331
0,159350380190352
0,193205432544409
0,173868504287117
0,189253536409697
0,177932817210368
0,217106426434181
0,25899713110906
0,253301938933798
0,203374382223247
0,19713686506393
0,202118774501538
0,18351464059775
0,197911674488829
0,197336515000349
0,206404110300254
0,206300784159724
0,263965739236618
0,243771013435257
0,259326427941087
0,23887501877157
0,212301953868865
0,250203402681698
0,244546713386996
0,238586924622125
0,26814063875477
0,247955072953676
0,225968028366091
0,274916051147681
0,263579609168634
0,244362743675825
0,279058620616043
0,240344924367296
0,244710601067848
0,245420624049464
0,259141181750914
0,248497068038482
0,281534377019146
0,260636020843218
0,268713071657192
0,28065214361087
0,281924472705875
0,275301103106474
0,300299875068469
0,292010873757396
0,28995622250526
0,299079614521014
0,273605564524391
0,283426339210059
0,281974385541321
0,335355241685093
0,337472942691493
0,351710343958888
0,370095850866944
0,298870944787374
0,311908466441735
0,306293202167873
0,31604740986233
0,31051344852539
0,334622532096661
0,324253735675193
0,335608669734097
0,341575757496993
0,353938071947429
0,331922764015907
0,348431984173062
0,342489716703974
0,357837913272641
0,356719110397906
0,369376207558261
0,361651507094919
0,367205917287399
0,409477723985194
0,437423137742542
0,439882435688917
0,450673428995879
0,381808868666658
0,404031526278783
0,377503963484879
0,409404114693833
0,4015450342895
0,445005976974768
0,422087127484909
0,420249346429274
0,41182174991106
0,436717772815612
0,41121869060577
0,446573514642928
0,437770162003761
0,451094950144846
0,438554364106713
0,448900393515215
0,458414917744431
0,446135339948923
0,458784477526994
0,484428039829538
0,476280428019513
0,510865231121017
0,498168981623881
0,485929424472361
0,490276425701891
0,484729182877969
0,487268888311581
0,502802289414082
0,499800706256161
0,501475084833203
0,511241741394695
0,511693762959024
0,505272597875734
0,529330573997919
0,507977853307464
0,537557123185234
0,537033472373959
0,558956979668881
0,565538721585562
0,572357606197575
0,577467267077123
0,568188688609949
0,546756052264438
0,572254733108888
0,557515764687594
0,600404203011682
0,550631545022997
0,589882961114753
0,565648465956088
0,58810105149962
0,585700763292782
0,583109044695203
0,58329492257655
0,597985325381351
0,582082800949026
0,616700907959882
0,616478059010958
0,632659963184999
0,634549014951314
0,637548732553425
0,631573678824322
0,635817576135465
0,618328777741496
0,63892839301122
0,65444795055477
0,665777304779552
0,655194529716146
0,68905575002431
0,701797716825232
0,700833736707725
0,650478227042927
0,702354735895636
0,677765792198701
0,695097650358396
0,688597596231426
0,697713377823881
0,725238929229998
0,727465895112488
0,716818117659658
0,753875256017737
0,738297657989235
0,737247221668112
0,720700609542183
0,731455375047533
0,718187805953634
0,75500910785124
0,753987842808816
0,74253026712093
0,742248705876034
0,739408395482834
0,726763217114403
0,78016423586165
0,786835189018448
0,817495115085784
0,778985031151196
0,835893080024419
0,809284642984241
0,804890715727523
0,833196854971476
0,814498769169133
0,784970912464334
0,810392272145156
0,776274685692951
0,803628991732261
0,816775721977766
0,844080925970067
0,871330752449562
0,893380491378977
0,825929907846312
0,902437699823185
0,862316984265031
0,846192317217052
0,832042425458759
0,899343843360639
0,864232012189975
0,91952378954352
0,853426402374966
0,888709168430739
0,909549530849966
0,888282953170931
0,88078243590015
0,931528675858089
0,858318378533633
0,930912816564452
0,926305615024546
0,924983712184911
0,905906113716304
0,990905876590766
0,901298691002621
0,959891798249666
0,885362681094958
0,918481513974265
0,896146370710437
0,925924823487536
0,949252533589044
0,942272328710294
0,950589776291145
1,00241637540703
0,924828636592809
0,95486039376638
1,00940964807054
0,984913947015351
0,937876847455626
0,962296927204044
0,928725580787584
1,02539428693553
1,0064656940059
1,01882001172683
0,970170217329914
1,06402848151312
1,03806023666516
1,03934004434773
1,05890521931289
1,07184715155117
1,01688088029447
1,02040921023502
1,03990124443781
1,06549402563635
1,00130587432648
1,0105336787454
1,03786557387269
1,06528122405399
1,02369036017307
1,05485552695605
1,04656648369257
1,07088824063939
1,03574091638135
1,05815616610823
1,04634320705137
1,14975441693854
1,0764719424704
1,11466885430061
1,06816336540597
1,13224718529703
1,07217755681772
1,08451555106413
1,0722024584784
1,1194567847722
1,10684616330406
1,15399677392048
1,1172899164017
1,09534402783107
1,09681561476899
1,12790255692403
1,0752083450225
1,10479394722224
1,09265377557056
1,17513759224641
1,17261875432395
1,281487556442
1,231300279701
1,19463529268758
1,16017668076052
1,1356824039975
1,17385139124449
1,19921534243688
1,10961196490333
1,09799780203459
1,09697673474129
1,21636073723674
1,18707171846452
1,1807357909095
1,15911054893271
1,18334110348481
1,17756812049643
1,18785428969073
1,15531463135204
1,20051444985921
1,14279411557998
1,20134674596773
1,18598234408384
1,22245635675958
1,15679872173782
1,18790510756592
1,17462537891021
1,25009367565811
1,19351488952433
1,21663568137833
1,21373666990585
1,25184544859681
1,2654905205677
1,21362552331627
1,22516117692132
1,2894600890886
1,20437198531277
1,27457630518602
1,26097624004123
1,23109714466985
1,18357595218318
1,23700990111464
1,19494334912091
1,27241701718912
1,21817063593514
1,26889051650319
1,23523996195683
1,23979567085333
1,23152700935782
1,22289282605086
1,19332208482719
1,2733499016957
1,30803035297315
1,28432057643802
1,21430328428788
1,23598704651704
1,26208427026228
1,26624843150578
1,24396823201549
1,30342155635417
1,26446095915064
1,22589813220423
1,14518550464319
1,23457621203014
1,27897381951488
1,28603355279117
1,26063225828199
1,26054036885603
1,23239169236601
1,27883250350431
1,23127875668145
1,25886123978607
1,22728605347243
1,28292839715099
1,21878637436693
1,22863138417871
1,23749767480999
1,20595130000047
1,28073394673397
1,31576191590181
1,2174458971782
1,23458844696831
1,30178380720039
1,26486422273595
1,22188491173051
1,23802886261548
1,26731969189356
1,32580275298826
1,20600404804335
1,24402133232832
1,23924384918516
1,26579054118488
1,24102305049548
1,26124908779496
1,26088493203352
1,23237856162584
1,25351513491332
1,2613321015902
1,2466505334287
1,23311338690184
1,24021904188184
1,27400212179237
1,25812169133389
1,26899157375159
1,23017072135199
1,21858480790253
1,28426022099398
1,26679677565513
1,26158137484767
1,22918928903375
1,23346421492046
1,24991075055053
1,17592463554004
1,21780563847171
1,28252139057141
1,24148548678089
1,20291708450579
1,21840187379166
1,23446322312077
1,26149480951497
1,23806715537441
1,29038418365833
1,24490569662441
1,24212767258293
1,22072421791855
1,25350605248104
1,27509739040705
1,26142809456154
1,23746194258008
1,23616981987341
1,25494100425633
1,21665214351696
1,22179163543763
1,23776014938551
1,19877993305105
1,21896952688564
1,22755348345087
1,2208592604453
1,16217088493164
1,15976284647424
1,24927593802272
1,23045994335018
1,17627152321893
1,24289293895167
1,21002883092463
1,22535323989576
1,1962312248234
1,20017053734852
1,17678856217921
1,18258789780279
1,18492114636975
1,18224130707565
1,19842473450657
1,14766371476462
1,15736526559259
1,18017864736407
1,15524272923752
1,19132893982007
1,16874545549352
1,18752296239702
1,19033962602549
1,14580346721006
1,14093400655855
1,18358008010489
1,1550756311993
1,16164039379617
1,13763333180532
1,12200013440668
1,14761151663309
1,13849925655081
1,15840872937522
1,17423892625659
1,16860550664074
1,17678570395723
1,16809621677487
1,11871355625184
1,14965447606134
1,1058965249065
1,11646707816128
1,1428039324298
1,11277940382795
1,09986975761063
1,08451163077195
1,10891005184345
1,09096579615642
1,0844120101328
1,10697936520696
1,10571692889934
1,07794231779716
1,07159286680701
1,06574155530771
1,04352269461142
1,05213758489796
1,04019038112973
1,05651255204598
1,07732226938302
1,04604792634138
1,0487071630717
1,09615078958486
1,08659983931588
1,0503680427573
1,03097601822284
1,03622932156317
1,05927372493519
1,05354037638662
1,0096436333099
1,03199560537712
1,00984922804102
0,994382295917529
1,00414545260737
0,99327613603391
0,999866615440359
0,982818132241044
0,970525279140102
1,00149219862831
0,996329913052026
0,99871164526547
0,981759598465516
0,975564045297753
0,966853753235802
0,950232313637691
0,952041662260901
0,970687988595624
0,949601352121876
0,924618632260536
0,933291890152079
0,940665787575511
0,918962731318446
0,939927740467707
0,906800754059147
0,899477409549011
0,934321383988371
0,911388881137335
0,897811720036961
0,909023049827825
0,896785047160733
0,910439133088857
0,900701425031508
0,896940528888324
0,882777474426307
0,878522063089842
0,893746982883594
0,884475916193426
0,847648837225239
0,854727454155891
0,853766049248887
0,854251270426958
0,853705711684124
0,855120815555389
0,838420269854833
0,83768624362526
0,825527940215018
0,819478035488216
0,825086466108862
0,813098534896132
0,800001182421096
0,803467843485401
0,801157842416318
0,801388116352409
0,774427692291606
0,778551872926476
0,805168076543692
0,788650236861269
0,782954426164035
0,782104862918852
0,787008804371106
0,783775474362642
0,751264607049803
0,751584289023183
0,744293095217329
0,759495523659393
0,753952406712582
0,756355663689311
0,747088951539173
0,746690631234517
0,727964739454732
0,736295927491765
0,732679208728452
0,723531111470452
0,719295410253159
0,722403110293734
0,711775572531569
0,704024843237243
0,70395761824883
0,712405756390769
0,689500293431817
0,690516421692635
0,688581167353462
0,683128115318421
0,669530275302137
0,679735682136575
0,675495305628082
0,672135019121636
0,672748439485357
0,672691225392156
0,657808829932694
0,66063521944649
0,651080273466789
0,665365638361332
0,652775263021834
0,655008489832069
0,640130562942529
0,642265196392808
0,65011809819557
0,639625424337608
0,623125846747258
0,627834792740889
0,614613722658172
0,622461908703687
0,614760636344946
0,610460820330869
0,599973617998935
0,602305716862929
0,599070085098318
0,603123315462373
0,596484363812462
0,606240680139455
0,589146624918188
0,586088116660387
0,580421800437846
0,585344324676629
0,571934164630095
0,578505395418627
0,581467006942847
0,574930712389724
0,568301965742068
0,568574660369622
0,557840455987045
0,560740227811907
0,552376120566185
0,553662465359429
0,539352444128387
0,547081316505894
0,542904982377946
0,542837219170814
0,546786130823688
0,544080965408851
0,52257724195002
0,534157955464806
0,53325226258657
0,528070716127518
0,523772188366155
0,522957271857944
0,515547121989909
0,515196838854043
0,505827857788186
0,510625475553882
0,504329877375632
0,510371219670764
0,504228240548638
0,498812509838918
0,494475383295279
0,49920693505499
0,486854528249439
0,48584936135072
0,480807827432536
0,489355987647348
0,478298942495309
0,481118583645241
0,473887955170551
0,472571560941319
0,469152644054059
0,464322795258763
0,459785852777728
0,463645198723773
0,465899693063158
0,467582973465032
0,452737830497605
0,45574451426458
0,446215300571322
0,452288325889998
0,447690697501964
0,44684940677207
0,433766696096405
0,441132126360863
0,434322923106585
0,441981217307626
0,424140547584282
0,429904776401784
0,42961551109047
0,431800097624533
0,424414071222965
0,426651870725046
0,417122957049849
0,417953992071581
0,416660464693121
0,420574188800903
0,40575795405251
0,409712691867551
0,412429905712422
0,411811930804457
0,398080245530286
0,401079536536221
0,39982076878702
0,397707446097624
0,396734185405908
0,403828499972612
0,389584272829218
0,387626763192338
0,382948224126533
0,385957771655607
0,387961269050163
0,384034913542932
0,38013026579879
0,38367659688849
0,377544757678175
0,38738279738634
0,37750859491198
0,382175525553407
0,375497167994731
0,382464887020853
0,378720978514817
0,374933182221627
0,36194058902869
0,375804490949091
0,370525490637591
0,377376313154538
0,36928934628559
0,3761070100236
0,369656082739175
0,363835965221601
0,367302586233642
0,371682687643162
0,366938068643973
0,371269149473916
0,363582527681498
0,370855352719173
0,371945683107315
0,370548396953808
0,378082462608485
0,375662286158909
0,370955902342327
0,375442831799843
0,367964381636673
0,376141982248996
0,375551075666543
0,381769071081563
0,375969574748854
0,384482700103222
0,37570043340257
0,380601335945776
0,381716719974544
0,389697983294268
0,392372183599704
0,399084017575108
0,385996416105912
0,391935557254808
0,390616051649115
0,394353965733503
0,396663881884208
0,406845278965943
0,403011676546
0,405102726059626
0,401443037715715
0,404094988640515
0,406450861065445
0,418575113582311
0,416301737947277
0,415355764180126
0,414953639480109
0,428741046954327
0,425349699792282
0,429558325250965
0,426640952244254
0,440229805963995
0,430400473726708
0,439698663420907
0,437263106153864
0,450577942776799
0,445929763251341
0,445469445316223
0,452973387433903
0,466568871383197
0,463987805751056
0,466468105869403
0,476267200489395
0,490125808383742
0,480948125208343
0,487959397118135
0,485554317031358
0,504325104991464
0,504540733692694
0,507590746204745
0,504010511056654
0,515224919941068
0,518315890762484
0,529861746353727
0,534991502380179
0,540364872691038
0,531577102376531
0,543445469712067
0,538300017995072
0,549093464565002
0,531205584082377
0,543218298380628
0,543938439831812
0,558336788262152
0,54419567668123
0,546554755998518
0,547262944520727
0,547301405391209
0,541114085290022
0,546265526014094
0,53042053196283
0,543849652716969
0,537595214580726
0,546382245648133
0,528468038708244
0,534940827143127
0,519466207718355
0,518666821695808
0,521920295080164
0,53094845001898
0,522635904519409
0,528073983422067
0,522659295030058
0,527459027871399
0,513128854247221
0,522235099522225
0,506006767259191
0,520067670648366
0,513135647086425
0,513664821207017
0,507073784324174
0,52076343350436
0,505450543582836
0,5106063345614
0,502231141611371
0,506101497538928
0,500946070484139
0,511445374317819
0,503594199510807
0,499986010057107
0,499138693069799
0,513503580692784
0,500050143528337
0,503728411780771
0,504465607303367
0,504599333545828
0,495554851587138
0,500019876429631
0,499950379755111
0,502626950904728
0,496665325673
0,503866259241556
0,490788023615008
0,500002530176213
0,483689277789119
0,495228822208395
0,472414173990279
0,490941919501246
0,476476461803346
0,47609274621739
0,465582353998554
0,469984953666823
0,46116528552284
0,474682335580246
0,459544314944153
0,462719293485929
0,454027144021165
0,455740845963011
0,444867428255996
0,445514270328373
0,439725499778653
0,440142685008968
0,435739053664073
0,435820974451539
0,428038070158187
0,430235670853904
0,417085979067346
0,424630223606566
0,406245084479369
0,40967697596911
0,405462142578011
0,409569930826779
0,405939603131996
0,403492685741219
0,389170012064965
0,39525405696702
0,387710220868009
0,391205654687886
0,379472683490497
0,389250071067356
0,380035470467265
0,379548872834625
0,369121111446253
0,371767919338665
0,369704563568128
0,372176825930289
0,367013724423065
0,372615650882265
0,357962679848787
0,358705138402277
0,358716693873074
0,359444948169672
0,356614004419399
0,350517168844625
0,350228039022944
0,349623146978709
0,344805830766374
0,352807647110767
0,342655580024991
0,342284106650868
0,345749717267216
0,34388903464295
0,334241407024966
0,34046508864644
0,329625539088166
0,33315002860258
0,330105763321462
0,328987381045704
0,324597704233856
0,324879524818068
0,325067000523904
0,32511883407232
0,319253958841109
0,325348116502974
0,315589599168047
0,316075769123823
0,308444153978633
0,320865508017546
0,309327484115241
0,31356567341148
0,310777628802356
0,313781471605977
0,309859345420059
0,308339723698553
0,303700468552664
0,303894989010095
0,300183514313202
0,30476275450095
0,298115179762692
0,301311891718408
0,293497905377295
0,295999839370193
0,297086041144348
0,294729646955804
0,290014909863587
0,296307962651057
0,285907860495407
0,291011831640598
0,285603271909874
0,293570292215102
0,285184896425896
0,289209153999911
0,286182424488818
0,282306894826238
0,281409744269026
0,281754811454146
0,274101321979584
0,283202272016097
0,274454312160528
0,279463132165894
0,280574135897051
0,281943867843144
0,273610114989349
0,278797138581595
0,278575823406325
0,280236972625013
0,268524126350951
0,27751277446428
0,27520898373981
0,275832232530666
0,273372620450519
0,274094088485342
0,270671547313612
0,270883140156944
0,269452658731847
0,273238473176163
0,26993945355941
0,271962289354527
0,269226192907248
0,271169708243464
0,263774080692222
0,266694530798355
0,260605609925163
0,267683223761964
0,261123932870873
0,265592966726413
0,262265892823444
0,261433677231731
0,257430459863654
0,265125018885861
0,260399235094127
0,260409808866345
0,260026243563054
0,25496543460472
0,255882645894925
0,258931396973974
0,253093281671243
0,257615028876756
0,257284797587626
0,257648287973397
0,251317643100365
0,25169929329225
0,250623765993634
0,254408797956998
0,246503213318279
0,254405051629865
0,246838836903896
0,250807669789349
0,245933801675602
0,247680537515078
0,244051390031702
0,247066727014027
0,243873857798063
0,248797841307488
0,2443296615121
0,247702907840373
0,245642972033188
0,24889123094406
0,241472360512493
0,251566054463744
0,242922165605471
0,244073936301194
0,244776987179006
0,244030926790418
0,240629467623983
0,245149575071691
0,24121802629996
0,243251120679623
0,238596215234074
0,244045763981749
0,236999838290159
0,244607979469487
0,235495222466625
0,235835669215919
0,23161331775381
0,23867525288744
0,236096291280007
0,238714417303199
0,230832363743932
0,237772723550374
0,231438016278997
0,23556667044769
0,234294772709664
0,233761471014183
0,230610426712392
0,23588640092343
0,226815896596873
0,233116217811982
0,226208773226012
0,22698531395172
0,223966184042446
0,22568858056343
0,223189767190337
0,228304478134326
0,224803206436583
0,226336448856093
0,224271538419941
0,225110244737593
0,221493769932415
0,226154988396652
0,217553134007044
0,224105502031566
0,220059820771415
0,22320541062255
0,220781169550849
0,21989295975328
0,216421360462686
0,215497878075647
0,214204171828678
0,21790770918234
0,213191286701612
0,218373874548673
0,215281778160417
0,213869492965008
0,210801136612453
0,213746987108804
0,21420331794546
0,211814398106452
0,210442276730889
0,214290651423873
0,212313628837366
0,212607213607805
0,208195009518176
0,210753879200705
0,203492103570215
0,206591076108699
0,204131440362312
0,205894372356175
0,202535063835862
0,208002924047422
0,20092780794093
0,205707146938665
0,20034864216548
0,200784675828085
0,199520565467502
0,199706889171542
0,199704725076374
0,198895548910835
0,195321014404874
0,200595380895648
0,198889680986753
0,196094729665305
0,192932126365686
0,196133479286885
0,19165687892617
0,19440648167434
0,19092464117201
0,191270769245371
0,1869290555697
0,189108942547565
0,184401589532941
0,189839890626392
0,18498358271826
0,186330009769102
0,183680206357803
0,181411511878623
0,186759313731959
0,187428371918712
0,179344430102138
0,183681365134809
0,17948460787109
0,17896681919798
0,17578256791232
0,177392523322979
0,172827982598429
0,17968955709791
0,171106994826553
0,174314375734862
0,171980262200829
0,172782227167494
0,168180158999069
0,175877573484629
0,169793387466064
0,170131080042669
0,170050313681757
0,171658649902491
0,166998913693977
0,16888143537174
0,167284719035045
0,169941173526341
0,164774254227899
0,164561916005983
0,165724355781712
0,165875821192051
0,165121503624024
0,165917570163235
0,160625207615723
0,165168826655008
0,161775949438867
0,163139396462956
0,158973513558747
0,166056514970995
0,162061610448584
0,163142440160153
0,157510916128334
0,160078873074177
0,157150220324645
0,160653305240908
0,157475239087183
0,157174992395206
0,156560202881404
0,157719284334338
0,153489937999382
0,157750588703247
0,156492180537841
0,153591524478361
0,154331726528546
0,153091296723547
0,150790146037099
0,155129248615491
0,149278829569617
0,151051371246582
0,149653220529569
0,154784987366602
0,149336365858522
0,152294966314492
0,15046579034179
0,15127576792465
0,147718113764586
0,142861288423966
0,146761064589936
0,14852021936523
0,147620822230225
0,150844186811103
0,148226550762268
0,147186782105323
0,147583458003714
0,146636914990731
0,143797017671618
0,147012392381977
0,144294330570387
0,143345329760752
0,145596733091178
0,146289214925752
0,145319949246603
0,144829728516918
0,143601722560375
0,147505692731213
0,143186954730419
0,144797151414088
0,142480300830049
0,14332287159235
0,137874238524945
0,141436691504724
0,138867974435887
0,142610157779033
0,13955444073865
0,143739491463068
0,139161007691114
0,141833434603147
0,142036835380355
0,143228080827178
0,141283951735901
0,142303540790609
0,13710822669166
0,140863324014964
0,136145542607051
0,140079736812855
0,139866313249836
0,141009250182274
0,137210811369904
0,140122425075247
0,134112690569022
0,135209803017424
0,133377610767553
0,134656415272057
0,134293032630287
0,136536267029605
0,135404494007992
0,134492390302708
0,133298469553038
0,134075459752777
0,1306314937791
0,135395704394245
0,131483434693061
0,131891527913155
0,129203577086919
0,132157566401792
0,128665936908097
0,131650997699269
0,128874595335029
0,129849053038157
0,129909557816095
0,127768484631396
0,128676323146132
0,130699315364983
0,127791441299761
0,127484210114448
0,124880980975982
0,128112056312889
0,126744483031489
0,124426513325318
0,126277238350254
0,128977973835036
0,127208874520284
0,126277357698075
0,122248357109174
0,124916110227399
0,125467400026119
0,12400070138779
0,126969117924483
0,12496330402698
0,122234890166304
0,124332905325376
0,123092270684565
0,124992285253621
0,124856348792954
0,125880060505677
0,124679844258623
0,12744271297049
0,121141238075677
0,123782388627253
0,123206099441187
0,119549704065504
0,124098830059567
0,121227799304199
0,122203864949473
0,12158433495006
0,12030771455927
0,120406520131381
0,117789034664789
0,116383502425427
0,118683614222994
0,120681164135466
0,119009728247413
0,119334739905096
0,118239485736523
0,118950855851556
0,117580413090152
0,115157504132443
0,113627024434247
0,115070513126127
0,113739512578749
0,118111543580796
0,115645916790965
0,112956013480106
0,114362610002939
0,114372645561214
0,1101264190763
0,112488198880514
0,109582772110165
0,112209617735789
0,109204553226253
0,109214931231701
0,108253620655321
0,110214438871239
0,109366329419884
0,108531936214409
0,109302944751684
0,10657648938378
0,109577591580802
0,106709618957562
0,108589000551438
0,106674116231283
0,105678363324901
0,109039727284361
0,107790494218736
0,108625667494268
0,103349946026724
0,104315853337975
0,106495874853725
0,104586258098798
0,105460645718061
0,104303494145029
0,103492996740442
0,105914154676496
0,102602624225679
0,103133265496358
0,102368206434618
0,0998689924251206
0,0993372890962545
0,102514004089685
0,102813794893936
0,099233202058964
0,100211080581676
0,0984285247328649
0,0984565022979424
0,100036499414791
0,0984547919677656
0,0994866656281247
0,0983395290021422
0,0982394244862435
0,10022686722788
0,0965616237197288
0,0938273490068716
0,0940939778023003
0,0967689771370726
0,0967170323575364
0,0968453752950677
0,092063235991371
0,0945918763708016
0,0933902167721209
0,0916602910871746
0,0908119673475717
0,0922860833860326
0,0920601873701746
0,0910132137174257
0,0931044038057977
0,0925379776680784
0,0911124629362748
0,0899218847858925
0,0899402095050838
0,0887375389962374
0,0863839481660437
0,0905650492710483
0,0906723468726701
0,0873551821111284
0,085795775145006
0,0876827669531963
0,0858482714062619
0,0886367154499877
0,0882026364691855
0,0875366676534524
0,0864837600704984
0,086606609789271
0,0882290797674153
0,087430443370169
0,0872326368181558
0,0829531422785412
0,0843529659710712
0,0864336382119204
0,0861449788168208
0,0860364449823334
0,0831950044465719
0,0869795450298635
0,0886863450047974
0,0904125983424535
0,0871232429843521
0,0858221443590287
0,0875224421091043
0,095071074482327
0,0893739931364185
0,0908512954046303
0,0875916964319423
0,0931996270664448
0,0924226865355994
0,0918073777672939
0,092385965669447
0,0954994549236823
0,089799338888693
0,0908848933829915
0,0877364274378292
0,0878341769576718
0,0818426826230116
0,0971280275859364
0,0965118010213968
0,0965023519162626
0,0796509306398837
0,0922429083069475
0,0860951077249376
0,0907453989233084
0,0777920892577414
0,0931184504594365
0,0806266875635653
0,0855521699850508
0,0862391393912374
0,0926380816035101
0,0840647431272019
0,08810005755099
0,083053441979023
0,0938834063777167
0,0806842939283387
0,0957000467356776
0,0830290880180469
0,0913474145365761
0,0757029994081843
0,0975600616174919
0,0759260692562261
0,0955153738968459
0,0743115468228814
0,0964356786892044
0,0740701042994028
0,098124382988827
0,0715664135456198
0,0998952587445771
0,0729877624756594
0,0968949302182931
0,0623843822398382
0,0929567502501667
0,0613752956884639
0,092857878837426
0,0631755192678138
0,10746865543271
0,0689367715772218
0,112395521117581
0,0639535800312244
0,0995791351996723
0,0644338119941482
0,10921299972898
0,0714337770367024
0,098252278546273
0,0649726839954339
0,100738806965043
0,082984203594951
0,0904081109119724
0,0846982376293566
0,081684164786102
0,0992458263875387
0,0654877665191153
0,0990682390665575
0,0668320581405961
0,108639881953643
0,0582224232282487
0,110598039968318
0,0596233415726713
0,104839998770367
0,0649862831730107
0,0925689433879698
0,0746000336567425
0,0873292902092122
0,0761247906038578
0,0799910778511138
0,0781230641739547
0,0795260519001274
0,0781867707345851
0,081828364497493
0,0736150001177505
0,0809986537598166
0,0707967268912575
0,0831123010988096
0,0692957435891934
0,0790749510464393
0,0715978962108517
0,076234719241782
0,0706201622049367
0,07528084007965
0,0725456804426933
0,0798929656650161
0,0706578608787082
0,0773096686437511
0,0706277258782443
0,077726292019505
0,0700381662231228
0,0759901400371738
0,0732186127512554
0,0766583081175361
0,0708858163885373
0,0747668461517392
0,0695185492511971
0,0733848641688144
0,0710174374641741
0,077155708587676
0,0732631213932692
0,0770410130461241
0,0680217022605681
0,075633951829009
0,0718242241101971
0,0742229535132838
0,0723307642253218
0,0769824724623182
0,0716910928318732
0,0773566828407407
0,0716454723258047
0,0775743905914891
0,0730665214015699
0,0762883305251168
0,0719174439063661
0,0768967552209332
0,0708160049908981
0,0755687429170436
0,070897688920969
0,0738970600924811
0,0732251001578966
0,0770760861930127
0,0706376790244777
0,07476353566922
0,0715551955600095
0,0775670773346894
0,0721833061037378
0,0771179481950479
0,0730128239887572
0,0762091812037263
0,0729804695351909
0,0779423387969959
0,072822773674872
0,0747313116973846
0,0728490962541652
0,0758429620400728
0,0699408816957556
0,075350809012065
0,0743674171418513
0,0770890427761507
0,074827964196031
0,0761532478877491
0,0715870035423836
0,0755106885545385
0,069826739913944
0,0735435205690648
0,0731472233386744
0,0732625695966079
0,0725872092151503
0,0746596336709495
0,0711795510994571
0,0731902886538482
0,0710555532195308
0,075048191838749
0,0737469507177092
0,0761638837925235
0,0723985252550459
0,0776649017953234
0,0736026924895389
0,0761667726757104
0,0752001169396152
0,0760907509928575
0,0723686994983831
0,0763901357361843
0,0739991217578047
0,075085259004991
0,0745707878665091
0,0794547656501284
0,0765994564149406
0,0770025335503511
0,0742910372165036
0,0784265086932354
0,0753542465169602
0,075703620779227
0,0769844350158212
0,0789095865957336
0,0748852841241383
0,0777956261324025
0,0744357911191162
0,0788101311649052
0,0782390856604083
0,0792244083524689
0,07657140161206
0,0795732357157501
0,078028441120464
0,0786162580134494
0,0773156238217829
0,08164656824005
0,0756833839087865
0,0786479172330878
0,0761078498195982
0,078161371883173
0,0774205075509751
0,0778625949696795
0,0757305152908705
0,0784329179721165
0,0775752011512082
0,0790945969948509
0,079079422785044
0,0798978755494947
0,0780287678730262
0,0800260211146154
0,0769653834479022
0,080400181236683
0,0786598587195365
0,0799013428728247
0,0785685944955668
0,0819054601026618
0,0779941332552498
0,0790510283627182
0,0764613041760724
0,080266127438603
0,0800929402953752
0,0825500405908845
0,0795728134375357
0,0787418023421695
0,0785499216233783
0,0820048877835774
0,0809699248771015
0,0827792041323258
0,0803012661374286
0,0801506365722606
0,0799790436136952
0,0830150007782432
0,0831246599350368
0,0852658725364645
0,0797920022739818
0,0825061945331138
0,0820279355684591
0,0828473412340271
0,0819516720280242
0,0852292279056377
0,0804435416424773
0,0838201835097955
0,084288093337049
0,0844734563454049
0,081825768881397
0,0846591772647914
0,082311815727929
0,083001016170749
0,0802535849563019
0,0820323316410382
0,0836608829788155
0,0816904430274846
0,0825661320830313
0,0816839015002283
0,0818792982806286
0,0835673235384983
0,0808762712401105
0,0823127512784451
0,0793304466510603
0,0808753270750975
0,0799644179443148
0,0816793945219249
0,0833091038981769
0,0833059394032878
0,0783830264419155
0,0801424066751849
0,0779175540676958
0,0797291060058042
0,0788242988300931
0,0774629615847494
0,0777594601490796
0,0795333393515935
0,0802703805973588
0,0804543132095974
0,0775310506070846
0,0798066982949084
0,0795594951040505
0,0809145361881097
0,0787827595721684
0,0800262073203892
0,078066435789378
0,078750939198283
0,0785302721317773
0,0774850956582756
0,0779126303910668
0,0791510908189628
0,0786146642602252
0,0788864542763463
0,0784269674422864
0,0798265237506415
0,0774578827683112
0,0793471790316625
0,0774994629699862
0,0810644649884326
0,0786188499179657
0,0782976338297372
0,0783568670308608
0,0791221060619954
0,0762460887628407
0,0778856670789748
0,0785408728655673
0,0796330422568786
0,07748258327503
0,0788136534601902
0,0790105971930769
0,0767672153875576
0,0758164566428953
0,0767823638076894
0,07802355900513
0,0803434393131546
0,0784626129691776
0,07884987454489
0,0776915875970973
0,0786391119782234
0,0771985241163087
0,07698784518648
0,0776829922043815
0,0768437143211807
0,0755114873773262
0,0771949779386727
0,0762685433778106
0,0781287548900414
0,0774729078014859
0,0743603546484901
0,076473254285337
0,0785304053578891
0,0754427121124291
0,07608601808801
0,0784229529974387
0,0762110502024543
0,0741864011864489
0,0791852724977046
0,077396433993212
0,07713102475722
0,077625380022371
0,0809626691210084
0,0778235292986639
0,0748391428313656
0,0748443309252354
0,0747479851845784
0,0761824691349504
0,0756300018984942
0,074507444076439
0,0761928295626484
0,0745414744418879
0,0748386798630506
0,0751311393240783
0,0757021403574124
0,0754860010811772
0,0751797537520669
0,0721406057972848
0,0752429546731508
0,0749920978269411
0,0747533109923452
0,0740052298745565
0,0745877673402016
0,075361421245661
0,0755563533697855
0,0735353173508368
0,0746783843842114
0,0764352656995257
0,0785468270743771
0,0737310793475765
0,0736510607638327
0,0732084304595859
0,0727287560519859
0,0731348021778184
0,0729710716475264
0,0735523296572898
0,0730309544846728
0,0703623884343768
0,0709730693862739
0,0696119531557465
0,0688099857533789
0,0699467720439109
0,0722596750303084
0,0691292881537941
0,0693094502343005
0,0684705500343762
0,0689143714660434
0,0706617933490895
0,0708449464500585
0,0705224550616076
0,0695991996804356
0,0675430806443741
0,0696606086864105
0,0681242180930336
0,0754759411053411
0,0712430116487984
0,067536749906915
0,0668775103283003
0,0651966692816973
0,0656288348425265
0,0651721173905683
0,0642986813668546
0,0655379961707522
0,0649469725058412
0,0632346926153296
0,063916847511258
0,0634403462281543
0,0628721160317593
0,0647104871517818
0,064453184095345
0,0638523732546467
0,0634565762517562
0,0627149476239774
0,0623846679174722
0,0628252917397308
0,0611719522737113
0,0618859360831477
0,0636742765866822
0,0618361197690053
0,0624287085950898
0,0759799213447563
0,079462554010086
0,0656013497892295
0,0623819900193052
0,0655695693941433
0,0659177212705574
0,0606058777064443
0,0619186742095646
0,0628798292175559
0,060773566646016
0,059651946136545
0,0610629168376839
0,0613207340166419
0,0611924055825411
0,0594993944882696
0,0616021987930264
0,0626243657338821
0,0604797515662827
0,0604293771650778
0,0603735579364151
0,0620393493377091
0,0597030950330578
0,0599837644770151
0,0619826428978691
0,0623791103043716
0,0605572979882424
0,0618937020887556
0,0709468776543468
0,0671298661458568
0,0626692142556535
0,0614970780852507
0,0592916303265022
0,0587215682569462
0,059654907314436
0,0599654896073339
0,0570604375931064
0,0585608673827955
0,0598734018742416
0,0583523595942951
0,0578373218191714
0,0612581061490897
0,059538542432996
0,0583077168819097
0,0607969825966206
0,0601631014542064
0,0571732166295132
0,0561049274625607
0,0585461750084572
0,0570825835514354
0,0583820187560382
0,0623813309215174
0,0625530896817389
0,0577419077955961
0,0722133935631707
0,0801554944306418
0,065088997176589
0,060280553505698
0,0599318158601438
0,0582620569864625
0,0589619303907586
0,057113114490752
0,0563053234624813
0,0582319331757467
0,0597228604257614
0,0605890109664856
0,058837597235746
0,0579862561148896
0,0575925700411309
0,0574671254312085
0,0586907766480053
0,0560221678574382
0,0587036718053888
0,0577663854996357
0,0567124188511611
0,0672892949241766
0,0794807617850698
0,066224102132155
0,0606999717372686
0,0576525074495942
0,0623728594809272
0,083949147264524
0,0706083973664765
0,0570246398881341
0,0594581567877489
0,0578604817637514
0,0559780958474405
0,0559222685513872
0,0538174318198899
0,0609830629828278
0,064443993515271
0,0631879441643322
0,063971192745585
0,0595423114537787
0,0561657700800657
0,0559815178656957
0,0563874661713694
0,0577490001064678
0,0570691520512426
0,0571084525549978
0,0559671542764513
0,053525684834524
0,0541387341868444
0,05415816875545
0,0524739206993587
0,0636975946211594
0,0652254895154232
0,0572174953181862
0,056379653390273
0,0577609839481538
0,0537071370436297
0,0711024216977185
0,0767098503004316
0,0619099274847872
0,0574742995778556
0,0564623610244202
0,0560853661960606
0,0581326198558319
0,058011058565727
0,056066060356227
0,0545285488931137
0,0553465813088109
0,0567559103812154
0,0545116200743163
0,0556495290859953
0,0538949641737444
0,0560956094550445
0,0560411966007351
0,0554252411076728
0,0540258406730009
0,0548372087969528
0,0558015781274337
0,0603364182871814
0,0840407368642887
0,0878160147393427
0,0807977473610826
0,0732429717643178
0,0655077852070381
0,0584574478284475
0,05967092697349
0,05521745795298
0,0569350683129902
0,0573697795922636
0,0555930298016412
0,0584179426025302
0,0603982737529233
0,0544930606437856
0,054265894055699
0,0519225816272452
0,0543169213162568
0,0537112525340381
0,0569184060522757
0,052711648036949
0,0548592232556047
0,0547833204576551
0,0567788546068591
0,0664611750871793
0,069038022406721
0,0596738565126541
0,0624785154532527
0,0960423262368129
0,0845600968798106
0,0699000824738429
0,0604096951095403
0,060975653315021
0,0534211658094731
0,0544094102158945
0,0580501335159726
0,0635223681565795
0,0578751217225619
0,0543920371112988
0,0540089440659223
0,0585511623949874
0,0542665879603751
0,0549896037429248
0,0798447379833411
0,100287004412461
0,0746235624654546
0,0611090800757925
0,0510234116017885
0,0843470585181158
0,0918578627843935
0,0638299630458189
0,0596389697588755
0,0617255432148519
0,0596859059183429
0,0589757430092244
0,0541891282379455
0,059703584430681
0,0668651873074021
0,057656318613202
0,0581934251699115
0,0578677971732552
0,0576319967713005
0,0594476179493992
0,0615894673127158
0,0765749729499726
0,0722337093195643
0,0605461745770627
0,0670197734290669
0,0651241313899257
0,0586719372790812
0,0574483766247692
0,0577773203217645
0,0589967808709679
0,0778009134694955
0,0753820379792619
0,0699343421765677
0,0806603646062897
0,0718398762883007
0,0607329953592543
0,0667279457427647
0,0761882480434615
0,0736253412540017
0,0542348039871629
0,090275026851877
0,0909077620617644
0,103682216471015
0,0817597468149093
0,0735716282315402
0,0599585022480816
0,0645777930088554
0,0534072014162355
0,067581758679102
0,0820529032197003
0,0681292706856223
0,0650234210143517
0,0614148043419256
0,0808197759282136
0,0792424253546531
0,074175146574683
0,0646458877712714
0,0657131430035947
0,0663288958432611
0,0898201840907461
0,0657135376403135
0,0774343502684146
0,101684238215256
0,112335698731812
0,106593419916519
0,0691025228603233
0,0813535729062641
0,0979750165595319
0,0788066148016495
0,0702428073300561
0,064899194884231
0,0731415845185643
0,0600279566891268
0,0873587224588064
0,109629805970114
0,0806594289018507
0,0730917362186794
0,0724469420158107
0,0813464086514842
0,104342580339983
0,0843816015400475
0,0725317567890094
0,0728840612698835
0,071370627442185
0,0822051048196158
0,143117721674231
0,0974425545663857
0,116926161965282
0,108540713243841
0,117176756541703
0,0922702098265408
0,0944684963432823
0,0785640942130307
0,112583537676376
0,106411413163507
0,0917830147266426
0,0729039770159924
0,121492988619409
0,104502999479761
0,0966270893154237
0,0845857772357084
0,0860890931075447
0,0857078570941256
0,150316683157049
0,16331660467671
0,13836725097062
0,0912525755559256
0,105638284083531
0,120279225767677
0,0983724317259709
0,0871699372383461
0,0915945311954307
0,0890480190009034
0,0839655183082765
0,0948002826440305
0,105924730037573
0,0942543158486309
0,103579135252725
0,0895318449009033
0,110143023497405
0,12773703052174
0,188055907433112
0,132724859736542
0,135470205438862
0,142690430306288
0,138800860254542
0,122121748063136
0,107393801188492
0,109227039351217
0,11904735936623
0,118441688446234
0,112482026147777
0,11656859473308
0,149752440631258
0,128082357785265
0,166362811630887
0,137805176129062
0,142644614622665
0,124526768600149
0,186927909285924
0,267363450997416
0,185520563176026
0,168843652986992
0,15301792985525
0,213460847034103
0,21793408037906
0,180959671249422
0,160121780133337
0,163011266473616
0,161006705519308
0,180061913596597
0,188712764887695
0,198516913010301
0,208307814861933
0,191867561668175
0,19782617519722
0,241223795100086
0,320051622338942
0,318246126393314
0,238263592648321
0,233239571126723
0,250895548839767
0,251331852028815
0,233625226904137
0,24609366205916
0,229315161662352
0,289839341722876
0,294680410387962
0,283715217301712
0,253449036217016
0,288042413987622
0,298801208888492
0,293497002969953
0,347625755521695
0,322297607787176
0,318653574978633
0,290882672892874
0,31718234414156
0,298954913441095
0,325990928356267
0,349963281615382
0,350295792261453
0,345733282381366
0,3381097929235
0,338745425942644
0,339389724763274
0,354908630764012
0,352786072936418
0,368056850334484
0,414253558257669
0,443574723220409
0,605791488170659
0,399091432342151
0,38856030368908
0,357990168618281
0,397484956509871
0,407836926465569
0,424942117190873
0,444226138880694
0,406592783356674
0,37580930508744
0,377881839062148
0,378645367041872
0,368409638048288
0,380495640207857
0,377626968324984
0,366357159608069
0,414459063787664
0,372452071971296
0,465689808518264
0,42172977470173
0,40539520704862
0,359083691260356
0,372029990475041
0,348231540163734
0,365058537254301
0,334685859774135
0,386090544788878
0,364201823523857
0,361432386229727
0,34134872506086
0,335391463066791
0,37160138261908
0,36955947737592
0,339517925329789
0,328724550629612
0,323933216988943
0,32776004269462
0,296082619153686
0,378693215572942
0,345387514649697
0,325053020879627
0,297971679810898
0,304896696372112
0,293425766366207
0,296955571534878
0,282859973900931
0,302578477223573
0,285714462145264
0,289816389610465
0,282562611352419
0,284193611928862
0,271708328376566
0,278326258617909
0,285548432451441
0,276699815479111
0,273631698838791
0,271424700908152
0,269097506934682
0,266781097631911
0,262432682002119
0,267775744102438
0,265318303452552
0,272288837177241
0,264167758341013
0,264651950281636
0,261279738441313
0,261879142186931
0,263155577310834
0,261474493912728
0,258406590095648
0,259087708928643
0,25514001434102
0,259567533888775
0,252912923193393
0,251494255256323
0,259605075111612
0,256140118761148
0,258882682259135
0,256178757486565
0,26105299405181
0,259230381343791
0,266327795253383
0,350557585884725
0,277594996395611
0,273885268816525
0,244044131325988
0,263649046011457
0,241124212717937
0,265553838744909
0,311866218314225
0,290427523933611
0,259645615871244
0,245836878879963
0,244239761363873
0,281571619462831
0,242712746822376
0,252121601428686
0,23937913589338
0,241655883947031
0,326126461277042
0,311250969810814
0,431891587814862
0,332004935249856
0,281885692361836
0,233451077629296
0,300250989231058
0,268251850382753
0,253206637428872
0,237721272164224
0,237185627727185
0,303060321449266
0,256051688144194
0,250089735953166
0,228378348255293
0,23499291428427
0,282554856052792
0,274708884270907
0,263188768634313
0,29673122994047
0,273026899699555
0,290719283521653
0,309721333839671
0,359823277591251
0,272741865786351
0,229315140348762
0,234527752791761
0,220440169116248
0,261355564372708
0,285607368861466
0,240290419291245
0,256636812167639
0,208349942233359
0,225499960901116
0,218964313083601
0,268647015178773
0,215423877401429
0,259459060617118
0,248620788815176
0,222206763008843
0,244454228043589
0,240405303474772
0,299249593492306
0,287373047940557
0,233881201482278
0,202422108772104
0,287433501596344
0,255274713493866
0,241385620862866
0,230330897163941
0,190005846076564
0,22746996103968
0,224286530618478
0,201187972268758
0,239604469522175
0,228261114963059
0,27052190986312
0,284740275669399
0,32662228725496
0,278755081545427
0,210777689352016
0,196847251581984
0,191300655216245
0,202253614324793
0,191287378865657
0,183860743968971
0,25993851767309
0,184470109203504
0,227813374851468
0,243190585468811
0,209378289833357
0,198167042329918
0,20080369964561
0,19252024031903
0,21272251972458
0,257047661763647
0,284702297661639
0,221471858179894
0,250355648314543
0,23001445150943
0,23025924887678
0,212672201329447
0,223236256110834
0,215359424366454
0,229461261495831
0,244141793888857
0,241067110711998
0,23835989695791
0,249621834277273
0,242393634215975
0,321155962567451
0,279872214513573
0,285186736583693
0,31482136361199
0,320085518796419
0,388184392227941
0,307970364494722
0,320745702500573
0,303749892923181
0,319708751715824
0,323045011943375
0,32076890763454
0,366868251325944
0,371919009902389
0,352887968250887
0,350654463090874
0,352299908214421
0,361803640066034
0,370211813307893
0,419632290525461
0,402120325422857
0,510830088528921
0,416396245666741
0,442569234822829
0,386867114015217
0,388846347257007
0,394615107670436
0,394926225069989
0,394036495086439
0,384528769537328
0,404310911756238
0,427829239811085
0,391638511505428
0,402944133491569
0,391915755754675
0,400881740138187
0,392825773401731
0,397282181468269
0,396603315282613
0,407817116165062
0,413478872789133
0,402443892401789
0,427493227756903
0,515275747974411
0,433118563318488
0,438008778654988
0,417165118401452
0,440811914197367
0,419921043824072
0,437805673265828
0,466079225576857
0,453619646923321
0,439650880145464
0,448254576059461
0,446932159510707
0,440222291006432
0,475793769978827
0,48125632155947
0,449868503837498
0,481087632704689
0,434559713975791
0,563372976812725
0,497675463056437
0,522588719439854
0,479839869301549
0,490228918253021
0,466561813668176
0,485260072448837
0,466018768768434
0,482607520746792
0,479765661813558
0,473396801864405
0,476676392176815
0,469577404442372
0,477916758878939
0,46650239852935
0,47700408179326
0,513040437703527
0,475700267013649
0,469551062123646
0,467009149717397
0,470503111755922
0,456609147838483
0,507546951257582
0,477304915837482
0,477894535271258
0,46759762389511
0,488338043895903
0,49546734507047
0,484730575228278
0,451948505237401
0,466706176778588
0,446659026011846
0,470463344748108
0,443640495072012
0,484594047741476
0,484763268061974
0,487404454320857
0,461608440622684
0,469289958681796
0,466016312451763
0,475604067910999
0,467499638884715
0,480957944338686
0,480653064935812
0,486112383361476
0,48769602847049
0,484590643422586
0,49473027315606
0,514165515006087
0,525486055578229
0,513264264597497
0,500152610077641
0,510708140379519
0,493382900844088
0,509306560139664
0,509907444765537
0,51146515813725
0,497558033192097
0,51059588487917
0,486440413601839
0,518372765020427
0,537729333269482
0,504049166635464
0,514085398212018
0,490574142839132
0,488104912315734
0,481540070821505
0,485309115157415
0,473744637308717
0,483465989626965
0,484917799898434
0,470509707831197
0,469571066496155
0,46995090658962
0,466137213191193
0,46701009799763
0,474108540033916
0,4628681211344
0,462142749537638
0,457040093608708
0,46254197137889
0,457923029557938
0,46005809394751
0,453791098388651
0,460062910807618
0,484090643535851
0,484098605275853
0,485803419602603
0,463150543215195
0,471335166489558
0,459877930832763
0,455294435970288
0,455792810175548
0,449286780826987
0,457595755208788
0,446691806804302
0,445524674306842
0,44350458886792
0,443120996720195
0,435742006633571
0,443641085496535
0,436116394000636
0,437760571208929
0,430198389679006
0,426934467898845
0,422660400289384
0,42985443202881
0,4180241239147
0,436795701260266
0,418727173975091
0,425351883043946
0,415945692299566
0,41198638893789
0,412043609464933
0,416127859097495
0,416278431802188
0,407863755741739
0,40157272651054
0,403307564233583
0,401741796320867
0,406483048755816
0,399401275799824
0,404042595601132
0,399685313465389
0,401302293536271
0,398403758870733
0,396725281905473
0,391823272526825
0,392749310883551
0,389428393350798
0,38825182098456
0,380400917865853
0,386825224608148
0,378982628513725
0,376062752730748
0,370336105757007
0,372256235944787
0,36446616153919
0,363345402260296
0,355948254457509
0,357228056949407
0,359052987702969
0,36009091168618
0,353711866756539
0,354077573154269
0,345840470883822
0,349816041066136
0,348904455431569
0,345448544999064
0,345804728241903
0,348849920354165
0,343419364687125
0,344735775937337
0,342907644788123
0,346606245916338
0,342062936511278
0,344818517299472
0,344117781393856
0,350236486209186
0,35069163035096
0,351693579675175
0,352345392838354
0,356386973417586
0,347969344560074
0,353371553503602
0,352483867899753
0,35770536552882
0,355152664701782
0,356140452033244
0,358147626525176
0,357936104422251
0,362721525741832
0,361206991461332
0,360836804423589
0,360282231015661
0,362356514601381
0,360971577227775
0,360495224945825
0,360227347508994
0,355561894887302
0,358986680416985
0,35837074540889
0,358193390182677
0,356525886697313
0,358292369078362
0,353692798198765
0,354894399892171
0,355141782044574
0,358074063885052
0,355476472903047
0,354785605029939
0,349886279326247
0,352573900351455
0,349045610538445
0,35066661515129
0,346509138914669
0,349182083568893
0,344126581734473
0,34578970409317
0,343495265503615
0,347393539451178
0,338654030408245
0,341591331404684
0,335765263791805
0,334895014320302
0,328756572269503
0,327760710578023
0,326913316172734
0,32624185703424
0,320621751260321
0,320496532051932
0,317930553978699
0,310449146337857
0,308160334311332
0,309652902560985
0,305743999698453
0,301523034348079
0,295915741901574
0,295532941537292
0,29236432362469
0,295744945314189
0,291111820179967
0,293074480495968
0,291339905408161
0,291030668817577
0,291775988497683
0,294665001221248
0,292461120239248
0,291438373747954
0,29421764652662
0,293307701784756
0,292781047723014
0,293399763978074
0,29051242698915
0,290909251853701
0,291134967812735
0,291875371454112
0,283838972495267
0,283859346774351
0,279652460996103
0,277777817122536
0,272292804594162
0,270001582921386
0,264477471711771
0,262017215470118
0,255971047069593
0,25212662263953
0,247465867812719
0,244276488550297
0,243073695517924
0,243327526206517
0,23940207193986
0,240811128350917
0,236828862897389
0,240416738254917
0,243525126278925
0,24867069278972
0,24963595327827
0,253045714606528
0,2598141154682
0,268693511768706
0,277647046992408
0,286654231221304
0,29751762896441
0,308498274972779
0,320654115354332
0,33528308532868
0,351826796783733
0,367701168336672
0,385864140080775
0,400649211099218
0,421756761602993
0,447750389317491
0,468659395238017
0,493116665209254
0,51997814058214
0,546750987161163
0,570200581011113
0,60318962918974
0,624444151645635
0,650917683435797
0,677547324950111
0,705483861787876
0,726052115981368
0,751502783774607
0,763130371271452
0,79008777649951
0,806995388251462
0,809201744827794
0,814053783207158
0,825737671138122
0,82451450649599
0,823126719898395
0,816467546522193
0,810791188881396
0,816349244788781
0,805352786964762
0,798077805806511
0,786712791601001
0,772845716113317
0,763881236936943
0,753543312637978
0,743335381625743
0,736595575826686
0,724130249157492
0,713595612980627
0,714905390775528
0,702815666701984
0,708269228001466
0,700735516516452
0,712971503127316
0,70691990439785
0,712113679614347
0,717649179299309
0,723318296366951
0,725513279853956
0,737412436818896
0,743164430438764
0,747868142979127
0,755210238071087
0,771864371279794
0,769613591592818
0,778166924039196
0,779575457567421
0,786260615722197
0,798449473052771
0,802328608830124
0,800729472967608
0,814223515747163
0,822753397398082
0,820048678846078
0,832920161191468
0,829704953240623
0,843111396604413
0,836764225597413
0,84670456716949
0,8555187550306
0,845953699376496
0,85529082341007
0,862402609086152
0,864105435719003
0,859938367155366
0,871179016302336
0,889333713060353
0,88652501949922
0,873367970842851
0,891406466533985
0,898528964034646
0,899323064370838
0,890010921714593
0,89794964095469
0,903338008016572
0,916012408048292
0,934339990899831
0,942347681313155
0,962078817693781
0,984231180238465
1,00876152746175
1,02625364283652
1,06261265562197
1,08105324105162
1,13684557779241
1,15597552972434
1,18910330401633
1,20974667281802
1,25137706987526
1,26795657259308
1,28634174962234
1,304693202747
1,30944063477948
1,30943208834981
1,29620421670113
1,2971123210441
1,29521842187173
1,24263429559123
1,27724670649124
1,24460808279698
1,23554843898595
1,23039127868973
1,21476297939042
1,20201038779191
1,20599242413555
1,22010232817772
1,21816712370255
1,24165268779292
1,23773096101164
1,22374476075477
1,25406807424402
1,27755810557655
1,30763205233616
1,28888542164146
1,34582909513546
1,31253499798993
1,34718163485374
1,35770220506653
1,41143099396553
1,42916108370697
1,45862646073782
1,49653125474205
1,48366226544241
1,48448133914365
1,50984337072044
1,55251857934592
1,57981863430662
1,51733154186468
1,58281986922495
1,5935055567529
1,6823441278205
1,71376867157733
1,65628090450036
1,70970647977501
1,79755765149739
1,7108023831532
1,82744795309805
1,8617570527016
1,81208998024475
1,79650974607125
1,81518916135274
1,80269610334995
1,85812979721659
1,96864856224335
1,88641033936983
1,8293043574331
1,91808133616563
1,95251597374424
2,2100466045214
2,06241584922486
2,06854981258983
2,10947452649279
2,03436979628952
2,01622550139639
2,04325150891456
2,00034955285942
2,23524383669928
2,00352793127768
2,01149072802019
1,89772085931678
1,99273010518582
1,90595870131371
1,89982477355859
1,78678926813468
1,76856587309278
1,84318088263297
1,68180218983155
1,67260562062955
1,67426944777998
1,63993655079574
1,63526358140669
1,67593115082837
1,63636644452699
1,56262778757755
1,52625751309264
1,47909458010496
1,5669749793685
1,51502056745638
1,48813046181674
1,435383202416
1,46925097107885
1,38466517858429
1,38400489776345
1,34518208881878
1,28964612546703
1,23929287998111
1,23052406876247
1,15795702582844
1,11084388179551
1,07561043307004
1,03780315260555
0,968744225242317
0,922454159833507
0,870275511391242
0,82995908712943
0,781170256871446
0,733130091483278
0,697223055812081
0,674157118499693
0,634338819926873
0,595300972912229
0,566267249202913
0,534337239946243
0,505299803479322
0,490262722658769
0,464035581676255
0,448017063595704
0,430236361808092
0,415083142257608
0,399911419919258
0,387339603152204
0,378268522035086
0,369457361707019
0,358835058613134
0,351069110663285
0,344797170728798
0,339595311401442
0,338244729156276
0,328951743877959
0,323398587112864
0,323942751028723
0,316496021419002
0,316761435935158
0,315017277322116
0,314251602683511
0,316361642416859
0,317046651493323
0,321052610990528
0,325026545313631
0,323520209942578
0,333961442215076
0,338590076525396
0,345602219771153
0,35260521356974
0,357263161127932
0,365510737527131
0,372483312130596
0,37463653924075
0,380961963921026
0,387038914007319
0,39430138976651
0,396980461304218
0,393603132209767
0,400330860914967
0,404830651692258
0,402695510848433
0,404048575284087
0,409556291661496
0,412010859950176
0,409974614609208
0,408673737172656
0,410054190636862
0,411802045237281
0,41047775678328
0,409614365006529
0,405578579170503
0,403938708625442
0,402494943367416
0,398179181254402
0,399083606297958
0,399674360127574
0,389068965199885
0,393814608150145
0,390572990964092
0,391116517863119
0,379254954169684
0,372154018966608
0,366882032339909
0,366898238777436
0,366466187782114
0,365737604249626
0,358149573131256
0,362939454171507
0,358962433894887
0,360669676008888
0,360190472087655
0,357962849888024
0,35906617185828
0,358358666896243
0,369466880428919
0,369040651331717
0,372944756619305
0,374980471067543
0,379621638548627
0,384096990149974
0,388192226712904
0,381836594218145
0,38595461401028
0,388556294457655
0,38149731756432
0,373658057537624
0,375081037819958
0,373788221090891
0,356231042129011
0,361923169660377
0,352121276476959
0,343606165946229
0,336981224571906
0,337607153676533
0,331487399524958
0,336636362293073
0,332323407633946
0,335955790120966
0,33772665256842
0,337494547481609
0,329466624618774
0,340557398122834
0,340580723277139
0,346012280067024
0,34903693195593
0,351144220238297
0,346218870491383
0,350644437018644
0,353920386345704
0,361423350966809
0,361342292438751
0,361546919262038
0,363869701178143
0,371031424228066
0,37321512651214
0,383900333169842
0,379354955987819
0,385607961059245
0,386566673878296
0,384794251102477
0,39012618837853
0,396474036363269
0,389277748063603
0,390618377593844
0,389515454589275
0,387781229851374
0,382406127105335
0,393745400059754
0,392049496937825
0,387554537869711
0,384883606248876
0,389341334940819
0,38620026717486
0,394663572796095
0,39169219281986
0,392140274783012
0,393510941487579
0,393156035119269
0,377468293422736
0,374193002623723
0,363104964307483
0,367793160778376
0,376379850858219
0,366341080452952
0,351856408626376
0,359081315966186
0,342625808906028
0,348349081131426
0,337067088221623
0,346192606419745
0,336652113842902
0,343623041299545
0,335496265564989
0,328695066625402
0,322746879918296
0,337843523643472
0,330798242457358
0,338950201287059
0,331760368865495
0,328324854334267
0,333907797456733
0,333221225999053
0,32638687546146
0,342173277356307
0,339621384206339
0,350057858992345
0,341897316753671
0,331339898011142
0,34023342776729
0,354035614031851
0,352387954345451
0,350069854415646
0,356193701507883
0,363985021448285
0,346200485570606
0,356996558503813
0,367259195754373
0,368029444128377
0,36456547156908
0,374648644827313
0,372824801388027
0,378860043441587
0,378332246473118
0,38506851423043
0,404131423718535
0,413275152339883
0,406423244778761
0,418177695287219
0,427039158556835
0,447170248161129
0,44677723963314
0,445805404140028
0,456494566438402
0,469696602361091
0,458096829631764
0,487390311461051
0,470372437037084
0,497569569504458
0,5028096702556
0,509801815485053
0,501073787445471
0,505661486630048
0,509349605582221
0,529212180355042
0,482723629913661
0,495762249625133
0,498716973053175
0,525018884463058
0,522081394042529
0,544642427608531
0,530741058320157
0,523003377134342
0,524171564252754
0,540073502903555
0,542756137193793
0,562593519405909
0,545679265663906
0,542380720057106
0,544197791505235
0,548999236886731
0,535500517166266
0,557769718888992
0,549746851033561
0,56910105888728
0,548791114925034
0,572282578520336
0,566134284570884
0,56561216652051
0,540625548043353
0,579687997803057
0,558104163424643
0,556425616060555
0,557576674442972
0,559158898534843
0,506932074155629
0,528003809993853
0,503960362273381
0,52659206106229
0,51018195375454
0,508405955897716
0,513312888056359
0,510406791233889
0,510700178842171
0,507707024272855
0,507155386194377
0,507413026244159
0,527673986674834
0,531399768576925
0,501068175973576
0,51349569448926
0,481168467998861
0,520269327571407
0,533358012440364
0,538341734013697
0,526677744929708
0,533518885306642
0,533994113946749
0,568576617231286
0,561956371071879
0,55517653316825
0,508142542627727
0,541507996043042
0,543921979458707
0,576742363424774
0,548134083048073
0,49834728804731
0,548610241584372
0,602990452940945
0,572671271133694
0,583559675372274
0,598086198696301
0,638750879635647
0,590295649695228
0,586399894974671
0,58204783831511
0,59057222389615
0,619469634377988
0,595297863157639
0,673987029350485
0,677970315328525
0,60548183807674
0,650541100226913
0,61586511927022
0,737120905839063
0,683814100142658
0,702272625543033
0,75212728798369
0,719962102016513
0,665208381132146
0,720852061231917
0,646214941274826
0,645491095750632
0,651402830086518
0,718374119426451
0,668055193051807
0,602791470790732
0,648388640632471
0,612435609225294
0,628494863185701
0,646725367851292
0,606728145891168
0,671608532300739
0,752652116426739
0,752595334219372
0,635338178639143
0,623071388386369
0,618416775164383
0,655869855963919
0,584369258896606
0,672027746084947
0,661137469643421
0,664297070863062
0,779322293751458
0,802197912746295
0,632447052530717
0,657345566736245
0,81221707451374
0,646608612228756
0,633040877785315
0,658681261007899
0,596238730016389
0,693294367826752
0,635832313010875
0,677885193183063
0,740686956725532
0,673319778891455
0,63001529024484
0,732409476249686
0,671700183199625
0,828165726884927
0,74550296893396
0,691573951111048
0,580676493002116
0,647441055301934
0,65694242556014
0,942909935434305
0,813232197557945
0,774528928379834
0,929730391527431
0,653072337484831
0,795489746958798
1,30516233654967
0,562307195730506
0,825047194300747
0,912159733598489
