3596
4000,36533379555
650,420452594757
1
2
2
0,107132095398313
0,108183086294907
0,100802386781648
0,105884141737219
0,106442476861492
0,112866668029366
0,108507112449268
0,113491518147056
0,109057617761354
0,105273454464119
0,104246696378772
0,108384209031527
0,104055687323226
0,0962136371566587
0,105982728690764
0,109069791058239
0,102392334866379
0,0980260324786373
0,0962236455611158
0,0989143916604862
0,103073548318575
0,100774710112649
0,100720223766008
0,0901211672210793
0,10712612600291
0,109315878811277
0,102822031727396
0,100418736219298
0,1137355384033
0,103822194366881
0,108811961857031
0,10581826417942
0,103066983668519
0,101646172985734
0,104086579757003
0,107670853550607
0,10243168770873
0,101150460271555
0,102356548546484
0,109389090886925
0,109744387017258
0,105287395744821
0,11113112373331
0,10643618761747
0,113807707292601
0,107773222005669
0,108492585677539
0,105963030055295
0,107346788725965
0,108578405097286
0,101740145441356
0,106546372152754
0,129292649332261
0,116404624660528
0,113245383393575
0,123650731323179
0,10544973893801
0,107059626611915
0,104978329483656
0,111528805570433
0,126695127471469
0,125854044032991
0,102784213596808
0,10383814470676
0,10402748300034
0,102804109983376
0,0990080049028876
0,098487922983677
0,104661086041785
0,100079530627296
0,102752778469501
0,137419551107005
0,116535887003693
0,106547025019958
0,120027755876528
0,103002337912347
0,107329360534499
0,0989878564546229
0,0939125770872547
0,116648199260527
0,1173404039234
0,115779293582918
0,110516596660689
0,097806266023981
0,12487187154883
0,12031840767472
0,0947519484369195
0,118335915263552
0,123938484821037
0,118618589897487
0,100832120296914
0,103177173316835
0,100803158907386
0,103284127660079
0,0952553354870247
0,10359788284293
0,0966832027194304
0,0951243895691192
0,0979494224840134
0,117627500345616
0,114657358043027
0,120711580530439
0,14151842693298
0,124561802347299
0,167489168403146
0,117400282791843
0,118148546391627
0,157349202091166
0,123076877118673
0,110909662149322
0,0946050162335653
0,0984528629606432
0,103882531039057
0,115281432980739
0,0979483017932199
0,138669092154179
0,136223312005619
0,114213524116265
0,101116702610218
0,104964316748131
0,0861376680702609
0,155607924916649
0,150741074479232
0,113593246475656
0,113480446996533
0,102792859771797
0,100039903253855
0,177839442282676
0,131037746091832
0,11057111255862
0,0979328475488398
0,104928501729421
0,0843879974426423
0,111096226644204
0,144831082736158
0,117872083194049
0,107551596728225
0,104506717239552
0,148297026649087
0,172346278460259
0,122816533533147
0,102239778165947
0,0880205897124071
0,115504829376568
0,155168208511152
0,114505816956737
0,0996944394044958
0,138002763004339
0,115121831964247
0,0938941439421043
0,0915386554236083
0,102967408872119
0,130033032149957
0,119112218984083
0,081544779380898
0,165299483220991
0,174569998329964
0,15384460765551
0,173925125657899
0,105445040704698
0,12113059826541
0,0992042182003576
0,0983855507802012
0,0963853885706056
0,092700272600211
0,0935501820908386
0,11594065971182
0,133514855867843
0,10544818347967
0,108885436066099
0,144968125183244
0,129110050158268
0,104149898094529
0,183135436366799
0,115141799442575
0,106908508424462
0,145510677793673
0,123355874661838
0,0885084852274714
0,130245481118564
0,136993464791348
0,104601556693501
0,0969735903369057
0,0909265271716621
0,106112496442445
0,131941035706736
0,0980773176629524
0,110272362745054
0,106475567916962
0,089808779702506
0,1399967836418
0,181225511393776
0,136757945013569
0,107642477294972
0,110303511325322
0,0855596120158175
0,155990018276707
0,137668834575795
0,092834026816612
0,0987827516431081
0,0922296298129441
0,092433867785661
0,0867850719507773
0,0927962427770333
0,0894190285801234
0,0873037108106049
0,155190728999097
0,126872852513644
0,103259019851829
0,0939974335500098
0,108359249605448
0,107780693153707
0,178522419755931
0,138413931931925
0,100995015542523
0,105843992082756
0,103187941539833
0,125096644909243
0,116905060819488
0,102303922933901
0,094435480950662
0,0878942898862577
0,0942177329397638
0,0933091323110949
0,0901336267477273
0,0933223529820778
0,0909502622185975
0,0985687017382309
0,0973526742306304
0,109835683284547
0,118783552959874
0,104222955020763
0,097463647919684
0,0976349209921252
0,0918246370493593
0,121675101869845
0,129744539271337
0,101231098232471
0,104756875246531
0,0977531413648212
0,0944912738023457
0,0955813134638687
0,0979574663721614
0,0972484676081727
0,0950815787582947
0,102164554982689
0,14836166598978
0,10785784685023
0,105304237649999
0,0900330810620607
0,134490759232632
0,118542042424611
0,102841900041866
0,0925989134751276
0,100078783065834
0,0879975016230526
0,115670761430268
0,153869200458474
0,113326405562494
0,0930717492534509
0,129494864666537
0,111854224470886
0,107780514716612
0,103881718037982
0,105707077619623
0,202351333526853
0,137115072455955
0,114937079234339
0,179257267078941
0,132074637970226
0,128515689373879
0,105100013438631
0,0989380151378998
0,256386962096903
0,169807841330628
0,112529882598634
0,123120979481005
0,139082854110046
0,103509466633014
0,12964457764544
0,120723861000056
0,132390948699623
0,147435829915267
0,195116667402297
0,1948014631311
0,0920049452419367
0,16318526465315
0,1362215905074
0,110034752610375
0,103677128878776
0,104295565515057
0,105556015187557
0,149575768337528
0,130146428359845
0,134506770526339
0,124732860365474
0,118013480154867
0,1462481706973
0,118831174272356
0,108478150184124
0,130332990052285
0,133631100489338
0,100877869850309
0,11214725813813
0,106687506383644
0,129836344393276
0,112132228780808
0,116162078935352
0,188988845189643
0,131427030866659
0,126863003715605
0,167837612455806
0,113185281298691
0,107722723879227
0,104587064353799
0,113713002205303
0,101636328610005
0,106726961873508
0,10565146924467
0,152896206078011
0,124382308828994
0,112708070709752
0,108700727688864
0,10643366308655
0,110157809522213
0,118627919046876
0,119740345626347
0,119882095101244
0,117922963980996
0,114305489587044
0,165293147700588
0,17322864829524
0,112069330932972
0,18208899393392
0,15934606156603
0,125894302800028
0,11990401243154
0,116407450266013
0,12503528518755
0,12507937480185
0,125739500592611
0,119040377825221
0,13366202276327
0,161550303921218
0,149920994349218
0,146309286172496
0,157244451895272
0,216209431418295
0,226561029898323
0,158437838755964
0,150713115183837
0,128172356681184
0,20384904378809
0,183958103934347
0,189582776013878
0,18089759965801
0,136519481039603
0,152225975856807
0,14174296720109
0,15849317179414
0,141703104033401
0,160337268479498
0,143157339315868
0,160099758389309
0,142582984998738
0,164123267109005
0,153088542963697
0,188520421001291
0,220486077625702
0,180132658372507
0,16403145033193
0,179648656543096
0,158238098795329
0,232324577455504
0,223627562619486
0,273353070399101
0,221573400034792
0,247333300346618
0,260656092412371
0,182737459660713
0,19268909237106
0,186458251089743
0,196387737820669
0,199101600787492
0,203281709802388
0,198412071973495
0,20871921052326
0,207462555432705
0,214579626566173
0,19631212788063
0,212779715876984
0,21581977937818
0,250063549454126
0,221406891398199
0,230619329088282
0,216940411872586
0,275184008540091
0,312637800378219
0,311924136497732
0,243383476398628
0,252872909527448
0,245082868234141
0,236357092772878
0,245406297656234
0,244066881140727
0,256426636056297
0,265462238802266
0,319342302443458
0,288725371381249
0,316894323495316
0,293839091749277
0,262665568799841
0,312239054546293
0,294857508736768
0,302218124704509
0,325918140534091
0,299969014498344
0,280849787176669
0,335096169616974
0,326568754219361
0,311708812552536
0,352317643807833
0,301821057599423
0,321241024306835
0,30088417962528
0,324848077998761
0,310678909954099
0,339069559024696
0,321421935856183
0,339759458877582
0,333420725575949
0,349501065512707
0,346001637312362
0,382046974308765
0,349710529810131
0,364049423299101
0,370740319332491
0,33881222434778
0,36220068743691
0,352902503614636
0,395487903980155
0,415406645376803
0,416905590374108
0,436715209475404
0,375287714251909
0,39513050300346
0,397295696665414
0,391793995413336
0,385230809740272
0,396240740377747
0,399873587440673
0,406585430626335
0,405191727101379
0,431194437835737
0,413720681890604
0,420951026316301
0,426923918656542
0,424319288976269
0,435744092283158
0,439162409827405
0,435412385128782
0,46444116341877
0,509503370320019
0,542016705514542
0,521961427554811
0,531940316167474
0,465473961400751
0,490524051595772
0,467643250049929
0,494312855020838
0,466978791885942
0,518413829214119
0,493304726118476
0,508994328255612
0,488641643227827
0,534886176819836
0,505082434025803
0,557642964162055
0,525256599883364
0,553055139237495
0,540434031115886
0,533756998379165
0,532202258710846
0,564170523993887
0,536130834476225
0,588064733463858
0,566344111866925
0,597975187997606
0,563911333215265
0,570054132878494
0,563506606010644
0,576265937518041
0,585053355744758
0,602878821825385
0,614939434196856
0,615768170295176
0,59573539444968
0,648332946656485
0,619556603856741
0,625494399090688
0,609109876161664
0,635496072054476
0,602651009571493
0,639298833997335
0,639704281536266
0,628652771854842
0,640697034040378
0,688595200856354
0,674820504878262
0,715030226144499
0,633007577096788
0,717455483089487
0,687978922769269
0,694871558857205
0,678611004411048
0,741830199735121
0,685953037626268
0,743652107482871
0,688235908273625
0,732652541875556
0,703470930355724
0,69703390030188
0,719977937450733
0,732589017003256
0,722118465007457
0,733150294371166
0,77449428541629
0,801957022909491
0,727153306257219
0,782816679955146
0,725498064560082
0,784541642505595
0,801068061527757
0,831383158289951
0,763434459687858
0,814001970196249
0,763675057176825
0,817133197666791
0,812402236478361
0,840695021323264
0,787215929862648
0,845671851370849
0,789597036043242
0,833766661032721
0,820847786283712
0,876862058022105
0,849774964332106
0,898709741087789
0,853339184583675
0,866361025412992
0,85511058009436
0,860665776422564
0,863810131092788
0,909955099344051
0,85247902442722
0,946689747783318
0,862521967947668
0,941285939348118
0,839724292292324
0,894285195701775
0,925120002272214
0,951616694291647
0,880001247717728
0,948842127879815
0,91746170843279
0,890968436507799
0,916515463938501
0,945896888041403
0,900435290557722
0,971674254294475
0,964212449414442
0,963227036206411
0,953900481733059
1,04698117913028
0,958234480789828
1,04349439869521
0,943670927935325
0,989280894825866
0,992488427296956
1,09769111943712
0,982122073322045
1,08052093802502
0,962031236701733
1,07349363837513
1,00392645675154
1,08143611582564
1,00504207337112
1,07603441265966
1,00123043014049
1,05219682672611
1,04157323757305
1,07470287849975
1,03581185145046
1,09088512965548
1,12136075412212
1,11253582153509
1,05316924896686
1,1226826415701
1,10526088552716
1,14354936847587
1,11558959344765
1,07403284678611
1,02502724357847
1,13748970784359
1,04184021881123
1,11083734172174
1,14940936559107
1,17566787235768
1,08097308865212
1,17145164775141
1,08978867229619
1,19868942128511
1,12345219675595
1,26756354272824
1,11572276058284
1,19883412802945
1,23109898505591
1,26850774282554
1,26381192403043
1,23666477143
1,24376699556211
1,20027131516623
1,1252289103358
1,27160629644736
1,16930841838591
1,28276330702519
1,24866195199327
1,26002287155447
1,16171722244858
1,22654012790691
1,18372436590793
1,27245043713201
1,16467852860033
1,37399922957038
1,31737633260239
1,31103123263217
1,15623700799993
1,25879506664234
1,14846383057215
1,37507757095966
1,228409946452
1,34108071896288
1,21423060714751
1,35671002882704
1,27907276764884
1,37525519354164
1,24590824288867
1,43689856960871
1,30333712275659
1,33356626022988
1,14553381480569
1,38951837746036
1,22806595534198
1,26673278017404
1,25532669032724
1,32285366900682
1,34505333022534
1,3609825030333
1,26080636769166
1,40286109529018
1,44760586707294
1,45300900658433
1,28370965494862
1,36454297175793
1,27122298332423
1,40859330949813
1,28166382338807
1,38793838185635
1,36223139273719
1,5771026870693
1,32173181999725
1,32641552034596
1,30981473681689
1,35948714174629
1,3073274057845
1,42337921719575
1,30782126786896
1,45301480974213
1,34018940990567
1,51285574801195
1,37116035115339
1,37851271733365
1,33436079127431
1,40722041160279
1,26765490971659
1,3813575688647
1,39693042139275
1,52973371634891
1,37482583233326
1,46304398074867
1,30721654265624
1,56653818098725
1,33362736780921
1,45000520169245
1,43771773650351
1,4248472714794
1,41192964873375
1,47644282583505
1,45446952219263
1,49755663143307
1,38831048621788
1,49843570811077
1,43211717020503
1,56655939839959
1,36425091162723
1,46961746534206
1,49109398766603
1,47535305170322
1,39350696400644
1,58515422981584
1,54384911222108
1,50486987373404
1,37433853721076
1,34744516890817
1,30949775173158
1,47502087365293
1,50509334435475
1,4467260292875
1,48547382632078
1,49420696197498
1,35093846343628
1,42023971106032
1,39718765601438
1,57379833977287
1,48875966844981
1,55202837469319
1,36740467983806
1,44936402818411
1,46370716017616
1,58294826568539
1,53953378068042
1,47669308771701
1,46624401406729
1,47438839938023
1,37533711132862
1,53664484216809
1,52110188621623
1,54705722412125
1,34747780240893
1,36754899642277
1,36483227740353
1,54637822064332
1,50244127645244
1,51120430301651
1,40647674572418
1,51648625175806
1,46668914674044
1,38093233598528
1,43828749999695
1,488532553634
1,4090729272082
1,46904528145175
1,46790022287925
1,50374909766457
1,46429838163824
1,44100463993291
1,42822057673336
1,49380559946806
1,34823981095328
1,4466822994246
1,45755281933331
1,4202415571419
1,42913787720202
1,58866061849112
1,53782885481043
1,50554261820755
1,44768197325562
1,55329669032959
1,44408911429065
1,56795567138329
1,41407721257222
1,50804392072802
1,46747983719773
1,47696781316649
1,5547962994622
1,43561680086353
1,41880366971023
1,59052695377795
1,41520606046641
1,49528023667825
1,48178166972942
1,44155107065233
1,40057992801258
1,45917395093361
1,41324601684552
1,40215139450226
1,42815607950286
1,38742729786542
1,45014716281438
1,52653578287113
1,49980848572683
1,57640114002548
1,42498826404296
1,39659846485723
1,41888189405579
1,47918032581806
1,47783357173464
1,5162579363879
1,3935163605002
1,54250086493765
1,52926727271653
1,44224058895033
1,37317088315986
1,49069565815512
1,52223532069966
1,41776395633872
1,43781643459638
1,50573476818198
1,42178265769584
1,39043154950083
1,37759486479793
1,37941143617285
1,39989157225251
1,39326935299205
1,3458907115939
1,38314225228033
1,40831088965418
1,39018396267287
1,30015443982149
1,42850861976241
1,43216408678022
1,40204065320127
1,38816875330565
1,42708783945873
1,36813036840137
1,51189423575976
1,48967075157842
1,42325506425619
1,38088687218693
1,42019621554012
1,36120383847936
1,33392976104973
1,37686451547695
1,35694564568842
1,29794562009097
1,30138401272348
1,36589900034803
1,40860203466613
1,29974276659947
1,28240648296099
1,34872111914943
1,33355261005415
1,30039644110334
1,32047100516385
1,30837012229993
1,34267970855887
1,31050311466746
1,32619249823801
1,30193824740074
1,34151028086254
1,35387102163255
1,32269976390323
1,29522862262505
1,30942575124005
1,32800608037665
1,28759819517247
1,25613938735612
1,2992792589476
1,31105450704407
1,31153472172292
1,25814154896795
1,29495930626689
1,24225608582656
1,23834795078809
1,24966831174256
1,31421983477288
1,26739538321315
1,23147955570595
1,22752543088557
1,20620431372365
1,23793375632078
1,22337749800017
1,21145132764272
1,24655982960426
1,2168722205601
1,26072587129508
1,20994268123879
1,23889387126415
1,2258858421687
1,15229764445008
1,1796009754612
1,20456590513171
1,20341913068893
1,19699393489486
1,1579186979828
1,17662943593686
1,1408299646577
1,11677015965018
1,16547681151664
1,1546110000051
1,15835398837221
1,13108046064564
1,14498048673829
1,1499403300164
1,15212841422969
1,15406516036228
1,09013875225371
1,13836809646393
1,14276760761039
1,10323639543951
1,07949706848614
1,08986288456406
1,0849771101885
1,06095855769725
1,06969049573868
1,04751766487158
1,03552568044838
1,02429207083262
1,02769063471101
1,04721944978159
1,02592391142194
1,04354972172095
1,04180941303995
1,04996329846872
1,04015390729392
1,01134311005204
1,02707381275923
1,00084073585021
0,974844889164412
1,00742373550242
1,00487815598521
0,988145200440418
0,979591520685317
0,993232601707766
0,981848239455979
0,972810495369486
0,971839154333275
0,957934759290355
0,964483912776683
0,95460144302841
0,939304865751098
0,93511537449041
0,956925723461043
0,931915109003607
0,937448373303355
0,94869355858125
0,929376930580326
0,910160891011194
0,904031479572848
0,892423496113515
0,899213738701336
0,917104493735982
0,892803692346487
0,887689597429848
0,887869158965365
0,89178099192373
0,862251098818112
0,880003787541724
0,89585513223621
0,874367073764493
0,86079119227039
0,851870985015225
0,868828633523289
0,852834184335154
0,836058021859707
0,833422571322003
0,82738785096647
0,832411983549628
0,840852952936215
0,82747196397733
0,820404205039698
0,822724555619671
0,828894683599074
0,81567559053427
0,803956662471849
0,807659031436941
0,813710366158384
0,770256199619578
0,762852500421189
0,775578525074617
0,775320551010182
0,768651696009018
0,770220247923672
0,781881609417228
0,776572599619829
0,74869023423734
0,747577568440673
0,744199630407568
0,758774479394505
0,749353233784896
0,74304215890544
0,737048078708739
0,737989455218638
0,734737955088259
0,722605795278278
0,715194086110269
0,726359755784403
0,721961890838479
0,715105144490897
0,706193717002448
0,704480228048527
0,703151286496148
0,706364081048266
0,69652376771956
0,696058323413398
0,696295580165544
0,693187888566946
0,684231940725684
0,678287038671922
0,674946273854335
0,673387706667181
0,664033279952469
0,669037075682752
0,671422776200574
0,661468967075157
0,655038677248799
0,66290397977759
0,64859517582489
0,648998221566283
0,64066403574248
0,643835585153867
0,639137399545402
0,626728444552705
0,628867616952246
0,640824898878351
0,634506410585451
0,637206924789583
0,620023838814257
0,620048185358237
0,619478705030276
0,619071550081156
0,603849314276083
0,602149721737983
0,593478561621668
0,599087547245814
0,595499049102033
0,591203577924793
0,574665063955169
0,59173075368773
0,590211063235694
0,587172502814494
0,586292020812782
0,576034974719303
0,556808261999146
0,560529412642435
0,565376259711949
0,569902014339469
0,552174458992223
0,563305765882568
0,564895043413444
0,555019702666631
0,547133149690513
0,554323314973267
0,549122850241347
0,552453661997864
0,551027594941103
0,544444634590236
0,527112764348599
0,532416147585367
0,539776488986177
0,535625963108033
0,531201562832988
0,527576190258366
0,513834337448281
0,520076043061887
0,519052029180598
0,513663429390162
0,514665123852913
0,522735755658731
0,509306481727145
0,507353098791736
0,508957893585079
0,517983442321462
0,500304992759314
0,502767012649646
0,506496438645475
0,501084949155368
0,492233989239269
0,497829965570294
0,493987331328065
0,497640569708889
0,493901672847907
0,495688323897174
0,49125277124984
0,486463421370636
0,485564161577768
0,487276473593886
0,482028430844561
0,497536036577697
0,488878294658445
0,490961080117668
0,486710879050693
0,491780927486317
0,487766883746083
0,492338377615893
0,490837502822505
0,487868302041665
0,480113013786687
0,498772914496719
0,49480058842277
0,492009139539764
0,491952363220242
0,494198222043199
0,492269697462574
0,498172314331759
0,495059917375112
0,499467082977977
0,496846529575991
0,509758692543831
0,499039707115435
0,502808710708163
0,507823438470406
0,508029519409001
0,513479745780169
0,513813471188477
0,506391193363066
0,507497374910955
0,506403819402417
0,513457663349245
0,518329931371762
0,523586654526947
0,518528425855293
0,528264664773735
0,515199024807849
0,528641451117755
0,534034277098121
0,53427267881674
0,529585152001886
0,531167779304419
0,532330644244754
0,545637671196915
0,540849213581133
0,554787346093535
0,543062818365712
0,550188854819491
0,561362976051936
0,565271681988777
0,559371485708141
0,564313894959449
0,560235616395887
0,577519865885848
0,573245653641338
0,580158124854607
0,587944553193261
0,592066066414547
0,599871565565938
0,608913644603095
0,60157162797773
0,611914280870678
0,595956009072952
0,607964847209279
0,611973245678366
0,610624903902112
0,613796726599466
0,622342615324706
0,621726696256095
0,62846675243949
0,614428817487498
0,62263837618772
0,632193040614584
0,641918370450536
0,621835178070378
0,634943633809868
0,627264572011413
0,617560466932538
0,617983134716294
0,634332878240821
0,617795970246171
0,625511028301162
0,619745665068858
0,628156126382649
0,620595846689025
0,620434975816973
0,614179312069749
0,629076451713701
0,611843819964585
0,603634286040992
0,605631975014155
0,622250167958258
0,610037014932496
0,623001762202418
0,618450325390528
0,623333796449354
0,60649602134439
0,616777059755922
0,618586760074119
0,607153546356058
0,606214260089285
0,616506916863548
0,612926760394177
0,614344188431159
0,604052417535062
0,619724164687744
0,617955465517002
0,624360144577635
0,609980165744433
0,622654813800843
0,613656706676328
0,61294714861189
0,613041435586265
0,624188414546111
0,625134277640891
0,628194346544264
0,614701916819675
0,615412342188639
0,614776432392533
0,634623102355693
0,622449758793442
0,617976121419199
0,602916629073227
0,613806395798424
0,607315488926279
0,616004432837879
0,592376859005718
0,613119944714073
0,606170142288341
0,608445212962829
0,600440429329828
0,597275575960377
0,596172605262656
0,596759539127119
0,586434792729228
0,594965509383663
0,578506073579346
0,582738489106797
0,577460409396126
0,575904675546367
0,573159829517715
0,573184862702054
0,560416872493264
0,572914407009824
0,551947964743532
0,551696884522488
0,543121710727984
0,552573897504851
0,541822592138527
0,541633902685518
0,530069246835524
0,526945910943778
0,529223633980027
0,534224557779028
0,518875739603347
0,517392736359227
0,516823373450195
0,513295317246274
0,499325551388818
0,512289739612592
0,504561398890338
0,510239323485192
0,489934516989764
0,49052821274028
0,485754210508292
0,490600029674627
0,487335914082014
0,483245771492561
0,470557633684763
0,478288757465647
0,473859033698997
0,479532590033545
0,471973581189191
0,466065059273584
0,466430957300358
0,464609948561612
0,456079571141337
0,466082013385368
0,448111036281372
0,45604930845091
0,450045170711825
0,456813996559091
0,449255936325282
0,445746248802905
0,446351128098763
0,446874076463948
0,437731602698865
0,444390332508933
0,435126275651165
0,437221805882045
0,426814390549675
0,433417577129711
0,431307382560604
0,432983414239383
0,426685055246054
0,428023417322941
0,416083458400881
0,418555597670883
0,416635429000413
0,421089495634328
0,416618851435253
0,423333687941101
0,419049823937418
0,415388136054612
0,407984026766438
0,413301274409396
0,401753331957341
0,411359229757708
0,40238292642127
0,407227418849479
0,400299540891472
0,398678427415097
0,396202483554251
0,398012731342483
0,395621229421409
0,397413018172363
0,391876335387376
0,393712490731023
0,392923597183781
0,391506659546593
0,388783034176396
0,390603842174224
0,382016752498574
0,386845474214552
0,388029192071815
0,390664754717394
0,381240368188455
0,387162904768755
0,384324040351312
0,379330471481432
0,375705729891291
0,384374499661557
0,373656471712711
0,375867756265441
0,377863621718261
0,373358495348732
0,372099451943917
0,377614633519813
0,374557510489487
0,376010101317634
0,367991174355484
0,374420723826267
0,370205020381312
0,372232802904987
0,362608848341525
0,367770352202337
0,364977277428369
0,365728138996014
0,359831689091817
0,36388621699472
0,363729812013572
0,366076497576793
0,363576358275155
0,362561156791301
0,355806822884614
0,364828707508172
0,358329430586493
0,362220807291016
0,359793676896754
0,362673695536419
0,353631739336237
0,362977522263265
0,350926606675074
0,353056947540598
0,349495261346373
0,355166431240318
0,350321521102203
0,351804064952131
0,353225207824184
0,349768312555328
0,343896492622019
0,348033611080044
0,350886599372657
0,347934744115756
0,343752646944116
0,349892916862742
0,346763808929789
0,347822147696414
0,341068563964115
0,345963175454699
0,348192752525491
0,347647445286893
0,340708636196975
0,341893437670811
0,340033371401601
0,345236944491237
0,34424249417628
0,343216923214303
0,343461503070412
0,341231396598621
0,338375415297596
0,343639851573226
0,340395439972811
0,344723406426093
0,337150672660356
0,343912017724775
0,335831105479722
0,338714206527021
0,332958158556243
0,341077611114059
0,33194321282761
0,343869408875413
0,330460732587322
0,334232731848624
0,33483308936564
0,335260359144579
0,329434148475464
0,335039217542459
0,327869042032167
0,335827681573271
0,324841265776304
0,333415824626866
0,330356524980813
0,333850161600445
0,328132921500335
0,329968675201884
0,322861138307417
0,331455509128247
0,324772396560493
0,326006517439069
0,318237460576338
0,328123674298351
0,319318878517699
0,320315972072121
0,31923366412164
0,31983893616657
0,321612016761731
0,322840663658151
0,315397201990506
0,319423702926949
0,315498844695883
0,317726087402135
0,317581491505659
0,315044357616889
0,313385468638762
0,31543175929569
0,315280610652432
0,315607907642938
0,305088074245193
0,308071203722123
0,304322922083273
0,311550192333532
0,304285959406497
0,305600480431015
0,302935405503321
0,307330839347651
0,304709054063321
0,3046157918153
0,306139072053774
0,304035946612999
0,298246671732574
0,304917740780681
0,30291638118522
0,297243701583944
0,297408930392938
0,300886350589409
0,296220145574218
0,299840699067
0,291680662003342
0,298114476070665
0,295007594542143
0,295285151889645
0,292670036129527
0,301675095847219
0,291814838290409
0,290271925870622
0,289423955267063
0,286221681567538
0,285663812777017
0,286254942790747
0,286723500278295
0,284919398219906
0,283755870783713
0,287880654523251
0,283540246832945
0,283767817863005
0,282116391960359
0,283428439572462
0,275369380135205
0,278287005092307
0,274741642181074
0,276322377708709
0,271692128504438
0,27802150034957
0,268289687129274
0,273684675477739
0,270774007152508
0,275098597739902
0,26660514014074
0,271891474151973
0,267715010039395
0,270859848118001
0,26516959853215
0,26714974840171
0,261949152949614
0,267411000694109
0,263285740644934
0,263429600073871
0,259474163886253
0,262596612837812
0,254742307741204
0,262381045220557
0,255782830399139
0,260745875199372
0,251712477887262
0,259558008741343
0,249925232672171
0,258464301401617
0,255686428770451
0,256694988520191
0,251230012429944
0,253155181672203
0,251566040047655
0,248467333008014
0,246207677494581
0,254210998108669
0,248717192144311
0,2514296525136
0,250264917450582
0,248131855712493
0,244490022669527
0,248999367761207
0,24750105855393
0,247630693774071
0,243957521065084
0,246648613141132
0,242605181097018
0,243873278192937
0,240764890196583
0,241353692073534
0,240238519416818
0,246615051827694
0,237275520266508
0,241216470447389
0,237336663769449
0,239613146685842
0,238621824637994
0,240326214202029
0,234126423151662
0,236737323092113
0,237112538446787
0,238545519102828
0,231687894774672
0,235255800653345
0,229154570606663
0,23620991575878
0,232441880963356
0,232778230343285
0,230202021390117
0,231583584813139
0,229075742466975
0,232765818127371
0,225225591865093
0,232732347708707
0,230591247413364
0,230103053920878
0,227759200768643
0,229075459434086
0,229293996064774
0,22768134967198
0,220492468838199
0,225008343516349
0,22854083463118
0,226087598246315
0,227216923809525
0,224471546876392
0,222367919501077
0,22642997452348
0,222989537657225
0,224741865211165
0,220999844637136
0,22307346342405
0,215556590372071
0,219540942558732
0,222087075255083
0,222660484398809
0,221751164227641
0,220227067987308
0,222618835422854
0,221028936599475
0,219382284586835
0,223066970996885
0,21885055906824
0,22223897237283
0,217151406379991
0,220253328352104
0,217267310135086
0,219867640940216
0,219604743259514
0,216247340814014
0,214839751524599
0,216774433261375
0,212256692964624
0,218163967795599
0,213962049789398
0,215919023654328
0,212839648625749
0,215358785074219
0,214042324409736
0,212865304190739
0,211552659833973
0,213596885504809
0,210214396265269
0,213563062399509
0,206629653381467
0,207987531132243
0,206230729128714
0,211155662892089
0,205718629609398
0,210842122122192
0,205742793328928
0,205519239628384
0,206021686668828
0,205720862939162
0,206124744866289
0,208496321552591
0,206059349171382
0,205787153419235
0,201018428264295
0,203256831651548
0,199686653841299
0,205090906297641
0,202196853683418
0,206500371740612
0,204982020030133
0,201690837635643
0,201131993744126
0,200067163364234
0,200643489459891
0,203283143579024
0,202290061528821
0,198308852506518
0,199256306924371
0,20111966447013
0,201120634235956
0,202525392018395
0,19954648429196
0,19922507900263
0,19864442187169
0,201918800127627
0,194156198201182
0,197658448327235
0,197671241075562
0,197384227807959
0,196558414043642
0,197307416865008
0,194337216862862
0,193495796267766
0,196346018282954
0,195782332470868
0,191951155633394
0,189700795412401
0,191702288961321
0,191797265213027
0,188905925397016
0,191347499470379
0,188874370539541
0,191344361401972
0,187440948702919
0,185306992244386
0,184522407372482
0,18745124288008
0,185149528459615
0,187001860856984
0,183413665733048
0,183313925717251
0,181887910558674
0,186923645913402
0,183449349516948
0,180668209868089
0,180948471027149
0,181236882865524
0,179709521285916
0,176530653564496
0,179490676909054
0,178692894847861
0,172878567138889
0,176297448686919
0,173595641010119
0,173951715116429
0,176146719118367
0,174740350390762
0,176996980697762
0,173653007728804
0,17604856649621
0,173503585905748
0,170969590701487
0,172544992662197
0,171550013620779
0,174003842904782
0,173171938880198
0,170533301910591
0,168469260006183
0,17057944402268
0,171297099302739
0,173178510328957
0,170193887785649
0,169446238439994
0,167578931102009
0,166700738935361
0,166229827262595
0,16833803578176
0,168147259222575
0,166023992673231
0,164891627787278
0,163441656570666
0,16377024529849
0,163503870777352
0,160990193946295
0,166434787636532
0,162502832065926
0,163229000781555
0,15965876343093
0,161424134450141
0,159880304805493
0,158971726383515
0,160246395718166
0,160442227063972
0,160728655859061
0,157982196099237
0,157823453925972
0,155318756141064
0,156419971849979
0,155020482561248
0,155603938410333
0,156615915699457
0,154320667874132
0,152332663818675
0,15493612356595
0,155019710074711
0,148649298655523
0,153291823827404
0,151307996945322
0,148582991285126
0,149232480941431
0,151720554286244
0,14884526199438
0,148959382355563
0,149755634098702
0,149105453084943
0,149286920504336
0,148894267933884
0,146950948898734
0,14294426635126
0,146704710584219
0,147361783660426
0,144521772480737
0,145866267247305
0,147776106868436
0,144766432404207
0,148539900246066
0,145519457912399
0,150907983939005
0,145762175507633
0,14514308255938
0,146537834550505
0,149704573661842
0,146176717636998
0,147307434859548
0,148122860525013
0,151812560189865
0,15107355049672
0,150553506303092
0,147657091371394
0,150914238171212
0,151898878077478
0,152841748505488
0,151558011722811
0,153717107561564
0,149712536947007
0,151247639771175
0,145722501442353
0,144439319178167
0,144199605830583
0,157032252555148
0,15441005640469
0,154577715110451
0,144065663815087
0,146835115143792
0,151174291772172
0,14408278580072
0,139483941607263
0,151136455399468
0,134747098055832
0,140370246437943
0,148377929543166
0,147008729213348
0,141994013708524
0,143843946134968
0,143554031928184
0,151123521119608
0,13796568261859
0,149670544333163
0,140546136563931
0,145312978383368
0,134425125200656
0,152037818316073
0,132788393031091
0,154091957381799
0,137090638133837
0,155290528849152
0,12604740858914
0,149082754594479
0,128731165933964
0,158275862155389
0,126926913167273
0,158218368398814
0,117821644557446
0,152887065677559
0,120055420225488
0,153840516282121
0,119593372337969
0,164422632958311
0,123975766381112
0,170461505124379
0,117038203419293
0,161510067066896
0,120528172853639
0,170854254757378
0,120938078659126
0,162204303389378
0,114929444113006
0,160391811010735
0,128832819866368
0,155562269101219
0,130723637823923
0,142205317093506
0,145884071743128
0,127268915202119
0,151401792920593
0,127434600114353
0,163796344401662
0,115769600590376
0,16449346735937
0,113347269098873
0,163403777744384
0,120722595749172
0,150882626241338
0,124868013455459
0,144030528827237
0,127394843526043
0,136093784768087
0,134079421913562
0,132155307812442
0,132074739244195
0,134310179007747
0,126672425721455
0,13457642933948
0,124289278767376
0,138127595951463
0,124571049110395
0,136153734668483
0,124843726475084
0,130811354489346
0,124174177463446
0,131109606563841
0,126484973919904
0,13541363019664
0,12711509459838
0,132034090125785
0,12520611463232
0,130500134104951
0,121791719006279
0,127968689392976
0,127000150326743
0,130600698067962
0,121979262413018
0,130307371490428
0,124222688594654
0,127595471104262
0,121706002207373
0,130395324014061
0,127767335770823
0,130788425019985
0,124297256033651
0,128986889806169
0,12391078798239
0,128251616526847
0,124669585500182
0,134540011596726
0,126117259574329
0,130880680789951
0,125737698846091
0,13040053920334
0,125872385912548
0,131381168068246
0,12648044131481
0,130923547022167
0,125296916522991
0,129334039321229
0,125896984462727
0,130483981373404
0,126314954318302
0,131122029285028
0,124898607316813
0,126412206474357
0,126292496883964
0,131618317539171
0,123850154330505
0,129853319757399
0,124913760769976
0,130070119697804
0,124237792145498
0,130907959440063
0,126438718436105
0,128955220357
0,126335963084912
0,128858577338276
0,125850999311192
0,126821687973454
0,125084250085901
0,129691409849244
0,126348667835029
0,129759810325054
0,124026266229436
0,128917540032308
0,123705373505369
0,128058286828493
0,126255485122843
0,128339133010868
0,125961323821064
0,129440973787357
0,125272772520056
0,126762486166536
0,125997051487633
0,131592521909005
0,12842918906083
0,132360017562493
0,12732105249032
0,132110451406345
0,128486980070382
0,131712715520143
0,128808640330081
0,130001398683984
0,127770260294367
0,130950275024046
0,127618176128492
0,1328407183261
0,128968003704666
0,131944665912123
0,130625790759368
0,13208273054814
0,130119582919615
0,133037827628741
0,129988789961374
0,130108152275583
0,129638460895856
0,133357119899515
0,12999760680838
0,132132314398106
0,128253677735979
0,134648480876783
0,132702761877884
0,134837469664301
0,130869478148256
0,135407053017539
0,133278132917929
0,135211464830791
0,132678008980788
0,136229830412318
0,132619569827499
0,131741744379408
0,129136312492585
0,134478868902174
0,131657492911367
0,135042593293178
0,129965423684255
0,132779227285602
0,132665108231631
0,133442741365285
0,132951743546766
0,136571828530039
0,130173733306848
0,132907165811652
0,132147084126682
0,135216905600236
0,134131565313676
0,136064597962387
0,133355682250153
0,136528823096464
0,133563871901117
0,134526850975863
0,131027283687137
0,136499193009183
0,136004845457013
0,135902057438622
0,133919763598474
0,132621856848373
0,133247448768876
0,138020800413351
0,135084693024908
0,136998498712355
0,13628435535873
0,137304789209674
0,137065981370554
0,140856751906463
0,136501316218564
0,13951896219189
0,137584642889407
0,137614829853421
0,136432513186775
0,139193421198568
0,135553295615655
0,137527159755508
0,134090973848304
0,139300683560853
0,138008141276803
0,139955838833276
0,137787342761066
0,137690541455692
0,138456085406809
0,140203353773679
0,136875955915576
0,137751507164312
0,137760588482554
0,13759318250829
0,137697659558176
0,137775126095985
0,135422297764891
0,13748343883199
0,137133209206749
0,138140987999304
0,133186595915487
0,136769660734263
0,133866905965664
0,136313597426335
0,137062247059972
0,136063147669938
0,131398300270742
0,13485460402151
0,130530356342572
0,132479991184813
0,133248100118541
0,134165303471145
0,133984699531258
0,133651196564055
0,13410518851714
0,133979787414367
0,129968392870944
0,132403239275624
0,131484509871984
0,13281496502773
0,131129430632091
0,132529912075809
0,13202033314016
0,132850421660769
0,131284289478918
0,13260200292129
0,130830856184969
0,131362343993488
0,129146189409632
0,132621731791085
0,132133028745703
0,134430883349555
0,131332349283383
0,129774765022407
0,127287693609175
0,131842734070112
0,131067027149187
0,130718342416772
0,131126116282551
0,131563479202042
0,128243976620013
0,129212672092177
0,128026811552477
0,128736385524656
0,127741260103769
0,131212046977522
0,129857027157843
0,129492171006999
0,126354600619281
0,129023504349016
0,128987430478436
0,130237318131079
0,128477320349042
0,128322875001505
0,125502481593295
0,12856530989257
0,126820943557754
0,128055591329031
0,127246048418998
0,126850150926441
0,126471705553314
0,12836794201089
0,127683096202052
0,127511139377478
0,127291204112797
0,126389580624944
0,12411773567048
0,127222779407933
0,125151499933968
0,127220039207443
0,12528480992434
0,125553056398584
0,124870111879204
0,127160620246484
0,124751735389676
0,124090474640889
0,127089363417945
0,130377895601493
0,127022646013374
0,124570549465017
0,12480999796188
0,124098042361963
0,125397280534071
0,124915330126365
0,124873500557381
0,124824124812775
0,122704410155435
0,122741881334869
0,120839770986251
0,122300771785589
0,122995320201599
0,124142859632399
0,121726130186837
0,121751072088049
0,122407199932335
0,121601181004669
0,120646319674259
0,12071953194322
0,119351356903501
0,121629576167393
0,12069195737012
0,120038510859042
0,121851882689196
0,124672198212184
0,118277714706739
0,121135303246291
0,119263521131001
0,119843345236538
0,118076945149358
0,118845630682104
0,120851614300391
0,121806387737032
0,11801461173989
0,117849591289296
0,116627244348867
0,116393056300173
0,116008212196446
0,11634987320004
0,113584294175257
0,115070791558433
0,112740687810231
0,114258135488085
0,116151962715071
0,114736773701754
0,11330202251003
0,111542184227207
0,111139671485661
0,115532027800336
0,111592491133048
0,118557089525643
0,111952755502345
0,111419721587464
0,110633942367567
0,10936875906689
0,109479855594206
0,108031640901732
0,108104120675995
0,108288801917012
0,106966086666729
0,105859034795879
0,105684749969819
0,104381007221959
0,103432887885819
0,106648058215359
0,104807352840748
0,104278210498705
0,106481776941962
0,105915204803611
0,102356204746661
0,104052765053876
0,105072959839512
0,106508866760966
0,104821489534831
0,101763498721863
0,101948162036375
0,114432361990425
0,120504795577605
0,10602479253915
0,102918687453264
0,105188600150595
0,105948096191057
0,10215150759548
0,10119589374358
0,103366814716007
0,100758818333411
0,0998025443230646
0,100286145772327
0,100120792574693
0,100621729858825
0,0968722055648936
0,0984908626752972
0,101577196188779
0,100208202692559
0,0993906243271807
0,0989811318901983
0,100060434198939
0,0998127214779962
0,0977131191210945
0,0984346001338743
0,100258758120607
0,0965146027559488
0,100484890245988
0,110389904049167
0,103925124391096
0,100346903427293
0,098539086712284
0,0954724916854224
0,0949765026333298
0,0958222039060884
0,0964772450920785
0,0927175412472805
0,0948840123096452
0,0950093649987998
0,0954551699513439
0,0943260524493901
0,0957779759846085
0,0946298757646474
0,0921920702295661
0,09334272617824
0,0937518060820187
0,0906765147153639
0,0905752708931243
0,0933303730509324
0,0912981664150567
0,0932385429877232
0,0978197377127541
0,0957018583943274
0,0918606728403502
0,103438046552343
0,117357627791439
0,100402625858451
0,0936198254976437
0,0913943080383287
0,0911951168221788
0,089367879677927
0,0888256356374918
0,0893675946077232
0,0900020164802936
0,0891469429494774
0,0931834839047452
0,0922985485837746
0,090182948672744
0,0900738526323908
0,0907997699418148
0,0892797869678861
0,0875025043353913
0,0910888562566548
0,0904688215666026
0,0878733979629978
0,0983425242607869
0,111073993245004
0,0992621549623765
0,0934878020920819
0,0914892478647436
0,0954278787610078
0,119263107676725
0,102125891929917
0,0898863430498333
0,0911474811396666
0,0873917605367178
0,0898223026192736
0,0891290628655246
0,0859362921862958
0,0934087959272626
0,0989236962396417
0,0949088900791645
0,0970716643769222
0,0905272267189356
0,087178999445452
0,087015857765977
0,0878555041367734
0,0885252563534055
0,0889612135492798
0,0901250123279296
0,0877110549305732
0,0874068550207202
0,0861720041136514
0,0870270265396549
0,0845668243034697
0,0942463184333881
0,0963337822403193
0,0880400632469239
0,0883573621661277
0,0868530860391469
0,0848074053741091
0,100071978804118
0,108075129900528
0,0925272005835267
0,089923676348433
0,0889635728836203
0,0876373705294167
0,0899316178426848
0,0902108052863769
0,0883189935844289
0,0857186805219214
0,0865211410484888
0,0867159694953586
0,0874547288773245
0,0880330137943697
0,0868895994399089
0,0883981406236207
0,0889428479306661
0,0871942953272386
0,086217057477434
0,086448689429008
0,0875977297063264
0,0938172170095463
0,114461776351882
0,117368021465937
0,109221395144546
0,105032963466452
0,0978753983255374
0,0910449149350333
0,0898144445600944
0,085465128154137
0,0866076881669373
0,0887692342330044
0,08748965000174
0,0879969321537392
0,08972114818615
0,087591214915378
0,0864368456222731
0,0839754285201692
0,0844036266288062
0,0856940189175641
0,0885032916143552
0,0842884909233505
0,087130519826522
0,0852937962612016
0,0876924040741795
0,100620014141015
0,102751197671739
0,0925004513843698
0,0963320923149734
0,12922325140317
0,119158413725602
0,100394139033758
0,0948817087603404
0,0914123692046381
0,086593716977947
0,0879931403592894
0,0913420905489219
0,0976247516331426
0,0911756011900349
0,0890851303546006
0,0894101115402579
0,0907227714384932
0,0870002739385883
0,0871203691473398
0,116923366111492
0,136248174682535
0,108752578422628
0,096185779923072
0,0861236976257527
0,115237426637677
0,126607607763145
0,0977907478238416
0,0948947779756886
0,0955877628644503
0,0920407641220254
0,0917782150669169
0,0882165928798078
0,0920453414061984
0,100229610297047
0,0933098513950159
0,0912477130246886
0,0930222621061915
0,0925072067854357
0,0960853538683258
0,0971444979930088
0,110369716982705
0,107993692118241
0,0969656526043385
0,101571584442011
0,101341926349613
0,0954340417619536
0,0959365090570684
0,0944883325575526
0,0943090723332317
0,115123618591031
0,115056129892995
0,108593357748718
0,119371766457471
0,110198121395896
0,0961397921190226
0,102228657180918
0,116046385948541
0,10960129476732
0,0943718875191819
0,126211315225638
0,128369548978641
0,140573863539517
0,121114181692188
0,108837942841898
0,0976860476784316
0,102939913275536
0,0922660684460447
0,106722072753198
0,120907438232813
0,109100284249674
0,0999403584090881
0,0990943364598777
0,119488267470794
0,121281172266096
0,110171791284893
0,104775731696086
0,105968560961653
0,107082702183508
0,128952522053018
0,105431883112415
0,116683626458326
0,151455364266374
0,1556721238948
0,144580358291549
0,110547383778885
0,122075017677157
0,143219841121868
0,122205471950416
0,111014748651754
0,108304366791662
0,111823293226867
0,103780261458912
0,131286726740643
0,15657422423471
0,122614918415552
0,113520364279331
0,115505930529744
0,126315347954642
0,149898801177122
0,12976112775248
0,113742286268833
0,117072848416887
0,115643258871076
0,127436571572531
0,183997308537615
0,145172277011327
0,160379947643851
0,160195663979223
0,16006340305347
0,143738575478671
0,143481477729724
0,130756686480022
0,161810847943684
0,156924532941891
0,139195222908974
0,123702893623521
0,174703136704028
0,158451928226708
0,147934901074424
0,138053484354511
0,139314466959904
0,142140396649528
0,210343190717247
0,221193803934402
0,19322892586518
0,149388124549805
0,166458549629992
0,181104247391841
0,161634711753145
0,149151261795052
0,154459670369793
0,154012482621428
0,150424541120456
0,158370679834007
0,170947330928855
0,16187624410022
0,170181685479533
0,159190952077734
0,178363096934923
0,207529405091607
0,273392023575884
0,208424226676551
0,206994356135518
0,210804879593484
0,214499758041625
0,192607378467404
0,182979727057382
0,186468460162809
0,195955039432197
0,196358649903798
0,190848917539566
0,198804336972879
0,230977381015318
0,213030281038942
0,25248594496752
0,223753897162199
0,226504041581884
0,212456848444184
0,286744495364493
0,373436706584928
0,279504807416669
0,25427612927884
0,250588742570091
0,303438587315509
0,319096561850805
0,28038411285179
0,260765825478491
0,264800853725025
0,260603479388347
0,283537595486235
0,296250771652031
0,305658153447777
0,323240537444617
0,311675456757203
0,316062379609334
0,359419496499445
0,451490346257141
0,445498888839034
0,363222743039793
0,359119048976451
0,382313342140105
0,384706723497069
0,367234312824249
0,381792939137019
0,375836822950863
0,442640980504708
0,452871080798825
0,434173491093682
0,411349637715938
0,450967727540702
0,459317618117445
0,457864574610912
0,515298275565019
0,497939359324967
0,491082353233249
0,465699326361983
0,495290499825142
0,481930009080754
0,518059324199329
0,544904401618883
0,541436008155869
0,528837518030704
0,53758484979451
0,537197261317461
0,546694238738198
0,555229514750247
0,554804859190458
0,567570422695848
0,636478938687185
0,666732930864707
0,791861958269707
0,622111238000201
0,60337254359216
0,566690790404356
0,615800184037541
0,629789161367156
0,650034230394784
0,673549046264948
0,64011014726084
0,602549245294444
0,601060522040913
0,615678589874851
0,606135085817837
0,615114054949224
0,606375850241414
0,605048549984147
0,652358110337118
0,616557607714707
0,722965207412868
0,690067757198432
0,645237925687357
0,596691242905571
0,614132638695377
0,598862904874144
0,609622094242474
0,580055391636694
0,629202004987826
0,61088678638048
0,606048009985993
0,585061371709358
0,588674699045247
0,618797933713631
0,613646646323973
0,575822059026131
0,57435009315946
0,567161656663832
0,570844552573711
0,534614914225863
0,616163174439189
0,592942728140409
0,571239725228959
0,543324674295937
0,545333144687496
0,526355554672085
0,530739777927869
0,520594007741622
0,544789491865326
0,519286582150992
0,526875669795951
0,521025795289703
0,517799970625816
0,506874128142529
0,508664211214613
0,514090055969353
0,510005422588906
0,503638082884779
0,501594197216348
0,497027437956178
0,503507072309493
0,502820425617757
0,508650355126954
0,496958614900124
0,509198197565655
0,49612763601018
0,49056199616884
0,495085371946393
0,497350056301763
0,494629215112239
0,487928128831406
0,48845138119787
0,491573970068232
0,480463605131631
0,493108274966583
0,486972405837106
0,478606832204494
0,48701225820626
0,483607107787432
0,482579720963709
0,473472526369412
0,482604061674949
0,478502061565589
0,475567770812001
0,578947646273617
0,493510900942997
0,490254720922785
0,459631505266231
0,47853322713793
0,452405868436257
0,481530334294887
0,516049913782997
0,49769463896827
0,462637603764949
0,453979779362937
0,446243472819657
0,484375904973586
0,444864144369722
0,445353532877017
0,435105286129066
0,440784357817763
0,504208939894307
0,536388074847316
0,634415711658292
0,5400117263718
0,464748524266962
0,41210810250184
0,481240927155991
0,452108546985333
0,431708791355485
0,409028986363406
0,410439293513981
0,470415652353615
0,421624480582281
0,4210992286049
0,393350808905383
0,399773956953467
0,453635750002578
0,446303462462014
0,417149691492437
0,460075508422095
0,437620316636879
0,441257032640546
0,472482470180825
0,524998813972514
0,424837983087094
0,379083562597
0,383345733715735
0,364640452997111
0,414643870863192
0,442871709117105
0,38571020611482
0,396308976185985
0,348633170254343
0,364264523582331
0,35465276533098
0,411820781389965
0,35074711922103
0,402823679410799
0,382758203251099
0,352388648521396
0,366048400401106
0,380810544192672
0,442837845739417
0,422784256063708
0,360409266102885
0,330784754210839
0,414852985469322
0,389280979092784
0,364924802159198
0,350762445924154
0,31383839277513
0,35049292206892
0,338707181957374
0,319913208489782
0,357314885016262
0,349073157817947
0,39679285139391
0,415179895410478
0,436872607597465
0,396405392434898
0,326932647347745
0,308415054429909
0,299331459240114
0,318110973116555
0,303764971124787
0,297149301244169
0,371409749349221
0,303419273590008
0,344044230877554
0,356096724389963
0,326340218020394
0,315646931026765
0,314266444268079
0,30716288296587
0,330190482014958
0,372218829851167
0,401065735837912
0,33972190275439
0,372241972234839
0,34769523866393
0,351119591618673
0,332798873485872
0,343148179634426
0,341036153580564
0,356384238414534
0,372190645116804
0,363962246883572
0,364548734503921
0,373293466279495
0,369040751375307
0,453760982562839
0,40737593083695
0,41508422005789
0,451162843597435
0,46376067254502
0,511576347690045
0,444815415907507
0,454795277719813
0,435866830928571
0,448511748425947
0,453220460376901
0,451812263065407
0,509171461538373
0,515132415112998
0,486078757246865
0,487161491438826
0,49412267686954
0,489262715677545
0,502983400650451
0,553845815856964
0,529711631125221
0,657466725875783
0,562535361127724
0,5772680169316
0,519103234031645
0,527528174295399
0,532183966188516
0,534143740505571
0,541287909746521
0,526110124874756
0,547392050937881
0,577433305425892
0,540342648822843
0,559233536688372
0,537433592354742
0,547769040969373
0,542323391322061
0,557500875036538
0,554290199153837
0,556222206995366
0,56859120480768
0,559222974887381
0,592542829087667
0,691134033836527
0,608439903849113
0,597942820040405
0,586118609696
0,616034785024041
0,585560588539391
0,610987716401066
0,633844904917115
0,635212734881023
0,61324925045604
0,614982364409527
0,623266062647731
0,617156846690027
0,653798024572873
0,672635685679342
0,634687955155487
0,656342253743067
0,621874150394902
0,765779976409437
0,67394342916122
0,707719800279724
0,672403160325895
0,680789164611394
0,654768569107833
0,667321653517621
0,655791999879238
0,668913658638322
0,67351916548021
0,668509115626403
0,668789760193811
0,671119381974975
0,678251079690923
0,675135250073983
0,684920073064784
0,717909478591994
0,671278967110974
0,67700751273308
0,669377443552972
0,667095476489628
0,667777697749545
0,729089277463498
0,690073321674587
0,697155817941002
0,674053356656599
0,699214656963004
0,713061273483954
0,697593241116926
0,665364019216344
0,684019788190893
0,66124795283325
0,682954999945752
0,656938792708537
0,708617895671993
0,721643264575036
0,703626770836659
0,68961736633418
0,688931017899961
0,682444421435578
0,697521631065685
0,682695981650243
0,70046126788665
0,699303231095503
0,708561604289605
0,719025493323117
0,712664364448743
0,718821254534805
0,7337172642281
0,753617204557221
0,738280158057531
0,716343010434685
0,721655292491621
0,705050424432047
0,72589026127975
0,718571924918872
0,712115282796601
0,696674754386331
0,701340068131632
0,679333243281649
0,71735769034238
0,722611932950005
0,698262022707585
0,69464121065235
0,670194491522266
0,668995615274179
0,665683912595131
0,662169774018264
0,650809484060541
0,653574515716058
0,653354939931066
0,639721906629138
0,641449491504996
0,636480735574826
0,634546820072822
0,629125498158827
0,638840770095266
0,627030244294325
0,63587204865161
0,62792441355297
0,629547597205265
0,625529956028189
0,623776901617291
0,622874670720218
0,624336324597873
0,649324766508231
0,652010933063898
0,649402849931943
0,625895902529993
0,641154691984208
0,628866597306298
0,627307922715023
0,615169476315718
0,62243011274862
0,619550893735649
0,61607196021244
0,624935398972079
0,616252234396533
0,620766634359903
0,613735472058381
0,616834564259685
0,614658550250551
0,622076947115765
0,60982418399604
0,616706966533435
0,603047551394302
0,616012935591805
0,610291534663545
0,629161216358928
0,608387432921475
0,615915297313357
0,612643390556756
0,612133035395354
0,609261348721086
0,617920234019602
0,621649246825057
0,609982267475289
0,605772719233978
0,60809906258713
0,604755862773414
0,613611089755889
0,610011834110632
0,612806232117658
0,601123491641614
0,604345151329582
0,599045169908459
0,602412581039498
0,595591673639699
0,60052601210592
0,588341909646317
0,583747566590169
0,572948489637202
0,57961418800771
0,571511678800691
0,571043656146852
0,559322564700834
0,565121733704223
0,555705363503779
0,555351300859926
0,54702877348078
0,554565212854625
0,548336371920596
0,547941473532886
0,539214856616091
0,54180578814211
0,539351844987154
0,539427776201836
0,533289974313164
0,533601937093356
0,531922623521759
0,536540197858438
0,525229163978319
0,5353160882562
0,532331239406252
0,534635117868799
0,535538879676134
0,533959498897755
0,533559255256382
0,544087475820775
0,542363524811848
0,543651814545909
0,540808815452563
0,546722397841518
0,546100436197263
0,554495955049149
0,554426218145096
0,555607993495412
0,55267084819023
0,558785200852113
0,555244814904746
0,562952694229956
0,569645529805368
0,565516283403789
0,561407082861627
0,559587362756328
0,562929847568598
0,55901795382885
0,564694373201554
0,566001516917145
0,560617756285685
0,558916658895607
0,556355835072785
0,554584233722768
0,5538895143261
0,553972486329203
0,5503717370637
0,554712957346297
0,549488078004422
0,550201792647045
0,542037734337053
0,543540874682604
0,540183438638017
0,537108573355988
0,53878577614109
0,536380345164716
0,53081357719907
0,532894880811138
0,52906536432079
0,529100452722269
0,527722286614424
0,528036513797877
0,52212166181216
0,521135019426875
0,520004103675685
0,518883026282215
0,515104780454932
0,51327289799972
0,516125962909476
0,515262092065485
0,508165515934586
0,513703548288997
0,506200812404106
0,504080911027318
0,502280339266094
0,501965074997145
0,494642888017068
0,496499469749278
0,486579852055305
0,48748672378458
0,484124970554051
0,483250653608572
0,475389612906524
0,476050044031105
0,471203969823249
0,470082310112688
0,464651840857029
0,461349847567674
0,456194164764757
0,457494486613153
0,454354739532823
0,452694609166169
0,450323952004047
0,450371615747499
0,4495485824242
0,452631159872626
0,447157403981481
0,444638270817299
0,439515074687015
0,443259976465138
0,43812981635549
0,438071794274307
0,431217007612228
0,428740135989364
0,42359407046048
0,41859339693137
0,407926756784992
0,405872139764679
0,401268857285222
0,393142501181754
0,390703962716859
0,390634717389386
0,387260253550469
0,386804174363369
0,390431331791883
0,39510927140696
0,400517233197311
0,404635929733553
0,410779504246845
0,421642012613772
0,430886337245549
0,445628274747484
0,461038783748333
0,475842625063262
0,490249634896606
0,509283798707011
0,526801882232559
0,545000391698427
0,561943680347208
0,582822879774703
0,597569930856047
0,618650792438271
0,632480441844782
0,653742094797677
0,668549036363349
0,689901759447838
0,711571992644705
0,729115499346081
0,744687314055057
0,760413687461012
0,769896117781467
0,796265664092752
0,807960584552039
0,82023620653311
0,826133519667095
0,848511915136088
0,854028674667223
0,858746492002337
0,862303289414734
0,878562898567685
0,882230954481148
0,878000897101638
0,88060464560885
0,886221779805936
0,897524258153772
0,890442240786616
0,89236402014927
0,890016820230132
0,892311860343512
0,887682440492614
0,879380287487409
0,890923131382787
0,891553417796368
0,897551689892537
0,890346804110425
0,895248800936442
0,901436457427969
0,905497352583016
0,903596817625461
0,923384878216473
0,91477790803576
0,926313318200219
0,935384516085222
0,947155144534516
0,952206444596033
0,967711898422782
0,962250862925484
0,988021557348522
0,999777296407802
1,0255978838453
1,03060771256445
1,03989131622595
1,05375398099483
1,07673178769531
1,08012057071696
1,08627298680799
1,10037446881607
1,09383967133193
1,0964298026395
1,1155557090376
1,09901960527154
1,10354897305211
1,09002117746189
1,08197477452449
1,09086061694686
1,08613137265662
1,0809431420537
1,08395596133606
1,09190906733673
1,09085675834304
1,09277230917749
1,09950953743725
1,11605954953677
1,12733786205358
1,1467434694554
1,1733516386523
1,16955712391312
1,1954389790565
1,18273854964104
1,21574180225567
1,24611739486972
1,23673032785462
1,26026134102521
1,28033305446167
1,28569072624294
1,31751801771275
1,31801114766595
1,32910441649227
1,39036193299539
1,38312325080252
1,38960239152458
1,41819983677263
1,45551247073663
1,48960961991472
1,53828129644189
1,57043170640251
1,59846237037029
1,58781928339747
1,58963771398722
1,62223318014759
1,6375391286044
1,67623023005639
1,72613367690408
1,78607695545157
1,73015192968543
1,75799520797134
1,80026211654632
1,72626190726952
1,81326398049237
1,79393120995371
1,8317441750761
1,8551665077436
1,78700076675499
1,81892779062309
1,86747485810363
1,71404027915825
1,76455478426864
1,73481354226124
1,83887888573789
1,83266319046146
1,81540344641043
1,75187376123906
1,79156769033003
1,78465600123692
1,87048353432618
1,85833919541413
1,924447295057
1,97220547103108
1,92729029867642
1,86756440223588
2,04273509900596
1,9786275057226
2,05245429351522
1,96595258780449
1,95443981178996
2,04013169868903
2,13685393786727
2,05092719461859
2,15392535566565
2,14530478710868
2,18768135963288
1,96576356110488
2,19545275215641
2,15579109893585
2,22536139557612
2,92968806534542
2,57179341649722
1,98432078748106
2,30829333505627
2,10408806686958
2,30116239965587
2,2912852512012
2,52508618538501
2,76143681822154
2,20819605132278
2,33725396927839
2,17134884328886
2,17753550270217
2,3757229760749
2,32647292827517
2,47915844460252
2,18092279161976
2,29622653155153
2,35939265996008
2,22216223817095
2,2803940924768
2,21691677365512
2,16191468985659
2,44224768305437
2,0702915175407
2,17265441956518
2,02052158224967
2,1492705337073
2,00499690398838
2,03572255448981
1,92717195576478
1,8825308418052
1,77947853862689
1,93411220831805
1,87731641104152
1,81777348504345
1,8465608317756
1,83991905119431
1,66183911590443
1,85475118799759
1,81174365108095
1,75113209141336
1,74397466749214
1,67496177345504
1,73487546031184
1,6706038827983
1,64865484407686
1,69818396616712
1,60922711853505
1,66794056740925
1,5599376399864
1,55547805615775
1,53867755784245
1,48615761651655
1,50269218355999
1,37990670824389
1,400732625962
1,38806985952349
1,28992949624609
1,27659630375873
1,26545657618174
1,21501416527662
1,14955168428438
1,11760859688098
1,04794277292233
1,02211334215707
0,96720655205929
0,929922400144216
0,897107825823547
0,870986725932001
0,83890779099638
0,802704637952834
0,772630052580738
0,749357103315767
0,724154272122465
0,714771209961982
0,701312260676001
0,673031672247047
0,663710927591923
0,660709069079042
0,641551055952459
0,639730210577433
0,632035524810566
0,625910349801848
0,622591253159144
0,625175784103499
0,617670128032876
0,614032600357468
0,614620378445319
0,616317018516088
0,625411129640437
0,630665333310767
0,61802132693133
0,623400185889356
0,620616246884622
0,623670423759755
0,625418918772801
0,620992999345692
0,611311141143156
0,623260042078853
0,606088668226571
0,599161608265969
0,597367082535181
0,601014971841037
0,598582232590671
0,58670532557682
0,588068641291069
0,576502179392652
0,576080902802808
0,576209675755578
0,57768983391752
0,585524968427384
0,579176951082266
0,583253031084479
0,587194269061724
0,59926884497264
0,595672592442748
0,602597150107464
0,609114765114781
0,600289304870899
0,600754787775524
0,610867716113174
0,607925935969487
0,61138905462732
0,611975721585625
0,621466595916982
0,617380514994418
0,616339213862154
0,613569091946416
0,616808966075644
0,609814877265491
0,618205063470842
0,622757927130002
0,625647371806095
0,617386226784592
0,62488200803512
0,630598466611801
0,634234313011734
0,639683412795895
0,65260696435545
0,657304643112963
0,653404728709741
0,678929843657582
0,690027631387938
0,695475784399179
0,726223811178485
0,737586349352581
0,75361024016891
0,762938214078804
0,776031487452234
0,796988263349108
0,800859183627381
0,775219922266258
0,787709625727786
0,781239094054825
0,795134139521343
0,76968444542902
0,767219229562164
0,742258551966654
0,725191633649815
0,732731183281399
0,736775995526483
0,717653768401339
0,729589941855412
0,725583002271855
0,732662390957529
0,72195003513963
0,735196848975974
0,722862830536811
0,745287368914138
0,70824664483789
0,730475047470586
0,73396615595964
0,727873596543997
0,708937882219224
0,694565654919682
0,713462064990232
0,700811585827693
0,691119245410868
0,700746515100156
0,698803303338485
0,677792254249134
0,67106255454337
0,682217838929453
0,676161422813211
0,665451276200135
0,668261170784042
0,673892572374292
0,689298131583148
0,669527436156328
0,67189590981803
0,680746567477284
0,663344827521966
0,66354789095351
0,660098817126284
0,659605596858669
0,642957442006762
0,65681415577757
0,64276927852754
0,65114150520398
0,645752299252267
0,644470260568731
0,62753205118252
0,657713281816667
0,664582462538764
0,6322220097664
0,631527487775873
0,641706945103237
0,626787591259186
0,637583335010389
0,627453719417002
0,638264201957264
0,623587026239763
0,621964623604506
0,625317478517295
0,616013892248382
0,607216007647456
0,630853243124097
0,600581593180531
0,606027973704982
0,607582630886198
0,633799291338971
0,612187061053414
0,601644828503515
0,619096101888324
0,646467635008138
0,648815950176675
0,639453376945827
0,616940534280289
0,636464785532657
0,630502884921662
0,626018454522282
0,631433208245625
0,659869048103622
0,623588030766748
0,614141267211486
0,625590868710109
0,631361618583747
0,625351801372364
0,662800363929096
0,627318858078888
0,665109701886097
0,657470111994541
0,684608910129231
0,701689487484851
0,68941561471346
0,68433607061762
0,707361161664005
0,681431694092524
0,690435735306546
0,698555609469933
0,727205243402628
0,749234723006677
0,741283779886951
0,732583953394326
0,780071240894655
0,769200175330088
0,814796423157177
0,838155334731622
0,852883413042903
0,884544778237097
0,920634275162973
0,887537073470309
0,937688153023632
0,883226364369731
0,973027504688766
0,960750840306834
0,975390283596803
0,950825753143038
0,964502184888793
0,988163970717717
0,956917084034974
0,938834670059711
0,995662232563731
0,948092164759892
0,974026366029595
0,997625969808532
1,06712434971125
0,952298569037237
1,00313436591909
0,928776319129452
0,979888457687929
0,951198551282634
0,911711777322695
0,906259490156155
0,991223762656248
0,975961263164083
1,01081267715123
0,925691915982477
0,946533271352261
0,983639670086683
1,02223394566633
0,958065022177807
0,951714348665628
1,00217482874371
1,06795574019179
0,918661959610509
0,988158401138338
0,936809820311259
0,960785061411162
0,900064614702002
0,915348532531955
0,915546710461118
0,927652237131419
0,875499700628748
0,902881519965917
0,931162463550288
0,836122450982507
0,931494258537477
0,972549423951339
0,916263499710727
0,978272055292021
0,959776107733187
1,01917509431475
0,927955634867643
0,942381230120664
0,943339161783823
1,02549866708349
0,961721520680252
0,96752903274372
0,892624598236495
1,0161120398589
0,99193800133409
0,951242303853494
0,935236803127865
1,00800802247588
0,878958881850536
0,893529518018131
0,993848470760007
0,991679078061009
0,893942597158821
0,946009523112548
0,881502989445849
1,05607842961226
1,06653499432006
1,04886942480105
1,06320621047233
0,961970659625468
0,982738732265823
1,10657994324004
0,889517819551857
1,02983635447456
1,05792423263493
1,03072366016338
1,23750224568483
1,083797751482
1,0360123764104
1,30034296974589
1,17786331614903
1,25747824651523
1,072091277646
1,07690883434447
1,26342692021086
1,17349935680484
1,09058464073667
1,55960589539206
1,38515139107251
1,53192478829927
1,16781075842789
1,26120836422174
1,38720934619399
1,36899827039331
1,39599192048693
1,21241799094718
1,2489211961699
1,43728689436944
1,08016887313958
1,29702612350557
1,27885411382974
1,13699592481747
1,18982174834251
1,04849728539367
0,996404636326307
1,18559888654865
1,09039373499497
1,34392871338617
1,17245475973552
1,38003252976234
1,2549927230404
2,39223607180138
2,37844914581887
1,20141377575435
1,21672244986043
1,05768970641825
0,93520820299893
1,18242911707791
1,70437333499037
5
1,22541257506926
1,22330466974999
1,01631652478812
0,970449830350474
0,698547201882859
0,824276924842525
5
1,53576309298712
0,925065585846412
1,70335814643481
1,14144366723736
1,19356106038682
0,848229125029047
0,917387476100537
1,6069671637857
1,0158397654254
1,13121047812119
5
1,25545269690391
0,853979091607215
1,47428051774023
5
5
5
5
