3596
4000,36533379555
650,420452594757
1
2
2
0,0930328223244254
0,0870220629068003
0,0857407079647201
0,0917771134339512
0,095047418967616
0,0972966868034475
0,0943646731024978
0,0937250893376925
0,0993766208747063
0,0997979999587758
0,0990138070074571
0,0921005720806626
0,0876917247716314
0,0866297043346422
0,0951030556026659
0,0902801830240255
0,0897929560855269
0,087460290390583
0,0957812458564933
0,0838281317577841
0,0911527243425961
0,0876790785149739
0,0877962780657051
0,0833620086613781
0,0946979925025183
0,0948276349400935
0,0918786958569904
0,0906039121124526
0,0968143836213121
0,092201383154463
0,0942618722788498
0,0931750196310866
0,0961506648732041
0,0938806364560031
0,0889717782010102
0,0964537427227583
0,0892694804928787
0,0879456235673745
0,089810019913007
0,0940880642560206
0,101425439353151
0,092731473650037
0,0948490807428497
0,0901180684536749
0,092544126657047
0,0986791970183249
0,0980265437440905
0,0916670487115607
0,0960685562814935
0,0974867671381514
0,0949067947224175
0,0916665831067225
0,107964441331434
0,103125443023963
0,104737880895436
0,114376151139726
0,0968574959241729
0,0901497621392438
0,0901454725461067
0,105513019786729
0,118628714667453
0,115529535303905
0,0924634555837914
0,0837378759813611
0,0923131813006573
0,0833626314279401
0,0864555848956894
0,0796610985523915
0,0961190759491457
0,103474529375283
0,10245663000778
0,118356303565128
0,10943271166053
0,0951574455805147
0,102805090364277
0,0897032024977761
0,0892856486552719
0,0840826575588789
0,0942861085338984
0,102502734472944
0,11184165298867
0,101618100691781
0,0963082860385142
0,0807451973280301
0,108676000131117
0,108163880068936
0,0832562628782947
0,10331378391544
0,119614342088329
0,101233703316816
0,0909168578323937
0,0872714956012239
0,0898290662219411
0,0794644047368506
0,0884616373606863
0,0903961460280773
0,0836473032138665
0,0872983717552761
0,0900900856631734
0,10565349693482
0,108527741397937
0,131178346448019
0,129432508491752
0,126341847406003
0,160054885831298
0,112254348324162
0,113745002750153
0,141413402113365
0,116484738881139
0,0938213676424441
0,0845805343386959
0,0860807963163833
0,0970169986672176
0,0995785513712484
0,0899419899400772
0,133999440604508
0,126696601776082
0,101099056935146
0,0954024809914989
0,0840852537210217
0,0855304909721041
0,139104706261021
0,137045651351752
0,098482495084158
0,107375105753909
0,0949339438845819
0,0946051571539826
0,150072227482349
0,120262518807495
0,0942769962931764
0,0898237572717488
0,0857928387857527
0,074206259892653
0,107546003688273
0,130556077054719
0,105818286743145
0,0928222940020967
0,0972253656423642
0,142664475037636
0,154966873137123
0,112694093540286
0,0928317720089307
0,0828636887473446
0,108830345147868
0,145362627905512
0,0996265488359678
0,101742334357224
0,130227749112473
0,110272733640731
0,0854833092460819
0,0785944997952217
0,0915395311664786
0,107821866892989
0,104464907546479
0,0833015488804365
0,150666865803047
0,159363797293248
0,158466629732866
0,163418553237047
0,0944722960109109
0,0957516163893404
0,0894441059655688
0,0882343117097315
0,0893367533503416
0,083784617575473
0,0827507972863474
0,109254473490638
0,12714429344298
0,0948261459144244
0,103849575785176
0,138852413966276
0,11796520712824
0,10655163898725
0,163880382756408
0,106612474349101
0,0979837456579754
0,125743724712211
0,10975325790002
0,0839287481241798
0,116613237441077
0,11488505924744
0,0964307066951662
0,0862304756497409
0,0836247354367364
0,100221641303786
0,116309270572262
0,094204242749103
0,0917071727225459
0,0928051580116329
0,0940553995538277
0,127960244246641
0,159724401240841
0,12455330169689
0,0990828193506007
0,0902773022413965
0,0787727696519055
0,135932091020023
0,117887163086739
0,0889373032164295
0,0877239868725633
0,0803238088321699
0,0806280243713055
0,0757355868715473
0,0886329592342466
0,0788704297477849
0,0918275372591047
0,138586226282972
0,113768138058305
0,090388451165115
0,0837585095123893
0,092695346972795
0,107357085224716
0,166141994971178
0,129249834855941
0,0872271019255584
0,0925517224775705
0,0962945156166693
0,12130507627547
0,105225749798576
0,0894170788583648
0,0851805060595575
0,0821752751175426
0,0841755149115008
0,0795129911168241
0,0756438091747613
0,0867925190987772
0,0815572026308575
0,0842548680103925
0,086177307891233
0,0944328461141888
0,109435573940727
0,0864597407587348
0,0855397872806459
0,0837439333096091
0,0812362545961085
0,109796600109861
0,110282012357908
0,0963637436410688
0,0878602725743865
0,0817788184556504
0,0833412851878012
0,0856431712637955
0,0843363815014908
0,0832720476509313
0,085025610719148
0,0988213450608355
0,127186066562975
0,101940658230935
0,092486786124206
0,0836786242680191
0,119199120795309
0,108535889041105
0,0848024557144155
0,0797349936258929
0,0885719101731324
0,0700167837234603
0,102036841822087
0,13841300715734
0,1054654985331
0,0892942451258445
0,11829983862127
0,100591336658904
0,0919948613475866
0,0931886926193517
0,100500766277705
0,184477432349312
0,123255960146892
0,0989937682846323
0,176560069124666
0,121522825366994
0,111672930803665
0,098708355820899
0,0935459722735623
0,252134112748884
0,159584011232961
0,100174278811311
0,111849766120073
0,122873755746113
0,0941479379537456
0,112632117711633
0,112982250857174
0,119616864008041
0,140316760953117
0,189178343072734
0,164433249901953
0,0901651575725098
0,15138782709487
0,125905547859945
0,0977301437420158
0,0894418708723939
0,0937588257028863
0,0980460861800501
0,121792746033922
0,114236221496833
0,124077898684395
0,101674209057734
0,113772713563328
0,136349624769365
0,109050257624285
0,0954454821326644
0,119406864742313
0,112401421587264
0,0871002219604706
0,0927543923489758
0,0904511138147811
0,11531241866483
0,0961443946441705
0,104628058587248
0,173062788534766
0,122163701210864
0,123297045015282
0,133964189356518
0,0977816604598663
0,0912344645128844
0,088295605454756
0,0914003814427887
0,0867913567980644
0,0890692430123878
0,0921761707360737
0,136472247045777
0,106332357084821
0,0936707633125901
0,0873282992778928
0,0938535247461198
0,096597973319379
0,0933983305796078
0,0928566717816991
0,100519194205827
0,102095934559475
0,0907251586647278
0,139749579361549
0,147132932416025
0,0969704010031645
0,162337902823867
0,13379357706214
0,107365556503978
0,100707737073382
0,105059811856056
0,101648047878296
0,101635622615869
0,0976599800266148
0,0991888539929013
0,111759980671957
0,13055394810444
0,120536919038444
0,12143788812867
0,134099255821566
0,215831217295219
0,201500228297567
0,136173820359576
0,120905634854801
0,103838091398183
0,175620253536026
0,161126262677583
0,167254323932759
0,148882559881013
0,1144551167498
0,122592786943035
0,115325838211421
0,121089277864249
0,109332717890917
0,121766570008747
0,119004787085623
0,135764178889256
0,116499276378598
0,13192061531693
0,116824466469223
0,164927348252148
0,182943901497185
0,141748220238137
0,139298125874924
0,139638891240531
0,135585684324203
0,207883842038321
0,182486510505412
0,241679566474761
0,186559759694868
0,222411121585279
0,213441597431536
0,159219791790335
0,150900375136098
0,149150499829674
0,160838246210657
0,163091865868298
0,157129979937041
0,150329756228502
0,160423123761841
0,164609845374969
0,165559902505522
0,159473965736382
0,165014668976024
0,182701006223391
0,203378252192063
0,177632940591264
0,190259432973825
0,18549463447458
0,229654716754659
0,25546759846973
0,2610045668244
0,204450768637079
0,211764412976025
0,195408041937037
0,190098550814006
0,195617821647567
0,205187265922298
0,20147010624264
0,220912926667641
0,266812975645275
0,236798727165524
0,262666787061626
0,221655799276231
0,211675809636311
0,25756563399135
0,23688504786071
0,245360411016485
0,259273767516752
0,236684801429028
0,220317335311751
0,27829768024094
0,260925350271349
0,264108308850598
0,273303917038136
0,240816509967864
0,248755461136383
0,242247051965243
0,261779258389841
0,250663178858747
0,27608556769038
0,260175095545392
0,268613742824263
0,273044304860455
0,273405108659417
0,270153946287184
0,298199245879351
0,276922174375673
0,304876392697007
0,292973840868073
0,2785968542801
0,28151441962855
0,280190687006147
0,340420458911623
0,330580558158796
0,348308695094325
0,346328900082228
0,299701419057981
0,325454716184498
0,305151953683637
0,312318337060981
0,309729631090918
0,327812337020621
0,319253929356167
0,339516618474978
0,325624915161825
0,343457907421897
0,324196760440001
0,34995608819475
0,335558143288332
0,344742977755693
0,336689063310326
0,355333608390721
0,375229036992382
0,365328236507456
0,409860668829654
0,419394037111551
0,441006000041515
0,431413687012238
0,368716316192858
0,401017051639179
0,359031511072021
0,37706433229675
0,379607147713896
0,417522594363303
0,396599950098656
0,421188683373833
0,39709887907353
0,427848726867975
0,395347733815587
0,430332976457511
0,424653402898056
0,462950123089063
0,441556122931376
0,456342671971593
0,44305458728424
0,456279268600008
0,456168389765742
0,479795844377023
0,459772923097374
0,503900449242528
0,459381517251157
0,485120556388111
0,448538455165514
0,48868066341698
0,476444630352514
0,491329018160198
0,501302648295596
0,483499179292695
0,496509556344997
0,518667361968234
0,509815050521088
0,536367763468251
0,513924905230282
0,505874298864699
0,509382435988648
0,533600292002227
0,518621606040911
0,570676356948981
0,520750086107906
0,550191298364652
0,552428106018266
0,582848573231696
0,552045539120037
0,604203687910685
0,556906537151039
0,584210087708398
0,555540752140016
0,595816728862898
0,569440655916247
0,610023585574851
0,588859397164561
0,589588224606939
0,600652051668717
0,611838420076474
0,607302101943338
0,643630566468515
0,611455849227338
0,63191419378116
0,610879097774168
0,631786286349168
0,635082767951867
0,624404537199736
0,609419672389003
0,634908335358299
0,64470281534614
0,672564426663171
0,650656553616526
0,688131164040049
0,639930657154906
0,71609407609186
0,663728292500698
0,727448499985891
0,680822471611333
0,69752238827531
0,684324742508463
0,734073019931194
0,668723448726567
0,734381589620662
0,709845458688802
0,723584956195401
0,733843210187161
0,743048182298938
0,722418132937322
0,741871320101857
0,718113449830721
0,758815635076971
0,723177806114846
0,793263039424031
0,718945439685306
0,77562631684313
0,740757909345202
0,810857471587854
0,752139986490472
0,833000896730303
0,806687577679981
0,806879461738546
0,756041078756288
0,819971582965394
0,744151413011826
0,811212537234877
0,756875321641208
0,807111644226599
0,81592122873421
0,882375980140329
0,789866297015488
0,90938056518599
0,817715631288022
0,850040351548242
0,800161653194564
0,885153078861997
0,842065579067001
0,865475431814758
0,82731277030779
0,904894286208653
0,868018922636854
0,945548660178121
0,859006210974081
0,92304525388438
0,886287371621631
0,920896266750266
0,851795917981328
0,962183600325848
0,875785377119725
0,934525362063074
0,889258679268648
0,958474514887913
0,890788252525875
0,979229491474835
0,894998887459097
0,935720519571991
0,918189914206676
0,957550269946446
0,910003684523845
0,98166075531793
0,867754476468525
0,899771925106016
0,945352652775482
0,923583699421024
0,946819926607518
1,04314188279895
0,9532552814828
1,01020588522077
0,906970028649599
1,00735963129699
0,963290348762378
1,07153691765986
0,97604919934177
1,0694297154611
0,983506325696295
1,0542400461933
1,00048675270551
1,03779951143897
1,02365632805662
1,05172364297473
0,978753117830416
1,09314333098117
1,01142779626835
1,04965096989298
1,02076615459801
1,02943040619423
0,999322819414894
1,04229179616326
1,00141410627768
1,03247753576233
1,03159174752824
1,08355951036717
1,08153908456704
1,11376701586576
1,06146994547493
1,06392462827466
1,03986676745684
1,07205450093957
1,01183524667689
1,10016185185612
1,02765348274104
1,07729905314784
1,07529719720295
1,11849407934287
1,06891049859132
1,11897193505882
1,09037667090099
1,17899837449123
1,11433381951495
1,12994093155592
1,10292436722939
1,16518344385787
1,11199443812272
1,18958492479547
1,05518875098559
1,26371369487641
1,17198549467569
1,25717311610003
1,10706881937762
1,15795655300126
1,15350619891834
1,22817887217686
1,11652798898017
1,13377431615595
1,12760191136855
1,19041931453146
1,18565861324243
1,12524948643941
1,18104317629978
1,25209472878739
1,13545583276135
1,19090519833789
1,0992934448067
1,08806663495147
1,12612863518623
1,23352391171429
1,15238518662503
1,17676274917497
1,18391534236517
1,27974086674684
1,19819531916808
1,23681770852693
1,10078551245916
1,17319087564818
1,1657893515903
1,30093114192356
1,19220201785596
1,29990851794205
1,18385213030876
1,22711791495018
1,1672132227244
1,20425956918659
1,17237564264785
1,2034972636686
1,14489613673704
1,22865233044265
1,19063951851496
1,21999827597453
1,2171997677866
1,30776853473058
1,14115628387329
1,19686957503121
1,15822062942798
1,28347198667761
1,18135286360691
1,17227610117822
1,20454120186361
1,22118790814589
1,17213373480232
1,29272993008558
1,20199083751898
1,18973683571638
1,23653555042381
1,23122822149088
1,20776758539747
1,24420791883064
1,13840903299865
1,27374121054828
1,19036325277944
1,20365858055531
1,15637255537361
1,31801996648133
1,20677455661199
1,22358681818231
1,16065930349761
1,21437104390677
1,15673730545155
1,23717330660768
1,20076289567981
1,22596815688813
1,19727061234451
1,27708716368403
1,18004831538267
1,17171703269175
1,16692551752591
1,23373884159059
1,22371381123061
1,2256335567993
1,1767179859331
1,31093662540559
1,28053913753186
1,21271440836647
1,18463824958988
1,26209917304557
1,22848481455192
1,21164654941257
1,19289764021225
1,22431574836568
1,19771529850614
1,18317852865491
1,12871581099824
1,21880328759446
1,19839297343615
1,21443175029219
1,18728614770751
1,22316176733845
1,1994302863779
1,25115395650927
1,17425889135813
1,22504852768044
1,17591385554327
1,26700993486709
1,19370034439042
1,21378205721366
1,21338037117517
1,21563131890337
1,20641977872558
1,26222289295222
1,18105458269119
1,21674002077959
1,22603384843954
1,14979010647998
1,12031180653431
1,21770205666505
1,15742872339794
1,20181187093845
1,19134833588103
1,17147899827268
1,18636516957
1,21995573145267
1,18556009256573
1,24729278106902
1,22451844255282
1,20270654651081
1,13662103998825
1,26469123603057
1,18684981461811
1,20522357297018
1,15179414013762
1,25555160861077
1,15113715371333
1,17763079089764
1,12608397874885
1,21448494338293
1,14506486397926
1,10132254821018
1,1225312862679
1,18497147049892
1,13520192503552
1,11811666562472
1,1455593744687
1,20670798956527
1,15426020491623
1,14778486796069
1,09215987007825
1,14119046415585
1,12462082098874
1,16992708470177
1,1664609651114
1,11146497679357
1,09723435665978
1,13394979420234
1,13638413367783
1,1191275138247
1,08780265569812
1,11066527614135
1,09857702875146
1,12084772846446
1,07071863114471
1,14430249680334
1,08071566759621
1,10289293674457
1,0769565885139
1,08866944240217
1,06299039166925
1,13340078605139
1,13744339418332
1,07888115946963
1,07260712490431
1,09123564958053
1,096049637447
1,09134351917909
1,06007971255432
1,11057269391669
1,08085446316439
1,04514048732351
1,0407203143267
1,04592566635258
1,02860472050297
1,06088926135763
1,06781963803494
1,06596544161936
1,0241423372089
1,01717917291165
0,983685500789438
1,03956056907102
1,02021554932379
1,00997826692471
1,03373494715606
1,03260127773894
0,979902797652816
1,01548195917921
0,988343262853372
1,02275689891104
0,997425892922227
0,993182951213009
0,985633858155833
0,995784205635793
0,978892302401257
0,987109736806032
0,986777240923492
1,00167705315392
0,959998043532702
1,02050958867082
0,960782974272014
0,968925982466122
0,936641915254607
0,924842090218754
0,9420659883432
0,951273248690422
0,929166581575617
0,93970230709701
0,910775153422162
0,923610363831451
0,937958462276589
0,942445130739032
0,905849876994519
0,914906068702992
0,90663415510158
0,907844023198969
0,890990694350183
0,913985068714547
0,885140550428436
0,893753686810273
0,896165910131694
0,866279924194746
0,871213836444421
0,860698567919492
0,86741664836996
0,87421989664761
0,856591553268584
0,866380436857037
0,851885819667323
0,85823425834744
0,855362625218606
0,843324186647568
0,82344851238738
0,837704623277174
0,846761320775817
0,835626021027005
0,8015756232012
0,824526029516707
0,820218946879633
0,822093460465547
0,815781571948796
0,825809397294494
0,789356515265822
0,796179388453902
0,792776884988226
0,774690343004944
0,787226606264063
0,789602197470299
0,772854642314071
0,783096503155733
0,757969991144969
0,77496891197562
0,767998466259309
0,756235940307718
0,761852901843563
0,767838224050324
0,746627796916877
0,757868258832206
0,745995142974782
0,730353063875229
0,725895420230531
0,741737216984643
0,728336111495947
0,726326273523541
0,725002977427075
0,71403292434484
0,714755999834705
0,71346270613283
0,713761328148248
0,718259457460007
0,702531815147105
0,704856604563296
0,701260144501895
0,689007783802062
0,683924066200769
0,678796135493645
0,678606885068647
0,676380600142643
0,665367218379164
0,676242682829348
0,664146426804441
0,66296019939271
0,665166249092763
0,670606488013108
0,663605072661146
0,663169881451986
0,658601722292024
0,645473181262397
0,640781174950338
0,647740575008303
0,640349244587104
0,638895424228146
0,628697984609658
0,625396331521103
0,618230579688012
0,628835138445579
0,630289198922553
0,615982776329983
0,602476708298379
0,620962328619756
0,616289342298178
0,598721466221797
0,595015768902218
0,598130174412716
0,603750958235703
0,589473102305115
0,588593614953668
0,590433603015431
0,5797042859516
0,584082346623363
0,579174544475993
0,580727985894402
0,571602934321252
0,568150121598224
0,56529634340225
0,556093505136224
0,556307434020833
0,553518104672343
0,549437685171916
0,549389674560041
0,545794623508172
0,55221073540762
0,546589841794733
0,543855303486707
0,546729588792286
0,53978301225345
0,530304674788031
0,526666749747296
0,528985024580182
0,527022925022316
0,522794807202815
0,52324706613356
0,521843369074187
0,516381187851541
0,511076898437651
0,515531560496596
0,517103502769617
0,515028604424739
0,509239988916142
0,501618431111787
0,495094953016996
0,493710050550013
0,496828349700047
0,493620525440644
0,497951560792791
0,487527162628036
0,487998824223363
0,485026958096311
0,482749705364905
0,480654211194742
0,472492288773488
0,479264260446203
0,47949775839994
0,472362043271222
0,477298030843795
0,46319246667556
0,462269267456932
0,462488584245408
0,460960312064475
0,44889878392177
0,445462432788545
0,448962174562186
0,452251350213089
0,449282100954128
0,44452110280931
0,444720018318588
0,446143650200853
0,441206996308571
0,438206788712631
0,427792287821145
0,430093132154446
0,424462015577917
0,429949350472184
0,430478580732087
0,422695826342526
0,420924223943041
0,422766578045837
0,422017354281941
0,423142108201027
0,414027280351505
0,404866842753665
0,405787049772162
0,407668870343161
0,402053853359575
0,406457354195238
0,39835049696007
0,394795201241182
0,400299983273712
0,396325839245439
0,398184243215795
0,399491881038306
0,392590522146135
0,391482089462378
0,396416441235583
0,398158570301288
0,391443662092055
0,389660568086785
0,388054035142614
0,385036024092376
0,375558166551848
0,374227973106529
0,37743593994484
0,381350174863537
0,375370139231564
0,382358569660157
0,377023763332849
0,36999966157486
0,37367761714883
0,379210873646874
0,37492124446591
0,372764574936575
0,375957146227413
0,376403756024233
0,369985522201879
0,370449058679221
0,373538576514653
0,374442869133213
0,369994965840966
0,379007601997861
0,377350718488144
0,377077728711835
0,374382707506909
0,382253423875893
0,379418065439419
0,378132081154782
0,375472626419478
0,378474661515021
0,387258101479458
0,39168079924395
0,382439939374019
0,388696702378432
0,392155548086165
0,393757573174417
0,388870070086957
0,40119262354088
0,400414349142073
0,397919172132862
0,402319619358981
0,39914295878057
0,398009136023556
0,400497350801742
0,401702619248156
0,405159471843901
0,406149310506037
0,418621099544415
0,412920086757191
0,416497574962315
0,413585636614538
0,421815447460388
0,427853246574778
0,428626400572173
0,428375662153499
0,42647873811771
0,424527814525391
0,430286955139468
0,434224236563671
0,438987406449479
0,442939909086865
0,443283879818128
0,439567492110375
0,447401907530648
0,447616456338817
0,460579626071699
0,461170333393682
0,459728604025668
0,467779086579665
0,470253978509531
0,476254286376823
0,484474138718745
0,477720346385445
0,492012231880155
0,487793915438514
0,497969180290845
0,490123474984997
0,494890389984519
0,501416272404214
0,498146893135694
0,506413829429882
0,509871145310866
0,499473625773388
0,510535028851389
0,503937243672185
0,513750503188544
0,517003479477915
0,51325438826524
0,506074364773051
0,524407139155966
0,519648141399899
0,516297122607198
0,511040183078499
0,511209341419711
0,513065403406966
0,511395724731934
0,503742645129309
0,513525326721768
0,50244959510396
0,501266676017628
0,50489695014257
0,507822991539724
0,507606628229956
0,509994688903122
0,497624835855278
0,505014692588739
0,500991845409256
0,49746382528175
0,500751979799415
0,495952045892312
0,495808890225134
0,496821338283513
0,490504422764895
0,499156029619212
0,493430678079367
0,497961338606931
0,496150538537941
0,501836497294256
0,492562210155304
0,495779874788778
0,494590196936873
0,496566955582001
0,493205232716895
0,492113015771232
0,485836383411039
0,499272805567759
0,491716109369467
0,494923073120535
0,486145314755328
0,491825047011605
0,495733504263705
0,49841839064002
0,490356704168231
0,49427508216578
0,490309185406609
0,490519694811935
0,490007725455706
0,493806308443188
0,484700397155036
0,49218046515613
0,478220264079046
0,485408409765389
0,479560202891855
0,481287441355348
0,47408180156787
0,476938310288852
0,477467827426976
0,474564972292131
0,465993513869723
0,464183198310648
0,458819704311981
0,462321852990625
0,451537690318471
0,44841473656938
0,448276007228292
0,447433798448818
0,44192608947827
0,447423570948812
0,439071628431802
0,436769531813178
0,432448476737855
0,4338219524708
0,412733207089718
0,423599263425017
0,417999524348752
0,416484911415008
0,412481814058147
0,405694698761688
0,402406758799914
0,405084643400465
0,392372481788342
0,392291126389079
0,390957822721472
0,39724062461901
0,386098510236333
0,386143065730336
0,381724358279349
0,378061055273119
0,375518337879037
0,377068288458397
0,375083539134872
0,37581047343968
0,362619480628639
0,365145718573357
0,363688268306185
0,363590178046376
0,354917238034797
0,353081812901799
0,354159357688371
0,35508912513536
0,351431970555228
0,355214266982774
0,343561771659343
0,351428738269957
0,346510660962811
0,345082659545758
0,344578692469322
0,34427720669997
0,334322658910521
0,334843201790751
0,329218826624489
0,333611245118122
0,330772526413112
0,334301958752047
0,325623212989994
0,320505143911615
0,322579486358834
0,326934787497526
0,322000548475974
0,321111103654481
0,311820870102774
0,319566658622644
0,315817858100405
0,314479484053345
0,313051350955326
0,315416425202217
0,312619233286161
0,312364866923903
0,311636195636047
0,306448473753403
0,298905194516331
0,309610517143778
0,305128517326286
0,302181964083181
0,299782279494717
0,301898184893117
0,292227732123522
0,29545314237656
0,293058934556927
0,294433335874019
0,285261514475042
0,294288933613574
0,290140496655004
0,295620779700996
0,290073013517019
0,286967073673464
0,282119145222622
0,281599146395115
0,282543518891114
0,286084576871772
0,277632495750172
0,282758338132704
0,28171420447061
0,282663391251731
0,281403426405711
0,283697135540742
0,275904904283893
0,278106551346109
0,277350562248115
0,278284429259335
0,27332824728849
0,278726413529554
0,276389144037905
0,277985786768166
0,266502482264404
0,272256501427878
0,273590445989008
0,273410030193294
0,268159751735141
0,273614929388551
0,26918529170175
0,268445665908743
0,268636235111303
0,270187548005547
0,257524020433171
0,264713806458177
0,263371251021721
0,268396651483241
0,261750818217765
0,262723833259651
0,257794675141247
0,263006461416171
0,257672327526408
0,258428355288421
0,25197191003529
0,261745991964167
0,255443140609873
0,25446965687773
0,254999349776162
0,261258482472817
0,252925078311441
0,250970639494101
0,254476090745912
0,254778254891367
0,249619913944811
0,252043466524766
0,249222414690274
0,253907459958971
0,25065199724176
0,249735221245178
0,249508400831129
0,249341522940475
0,244850561555031
0,247000202714727
0,23921981470707
0,248236577833032
0,246392198713729
0,248795516394712
0,240276360423888
0,243222555494454
0,246163527803241
0,246952849299054
0,242214362585645
0,244438367064577
0,244132043667613
0,247330901939663
0,245634804137907
0,243519162057407
0,238977661920756
0,242558980450704
0,240814706727743
0,243230346131286
0,240974098084202
0,241423412672958
0,239349134006073
0,24104864565728
0,235820807386647
0,238582383052752
0,236818446537291
0,240549719304183
0,239454056166018
0,238279539717557
0,235222031613137
0,236051765756327
0,235081461736737
0,236815032444921
0,229422240693362
0,233639824189759
0,231560679856963
0,236468099004624
0,230500781378461
0,231765317308535
0,226392251619354
0,227429854632283
0,225992392904531
0,230282438682405
0,227114120083015
0,223491892268846
0,225643107888547
0,222204659690981
0,223734901366977
0,224277854594885
0,218627574867583
0,225736542039557
0,220864815030976
0,222630160217303
0,216431025666404
0,218917010487211
0,216175262223231
0,216534882891878
0,212197624996155
0,216356239363724
0,213160746674352
0,21517716067248
0,21088445124888
0,213818971556694
0,209938216015557
0,211079614725841
0,20818429864151
0,210800525615779
0,210426607596687
0,210140188081803
0,207650213591061
0,20972601386769
0,205672630093253
0,211029100667335
0,206014962166706
0,204557246140159
0,203088843736435
0,20831795724241
0,201291428276803
0,205410265548833
0,201220023418405
0,206722614209629
0,199894312390828
0,202584162245684
0,19838816831904
0,202524083209253
0,195569240932486
0,198894956221727
0,19599745512954
0,19816001530428
0,193974168310199
0,196727352453641
0,190990951291366
0,19249308577133
0,188316751018453
0,193608140700432
0,189064441220619
0,191512141693282
0,185579594039619
0,189968410097121
0,18470309031226
0,184199952683847
0,183870428838894
0,184227196904033
0,184052297148303
0,186694376062887
0,181333624081417
0,182986636393161
0,18162274224765
0,181684707528416
0,179883502606978
0,18083792274001
0,174961708963571
0,17687646434268
0,172933925802523
0,168642166444476
0,170722856362362
0,173651602829456
0,170377876826008
0,173571082006147
0,170783424952121
0,17041734647237
0,165889727187266
0,169991355342716
0,16673710387386
0,167174422766559
0,164599910927549
0,167369436334113
0,163530316099519
0,168020720394967
0,165873259354066
0,165807776982264
0,161530693034637
0,164814346110957
0,163448776413737
0,159507774765394
0,163156174649946
0,162086631014766
0,159976950402867
0,162022429008303
0,16086717977126
0,161786900734445
0,15366726811425
0,162343091322612
0,159354515322071
0,158824470150586
0,159086261728459
0,159959509115918
0,153948602476356
0,156744627503392
0,154386531306591
0,155641135289461
0,151709650673602
0,15576220256918
0,152459573928852
0,152496923888466
0,149983662606958
0,151940120626134
0,151694693736952
0,151542955641909
0,149408652478453
0,148714411222431
0,149338861413428
0,147744945150457
0,147404889107243
0,150257754656972
0,146379630187561
0,150695140216252
0,142969204867608
0,146249240990599
0,143693014776212
0,146816548978957
0,14457515220565
0,145887836945869
0,143637749673848
0,144827076630732
0,138916461750206
0,142827888284331
0,141261352303275
0,142298433613443
0,14158150473263
0,142289175665402
0,14128563822947
0,140149209763051
0,144315253850095
0,14259149317261
0,139688755171809
0,141052641964953
0,138398498096845
0,141823588143588
0,138936533034782
0,139846884457287
0,138930607933786
0,140241699474841
0,137682234100305
0,138297876803575
0,138093247099441
0,137848154322388
0,13925492150571
0,139718871663268
0,13569657336836
0,138446597380189
0,135566928151817
0,138079976233604
0,137572424601461
0,139227568605749
0,136055728937559
0,135828301609232
0,133733861587301
0,13541239641549
0,135184476926823
0,133799321383579
0,134324624365614
0,134476791480485
0,13121565756324
0,13093225321575
0,132361052891286
0,135648778190847
0,132109747475572
0,132187420648548
0,133409903660635
0,132100549188365
0,129561828248609
0,130392478389085
0,129715133385146
0,128150270391578
0,125950219293093
0,126401256407235
0,12651561578206
0,132425397362627
0,12703550955585
0,132780731353944
0,124186011322174
0,127932136062353
0,124995964025386
0,124500322768572
0,12367176729759
0,127713851098258
0,123556746359009
0,124043452240148
0,124942289715698
0,125802677127734
0,120046227073663
0,123404010414887
0,123469113225994
0,126955233158231
0,123440802598488
0,123503481077057
0,120250025132526
0,122632428047233
0,121341952735557
0,122016470198536
0,124873738708114
0,125075740426707
0,120359818099413
0,122007087065435
0,119745668832816
0,118913322306962
0,120969649246062
0,123636127974537
0,121530886060539
0,124145343564269
0,120964521487196
0,118715882467829
0,120334032215835
0,118269688809507
0,119419145001317
0,11611718028481
0,120769159935168
0,118592328060741
0,114347533678487
0,117795088053504
0,114956565394109
0,115579034577799
0,117273108569741
0,115184356822668
0,113545631394653
0,112935933734561
0,111833142308496
0,117520122502438
0,114876093276316
0,112902318673954
0,109114762854013
0,113218856634143
0,112941555135056
0,111878203121605
0,108207973296276
0,109445633251903
0,108859788387594
0,112758987455827
0,10595857698635
0,106888979854857
0,106831393374529
0,110903594201014
0,105394250590819
0,106762378741999
0,104684093151472
0,105552026044096
0,10649225695492
0,105767167615069
0,104550467104319
0,104426681624308
0,102316728736427
0,107014862098989
0,101636699383148
0,104564601272605
0,10493590907316
0,102514363746857
0,10146712522943
0,101439374212401
0,0995453863947437
0,100046115837483
0,101998874864881
0,102676855050011
0,0999815340571706
0,0989329017099325
0,0997150511116973
0,098831671793079
0,0972109538115899
0,0983009118713616
0,0971374291658486
0,0990049883875759
0,0977179018557814
0,10044216847579
0,0977421035901398
0,0984792018721954
0,0974424424975964
0,0945769412535248
0,0965868917842092
0,0978493897902653
0,0920170195559295
0,0953500531719294
0,093925355367112
0,0978989955721597
0,0948608460346656
0,0936019703908803
0,0898313885307482
0,0922399833476048
0,0934077585336215
0,0968573746982147
0,0934844834238113
0,0900209863946231
0,0899238084102987
0,0896770883075846
0,0910013854901953
0,0888938269803415
0,0882339010387316
0,093299646527115
0,0906072745582647
0,0912364053229632
0,0886948637761236
0,0879565740798819
0,0886576380443555
0,088468068701053
0,0860576276819293
0,0837040867247093
0,0878087224091322
0,0878648023931203
0,0867176693500042
0,0862534227514787
0,0850816927146458
0,0856841755940505
0,0846770709199345
0,0846294091742954
0,0855557595537573
0,083612881401467
0,0841632693648573
0,0835841825514842
0,0851743287510285
0,0840754351400786
0,0854368942454344
0,0826045086593867
0,0832190784759123
0,0849431195453002
0,0854297053598247
0,0857019796556657
0,0855753710707304
0,0852291830664579
0,0872425125151194
0,085497139630995
0,0849684187090958
0,0857016515423826
0,0892182509272138
0,090204227405104
0,0868854357649529
0,087614528127156
0,0923078662046503
0,0880861315860594
0,0922177670306861
0,0915530976106138
0,0969191941785447
0,0917491290328844
0,0928552596595485
0,0897293598055423
0,0851890211234965
0,083350128425771
0,0902474302654957
0,0965327812476654
0,0946251723387811
0,0835175436193851
0,0897048369697154
0,0893984306241054
0,0898719160848753
0,0794697727920405
0,0899719169779157
0,0821277457525644
0,0822371196514249
0,0882912479279905
0,0868686796328188
0,0792321803734195
0,088705707526846
0,0828354944026174
0,0915284702362349
0,0800885978455837
0,0933182322269056
0,0825542812836922
0,0885713506422914
0,0753611292484892
0,0931350000207924
0,0772359040980278
0,0916570557347402
0,0754534703556188
0,0938493486130905
0,0717237342835614
0,0950597583606039
0,0725798024792802
0,0957514788590544
0,0690189662952448
0,0967079989253119
0,0635006848844544
0,0982879620395158
0,0569855739221686
0,0993695930972644
0,0619650597741197
0,105452401133021
0,0595360811979147
0,116977793232016
0,0581331480763069
0,106708890913521
0,0545476134916642
0,118203758640143
0,0624305517764297
0,114651104089305
0,057000847131468
0,108768195027345
0,0667088241367789
0,1106013777718
0,0701862773585312
0,0959979638753448
0,0829447647331922
0,0808502887270132
0,090263546033301
0,072408793249338
0,103368731273936
0,0633407860982148
0,108722543101803
0,0583714363000307
0,105804579698407
0,0630220213836719
0,0975268580060405
0,0686808316641918
0,0898720331216756
0,0745035252518767
0,0821838672842955
0,078879313172613
0,0788072228086039
0,0780553108620066
0,0798756510881044
0,076059553629209
0,0792462625451167
0,0738255742453382
0,0837384363338438
0,0691846205301994
0,0798160483321377
0,0697861254973019
0,0772979089843076
0,0689142872683103
0,0761612724687372
0,0721764136700534
0,0769921629926746
0,0724794964009515
0,0759898507201169
0,0689708620115149
0,0770605344695373
0,0692014238165194
0,0746798891984087
0,0719548589771514
0,0758757970797698
0,0689570861163424
0,0746616411937027
0,0695392104400336
0,0726880173745533
0,0699170873366549
0,0772703082275194
0,0717287961705027
0,0741403183384785
0,0693131781063017
0,0740737979823057
0,069537389401855
0,0722550365748958
0,0722657531011223
0,0780314883947728
0,070092709884687
0,0767818808574097
0,0702254603619745
0,0749176400068171
0,0722358654507624
0,0764611365330369
0,0725050391926986
0,0766682127510155
0,0711339542102939
0,0751002847369993
0,0721397484463672
0,0754609110276074
0,0708554027338316
0,0767644332703949
0,0712200824834066
0,0738892664828154
0,0683933281069691
0,0750833064728666
0,0721035502074891
0,0780189470281648
0,071641479113061
0,0760002956874754
0,0710967228724968
0,0745898586425016
0,0694265540211483
0,0728051777200317
0,0713344796837636
0,0746097650729659
0,0692608671752511
0,0731179971524897
0,0713435765600445
0,0752553823908341
0,072941605858703
0,0753484195325697
0,0717415087417911
0,0727372391619668
0,0677742339588328
0,0746232057467134
0,0706786602306783
0,0719737927323862
0,071115514204276
0,0758832857958672
0,0703122511244005
0,0725373794801698
0,0705698893954698
0,0762102550084791
0,0740278817081402
0,0768379995014994
0,074162167085019
0,0774449516954793
0,0743636737224837
0,0740782752234972
0,0740206131813046
0,0759195618720115
0,0715575300466322
0,0751132160208158
0,0714660012358393
0,0744614837951392
0,0731824958143803
0,0768401188479939
0,0727856380970275
0,0745427766952626
0,073490083048892
0,0783325735405518
0,0731989934692972
0,0764325998519471
0,0727429061059607
0,0770942543238838
0,0737487113707513
0,0775257258746417
0,0728802316009985
0,0770662987414741
0,0751996377389186
0,0762229941906203
0,0749736806368411
0,0776906409747204
0,0760161424038847
0,0783793583644524
0,0782268904774514
0,0803950217104151
0,0759369790605153
0,0747023305809157
0,0745442033038449
0,0754932592411884
0,0750159269174705
0,0788952915345965
0,075002551314046
0,0766909587441939
0,0761676430996486
0,0794681534995392
0,0762682213626285
0,0793161328950994
0,0765804847454031
0,076355656578317
0,0748548314849675
0,0782117225531241
0,0762131625221884
0,0787466944662479
0,076937368197475
0,0786573991703298
0,0764475253569658
0,0772523536976935
0,0736903547619221
0,0791331972078033
0,0763896095180837
0,080285798007352
0,0765966298490517
0,0775890197205494
0,0750916508692987
0,0776569883598535
0,0778941812057165
0,0812012849832977
0,0781708107378299
0,0796482796489518
0,078251290681213
0,0813984869007697
0,0791576928531296
0,0804235645701543
0,0808078363944062
0,0798596688330975
0,0781085354699224
0,0830890093564838
0,0769345390226643
0,0801574248231143
0,0785176401472868
0,0816870515329745
0,0800422479648877
0,0795514579417463
0,0791185613117541
0,0788294970513017
0,0775181301606586
0,08321327329943
0,0786390665932668
0,0767585606366955
0,0787789224196459
0,0808920202847781
0,0781887114128811
0,0797793044334159
0,0788828894115684
0,0818416649971825
0,0800913958676627
0,0794349755060265
0,0768158938326778
0,0784974036135436
0,0772820972416856
0,0811864269504477
0,0791829067218448
0,0774003998634383
0,0754966450806035
0,0740460854590728
0,0745403204140162
0,0782542225841008
0,0763865868236906
0,0771730999198505
0,0758985998908741
0,0782456310501723
0,0758993433465632
0,075755553224778
0,0735295459580147
0,077188662221921
0,0748088075945764
0,0755612554040804
0,0736728767472279
0,0757637555615035
0,0752884044228025
0,0775131267441828
0,0752413425199257
0,0751821575649083
0,0768357588185225
0,0773917161789069
0,0743486527195231
0,0776949381116
0,0773644134880887
0,0799447330991458
0,0726968355913777
0,0757560263795586
0,0726888587337669
0,0763466620436683
0,0793172115432422
0,0757398779028933
0,0732980311980188
0,0757439635651573
0,0719400733136733
0,0749141434172425
0,0742558819002567
0,0747194891228
0,0732401070668062
0,074821533146325
0,074009114082157
0,0759611866431138
0,071231235076119
0,073661444866063
0,077154353208805
0,0759021044957378
0,0750939385627044
0,0754288216266405
0,0710454721890384
0,075532567009332
0,0717624301776948
0,0738544997224623
0,0742380701857251
0,0741935760089453
0,0713859618926866
0,0746821308923813
0,0740059748524129
0,0736114709740268
0,0736079545295245
0,0752920137974431
0,0724273551055333
0,0746937145777576
0,0722194567404666
0,0721070577589536
0,0703361280882362
0,0753764916460267
0,0739378302548812
0,0738390819146389
0,0743003825998686
0,072472410867053
0,0727581315487636
0,0795189707009321
0,074619496334065
0,0707069963873462
0,0715210697306441
0,0734053133987024
0,0721350612824387
0,0731170835900586
0,0747858967682073
0,0746695022239405
0,0710934896148517
0,0718317304413059
0,0697538448860469
0,0699634827886194
0,0723325983548588
0,0723744542245782
0,070549777258905
0,0722906232111968
0,0710850164486785
0,0717094170666191
0,0702405686942254
0,0730372830350697
0,0705177519870509
0,070718028436461
0,0692078709921957
0,0712023266319872
0,0714395308765122
0,0763074409676039
0,0678693791440239
0,0705249695170149
0,0692208485119233
0,0698803139529014
0,0670327262724003
0,0696431926839904
0,0685232726515992
0,0692724044966847
0,0694925270917262
0,0676203524494906
0,0667129599053058
0,0679839922594385
0,0683604473619814
0,0690982969349182
0,0668986324560113
0,0700231641477577
0,0680563488890492
0,0674843144563191
0,067292906154696
0,0680022730735854
0,0657380201418653
0,0665483643186974
0,0648191486165727
0,0693021624760445
0,0667328673850164
0,0757344114290173
0,0659331105056544
0,0649532093813425
0,0652585071307036
0,0623624675863749
0,0635773966952979
0,0646662394737542
0,0628380734570085
0,0645228610688737
0,0638006619649757
0,0642191563914681
0,060984183119089
0,0614011016159743
0,0613936055708473
0,0635721408381368
0,06261160260126
0,0635260219842934
0,0615049055787092
0,0598024404372993
0,0597232770579324
0,0619064336051071
0,0630376425723197
0,0632401346525761
0,06095406565663
0,0607025392383384
0,0612182057994237
0,0745188221213541
0,0807281143842359
0,064662028598555
0,0608535261611418
0,064228416161968
0,0665275295849684
0,0584898414028756
0,0610575011453402
0,0615734928694086
0,0605768716343007
0,0614902371822381
0,0597217166270452
0,06176541111894
0,0585603423486833
0,0579883142575148
0,0603841879264225
0,0601141059836521
0,0596420567545656
0,058146996641419
0,0578993387322198
0,0583905877437421
0,0578093497436762
0,0590471193553401
0,0601754044443868
0,0596632996194662
0,0574989978288175
0,0605041894675211
0,0707158338556079
0,0664078232495089
0,0613021887215044
0,0584946537520054
0,0581063960441421
0,0570802188626978
0,055790606996407
0,0574314884922034
0,0534889781903365
0,0578246022037143
0,059048658475166
0,0585204061787296
0,0562376239933323
0,0604017064169871
0,0590525081665572
0,0543779323917258
0,0568731575519969
0,0580481881966604
0,0558816737754209
0,0540754280825038
0,0552457170853332
0,0551451393644766
0,0551167154282634
0,0625358972782704
0,0612229748330552
0,0544202700211066
0,0705997091709738
0,0851274331635422
0,0611507099074475
0,0586485184983159
0,057188048779455
0,0558225241206
0,0535109447728299
0,053448575924794
0,0529934420852891
0,0547364991272128
0,0546504894618699
0,057930103065099
0,0550930203070761
0,0542336843880439
0,0544173413917431
0,0553899107806962
0,055700437880934
0,0554137761312905
0,055112070154856
0,0554513146550394
0,0537808192890748
0,0648654439195018
0,0777362674091938
0,0668371083062207
0,0579982902394299
0,0563771922983815
0,0581052911966214
0,0829088286562557
0,0651375858705147
0,054975824731354
0,0588633480640562
0,0543887877719386
0,0545870956908692
0,0547049185894749
0,0540087851025049
0,0592752030385159
0,0641935907061664
0,0593042398019459
0,0630273966899204
0,0570853933244491
0,0543747453746473
0,0547343356114515
0,0568647890740739
0,0569620040701946
0,0555390477002527
0,0555994410618523
0,0525836529070424
0,0535727570190366
0,0525078417373628
0,0541201202876469
0,052629782978545
0,0622171669156166
0,0669030474989082
0,053726497432855
0,0524772309301373
0,0539416370911279
0,0521559430230634
0,0703378284276184
0,0758255656605421
0,0551430045914577
0,0555918872499096
0,0549656589711559
0,0546416894532486
0,0551038566890535
0,0556681146655314
0,0563087964255182
0,0543607890463354
0,0512359653086395
0,0544433781598009
0,053192090403875
0,0529088523852345
0,0530930274551792
0,0539409820478338
0,0550053910022236
0,0552426897672143
0,053760746473231
0,0532181440813378
0,057218443176115
0,0622924268705583
0,084945934992063
0,0882297996369131
0,0788609018028561
0,0741179655415993
0,063549088957178
0,0581791625691818
0,0573774489798944
0,0536265319228671
0,0534133373368122
0,0566682221365228
0,053864691947037
0,0559027766374779
0,0570747534906212
0,0548442205192777
0,0547111356368225
0,0530429311901723
0,0520597425391557
0,0529475458822593
0,053050056241422
0,0530137602425124
0,0521424214510595
0,0532807394353329
0,057964633956561
0,0667404768497556
0,066779166640258
0,0582322856196378
0,0665835562153191
0,0988953393783514
0,0876234601527735
0,0662471479940369
0,0628375701177875
0,0568980148813945
0,0539376376443189
0,0537484810802557
0,059921306526001
0,0667753340562833
0,0563625423598544
0,051736314525521
0,0540058796735901
0,0576376784047054
0,0559669265498959
0,0564912719035742
0,0826261972130464
0,10163135053184
0,0748049060567645
0,0614492952302157
0,0540733926312028
0,0814868854658646
0,0952641682911265
0,0629030685190706
0,0612919012783441
0,0598857078861943
0,0578312628324236
0,0585472931465344
0,0550895368024947
0,0596034736716682
0,066284995622666
0,0594862668688659
0,0564385523954647
0,058150259883545
0,056158337564688
0,0594064760972306
0,0629947639478872
0,0746493041577033
0,0719910283767441
0,0616201324115058
0,0681497705949061
0,0671514167804694
0,0571542707965232
0,0595871652638703
0,0594330945890897
0,0602242386685538
0,0785564048698831
0,0780748963651758
0,0731935624216231
0,0828589525382333
0,0746244001369443
0,0618271558391453
0,0682123569318869
0,0821546824252763
0,0724641797951577
0,0586424402329116
0,0887271479684918
0,0981565837728573
0,102007061404683
0,0871351669788697
0,0727022663370375
0,0610443133769399
0,0649713487925322
0,057397410333409
0,0671995801366992
0,0842050374916658
0,0740921249714413
0,0623157804259846
0,0640752075566184
0,0800697038809149
0,083577192436653
0,0707087044881688
0,066433658905505
0,0657034046486802
0,0702711297983652
0,0892170968901567
0,0696089244641016
0,0798607013015435
0,114073286168031
0,115404622035571
0,10585787701899
0,0735066016920914
0,0853786774219721
0,107421526703824
0,082253113637964
0,070006894452678
0,0685851770396425
0,0707657194265034
0,0654576538480197
0,0913944961632521
0,118703454580368
0,0817006613093528
0,0738848984794366
0,0753768668352039
0,0858004223400471
0,107477904902805
0,0869847376988894
0,0727557421864029
0,0779855935409312
0,07329315278838
0,0895501150942062
0,141448882735919
0,107304481424381
0,113842013868531
0,115993811662633
0,114578974760625
0,0994605550203553
0,0946989879048561
0,0865055366894544
0,117229844244933
0,11394262806588
0,090716008975206
0,0811043958682852
0,126005968300668
0,111957959401816
0,0992445241394772
0,093560477923254
0,0938220609359971
0,0962259151225332
0,160031093002119
0,173248378236734
0,137611281612398
0,0987427806356569
0,117952177229628
0,13022077734447
0,1067530776563
0,0950094534222864
0,100683654873109
0,0977060222185546
0,094896133430814
0,105435308864308
0,115680395853883
0,104669214885559
0,109056509765421
0,101734464038005
0,120868718132436
0,15024210836995
0,20141393415431
0,145709547772854
0,14829950620505
0,154528757626611
0,152230081280907
0,130975818551293
0,121255220646553
0,123086881640388
0,132475735398017
0,132333604521161
0,123758043259514
0,133216877897134
0,159433579060995
0,145870219451403
0,181296532215595
0,156916363978947
0,153700098902145
0,143207843016112
0,223473352523516
0,297556712603066
0,208924109988535
0,181722414077372
0,184908158429921
0,235551459715975
0,242473432220398
0,202853562815475
0,18219087725548
0,186232314645501
0,185172404959332
0,207161923481785
0,215509921586476
0,2247965913322
0,240727624555051
0,225283047523026
0,233772910207801
0,281294814570475
0,372878781117828
0,352032295336713
0,271642999453472
0,269743214316325
0,298223138615922
0,292896696495943
0,277354770824795
0,288117307407983
0,280994806894766
0,343575008729466
0,349538164759409
0,331939909805795
0,307708263323167
0,351472107043182
0,347689571702138
0,358126304522139
0,410739737233373
0,391961676078973
0,368736980779914
0,353498745998527
0,375729737754457
0,368018895041247
0,397726055922083
0,417122498110079
0,417257167799982
0,408137881853973
0,407832439612562
0,410656954129908
0,413469135296234
0,425676882830829
0,424424142762028
0,447668979990634
0,486663142597425
0,547919784709692
0,675797673159276
0,487818254319213
0,456748596322874
0,432901937583308
0,478897557294573
0,491151407575592
0,506130503636549
0,530686823313271
0,484554191022741
0,455967052948515
0,446366909495575
0,453141697743565
0,45112183682373
0,465196850403084
0,454914151783422
0,453266813259529
0,480059217881155
0,466508504820112
0,5583850612607
0,512466177876259
0,476470139263418
0,438842672803249
0,463742969237586
0,439480932750589
0,456738782439612
0,42591451469831
0,468800367565049
0,454589833225351
0,450715603198009
0,421504767811385
0,427393000799224
0,466076209921827
0,454882254964143
0,425144828804387
0,416870761292595
0,41099461879822
0,40532657049963
0,394837359397553
0,458711243120911
0,42998214866554
0,412708618709439
0,378041259314225
0,382044301203113
0,376920124843654
0,37863572011162
0,364990559359372
0,382878316124464
0,361442642433789
0,374398606997738
0,368608616764879
0,359470939393537
0,355687888827303
0,365647328933853
0,361583230342878
0,362533765232093
0,35961288504042
0,359702380024743
0,350059379208823
0,351033224154015
0,350514627798553
0,359293958161917
0,350654539436551
0,359224694357394
0,353382667587897
0,351514270665505
0,34803770826252
0,351855909455177
0,350214444603762
0,35074265125063
0,340128476240767
0,347521496433291
0,346844085328847
0,349022660260954
0,347728615718231
0,342760316893939
0,344957573619336
0,342727993150867
0,342897884323746
0,337999286129328
0,350491338815107
0,343522769503697
0,36009422136253
0,434874465075157
0,365262915812203
0,360301631145788
0,333642319009414
0,348281941957184
0,324119417866311
0,352635064560299
0,389837713260617
0,3694691341795
0,34056340976302
0,323362387639627
0,326822925975823
0,363493906922489
0,325814082208723
0,332902458386488
0,318781396866331
0,331700621881347
0,399620743713623
0,415290863720052
0,517695952051821
0,415958260770062
0,359107435997893
0,31224929804804
0,380155281626691
0,340249473269741
0,330984616371513
0,306976162551557
0,320397289916626
0,377131298930779
0,328844210856947
0,322281674159327
0,301007315735165
0,310758481794896
0,352732200474585
0,354369549214655
0,337481406753045
0,369569989848518
0,347446286478654
0,358706483702423
0,389569818061753
0,42697397397357
0,32979604713244
0,293062752895228
0,297622863958346
0,28533898788771
0,335166195661404
0,352930819632276
0,305780321495504
0,306638839156548
0,269021544859047
0,282146497735418
0,276377946701596
0,322252325086647
0,27305615695979
0,32770205463353
0,295564912379145
0,278362346860183
0,287674451815812
0,304787657077038
0,354965752615094
0,339712671449136
0,275829951085764
0,252362404375288
0,340743234858016
0,305443828083841
0,292512255896036
0,272770512335532
0,231354996386196
0,270966893915725
0,260721508064955
0,240141129840111
0,269204268977901
0,273521277319552
0,319546903310033
0,338809400372564
0,368116077188262
0,307651932120359
0,242903745249838
0,22760041330302
0,218499155019168
0,232260019796337
0,216894229595272
0,22079867876326
0,281703397722367
0,213827174486682
0,260056303109548
0,266308705112775
0,236695300041576
0,223850371993558
0,220976540113499
0,214337074613039
0,239257562105716
0,280318937583138
0,305254541284199
0,244052233404695
0,273831375206815
0,254573020931317
0,253899957102575
0,229597433033714
0,245482006656467
0,236225208930119
0,254081710935507
0,264949246960993
0,260859713953694
0,257339986566753
0,267780190102528
0,261387463895565
0,349866223382275
0,295256947223773
0,308704479808057
0,337644282755133
0,355755072764907
0,393790215699375
0,328394641414185
0,331221814844108
0,313969946848262
0,332213729762631
0,33270638438539
0,32881605446396
0,385797393490912
0,376930099023808
0,359670085550144
0,35714457951461
0,362859746701198
0,359024110408683
0,380769247468321
0,417165116331549
0,413265847205769
0,510882544457769
0,425051781807111
0,445843336865394
0,386117296873047
0,394226319193809
0,407262543379081
0,403707343851643
0,396757542191258
0,383069592807954
0,417075924219069
0,430975785177276
0,40591405698747
0,410470070984762
0,400542487754986
0,408543137451449
0,404547907096861
0,412868757520323
0,413727109165519
0,416025032671003
0,42402631503392
0,412688027210629
0,460669385905907
0,521493779032129
0,453904438723906
0,446636869492473
0,431490258008825
0,457546190013507
0,434125359248314
0,458024246718486
0,476215904835851
0,464554730135951
0,45946284181849
0,45870253569384
0,463744109938955
0,461831000791615
0,501662592444083
0,494772416159001
0,467226922604224
0,486788316012981
0,464375631224188
0,580623344664168
0,506523187878605
0,543748341862053
0,504107780801504
0,511415359068119
0,482511223290328
0,497870119685748
0,485036299369629
0,505272783743775
0,497339768651797
0,504888264071871
0,503056448907237
0,498859040515324
0,499433021719448
0,490908125949329
0,514588478848625
0,531525045317981
0,50156999732935
0,500459729218319
0,493875244340479
0,498073367600578
0,493294049264814
0,54456556096303
0,510463210587808
0,517358867608654
0,493410971377465
0,526089944019002
0,537676880713399
0,514752496531301
0,484534324146564
0,498620361896226
0,483938753390586
0,504176350207819
0,476692509496795
0,527379763099535
0,518897538589149
0,52392981690746
0,497274337804348
0,505548918291144
0,495379831702231
0,505610278677201
0,499830016102383
0,510785704947237
0,510513966957715
0,524327102184412
0,517632798241748
0,513318205574439
0,520779113702721
0,52995023434594
0,544981705679219
0,535067295087461
0,514373650292215
0,520146038407807
0,504235381036261
0,525047869172889
0,510209114235656
0,516522168619472
0,49278546085903
0,512963026052648
0,479236029083896
0,515017229490395
0,528532424185253
0,502611891895593
0,512438400893159
0,486472634885776
0,481577673197458
0,468796759991229
0,475926695356626
0,465494590447612
0,467160176392632
0,47107593050391
0,457646418044362
0,45940205165245
0,451538699816164
0,453898632802232
0,449061166011059
0,451817558202287
0,44798899752169
0,448958007653788
0,444821566215339
0,455684787494092
0,44297329899483
0,44588796621073
0,437999029635373
0,440093231073698
0,471629260066057
0,47298746290562
0,476084526205949
0,453061107117194
0,456525279689941
0,448168382766646
0,444416983142975
0,436152726635157
0,436824737233506
0,439242472095279
0,436549014461682
0,436055197748968
0,433422637325508
0,435559894454238
0,432788139484813
0,433403470402585
0,432985051662989
0,430710954969461
0,429168204268387
0,432629826235518
0,425943919453249
0,431182715045229
0,427031659235422
0,442300962608541
0,423225433629097
0,432975117351751
0,423277096812821
0,426652057185561
0,421983603220362
0,429534919988233
0,437921006605386
0,420872982019465
0,419101144870926
0,424650906669993
0,418692386887013
0,425381178961064
0,418895722796358
0,421419571971754
0,416143286098662
0,421828736479182
0,412756172260661
0,411448897850593
0,410100374677434
0,409714625215507
0,403394433426323
0,405275308489939
0,395166756739167
0,399081759884442
0,394417423937595
0,387780315955589
0,383622153148463
0,385572057144282
0,375315763871788
0,381227612564213
0,373499046957728
0,372653101809199
0,377596124931941
0,377499927658216
0,371061906308071
0,371319126817762
0,365011915822949
0,369129527719991
0,365856199069902
0,36456063847755
0,363218896310775
0,36826132840138
0,362794739056044
0,364072485404496
0,360390265014101
0,36655020013258
0,365951726388891
0,368440120059579
0,364729943470111
0,372626886511255
0,372315423857236
0,374435405670058
0,376884474955005
0,377295203691003
0,376457892488786
0,377930396400737
0,37874728184884
0,382297336664253
0,384448731135481
0,383548019479627
0,382926506989465
0,379389792935239
0,386075984408252
0,384651265728881
0,385036857531765
0,38558621375674
0,383608556071958
0,38687980235557
0,384737474111818
0,384822886436748
0,384853514148783
0,38310647566431
0,378439256477903
0,381715101266324
0,380041077469834
0,379288768568701
0,376266415993052
0,37735270256013
0,376436010320798
0,379336241477551
0,377334526644595
0,371395639902738
0,369368818695706
0,371364030009169
0,369573921387275
0,368978533494724
0,364517731274681
0,368823815302773
0,362856926493277
0,36528219471033
0,362300563530224
0,363170555248295
0,357184070849258
0,357799981414193
0,356233999529021
0,35685559128229
0,351130193501777
0,350062052880977
0,348233498800563
0,349605730903924
0,347023753296376
0,345734838870395
0,342423716952161
0,339175897909261
0,337004959784038
0,338615721129159
0,3326517266019
0,335620937448556
0,32915581539525
0,32972716877358
0,324679359314706
0,323460339483197
0,319183172203894
0,319046088499084
0,315148540266288
0,314327590884941
0,310704882605877
0,31191639066916
0,308068941254054
0,306289804334248
0,306863249135631
0,311301880650576
0,305856115887574
0,307146872250456
0,303390626469456
0,306215909002846
0,305125901626025
0,305513228396719
0,300260658806042
0,300593421975529
0,298202041028459
0,299235198167258
0,29075252166544
0,292496852115397
0,284799566170301
0,282235597734107
0,278309039914545
0,275182304169673
0,268980598199408
0,264592549557485
0,265378951454657
0,265224250239653
0,261586335493756
0,266320748546607
0,266012794862061
0,270304142223405
0,271600301527386
0,281377346115787
0,283286997261552
0,29459912033339
0,300557813688242
0,311677946150236
0,320774969705255
0,337158369252685
0,346455658844337
0,36033293747842
0,375008177999791
0,388365905148905
0,400569892634406
0,417766860322452
0,430343782787188
0,447699975316983
0,466640755999533
0,481044688573932
0,498222112878843
0,513724238777919
0,527717776220323
0,54625525796856
0,556734195666411
0,584433646146165
0,589064674674955
0,606811555697433
0,615313716565258
0,639715677927088
0,649599994455264
0,662228029064958
0,668828958963797
0,67745646409262
0,682805023895655
0,6896336253813
0,697775850657038
0,701386900162828
0,705558062347431
0,70611182454997
0,703917104037774
0,699057280763813
0,697491645591741
0,698706663094964
0,686200287272454
0,697173487010284
0,684894142547513
0,690525725633729
0,685580586098593
0,682795643453998
0,685854932618738
0,681559011295317
0,684472088510403
0,689462455962272
0,682004375406986
0,694684645768945
0,695114747645684
0,706793183887894
0,705846696901988
0,709490804645784
0,719330518189129
0,732924562347407
0,735633788477592
0,749114858586211
0,755028511596968
0,765245108435005
0,782967790185203
0,790475998478012
0,796403016505846
0,808411031888199
0,811615840533398
0,821565164945637
0,814209376125485
0,818549718051047
0,826501106372991
0,843928501512462
0,833340536957067
0,83832173576809
0,832125784110141
0,832505007912524
0,829086122607314
0,834983411282245
0,833097599413051
0,829281085720326
0,836224120855879
0,850145999329257
0,849602794174758
0,862226740968988
0,858143191872812
0,868933977329212
0,885971275709013
0,893631779852329
0,90608577433088
0,90707838588614
0,917856580528198
0,949198912847585
0,935713013901929
0,952968703566406
0,972940981562996
0,99101352469481
1,00012842558628
1,02244358126851
1,04419718098237
1,04634938328712
1,04435353598913
1,08132506533993
1,09906797685113
1,13144913381093
1,14133056175756
1,17047088471575
1,19743643314732
1,21749268887859
1,25978254835442
1,26546430136041
1,27279625687182
1,32935061524307
1,3269750821376
1,33266743410347
1,35651043108515
1,33870023076082
1,32993398100986
1,39131869673308
1,35823566903715
1,35333018126481
1,36527898732396
1,41099220035975
1,3563538786229
1,34978681360489
1,33794528936199
1,33866923636884
1,34263064832152
1,35239991928841
1,37377813515145
1,36631942435249
1,34761955545835
1,37533377993732
1,356351493336
1,36860004539081
1,38041566479439
1,41418361551546
1,42275761198856
1,41630305272156
1,4276593918316
1,46586495878295
1,47622775604428
1,48959108413855
1,48331447227328
1,50152729484466
1,51499430798453
1,55380034198846
1,60822705305306
1,55289003948912
1,6033558245029
1,64540780732754
1,60194955672395
1,58648483112256
1,64636934847513
1,68942840829591
1,70205261783521
1,62559572684411
1,63077671390899
1,71388730385115
1,7733230935951
1,78783285182872
1,68829370299844
1,72632352087943
1,78352217451031
1,77034422650212
1,75440629696698
1,90155932160606
1,80846915337235
1,81069683017767
1,89930500668396
1,82302296925914
1,92210901336051
1,8460537729159
1,83468737689926
1,73089325427225
1,70641697304148
1,83512140152202
1,78789385866521
1,80162630781517
1,74211631424404
1,7113793810041
1,68771319282779
1,66080450932336
1,56169053569765
1,50526995066555
1,46271360691232
1,39832339183225
1,40969746129839
1,34368327240774
1,27095148125438
1,28913697324903
1,22622747787923
1,20500739356803
1,19943494016271
1,19552719593353
1,17019433728459
1,14842657278568
1,13902198984291
1,10807144476321
1,11494627058878
1,09525263478743
1,06864181345127
1,07911029629398
1,05479291547842
1,02266964261633
1,00990678179146
0,961796859850037
0,950840427991567
0,915586004066421
0,898833258239235
0,849908374017655
0,826455755524685
0,798511112860523
0,758601089259306
0,735917384161329
0,712167875458012
0,669180588767636
0,639158805850834
0,615571019668577
0,588271613981996
0,55791988258179
0,528022543539791
0,506866640742823
0,481843602231121
0,451440198505325
0,438321905052062
0,416077443621523
0,400621104347388
0,38457417865198
0,37584823200979
0,357210012059206
0,346133927435701
0,340858419169076
0,333171289764391
0,321586010993561
0,316102284432405
0,311391854781926
0,306396624290961
0,30612979831904
0,300645169138735
0,297202581374029
0,30118128057225
0,292975462145869
0,298232725200673
0,29136574144061
0,29523970621295
0,296434194559703
0,297211636892141
0,304001119904381
0,303049969994966
0,305380386399107
0,300302680597316
0,307927842811315
0,311244660740196
0,308581214815849
0,310272102983003
0,3108632614543
0,31128941365582
0,31223181129484
0,315225272119874
0,315752953258369
0,313864369450847
0,310253618857113
0,311247061533431
0,312353079936784
0,302540474040857
0,309447362333268
0,312407198630143
0,307123615606942
0,313512484001297
0,315989125124283
0,313666022784998
0,320040162436301
0,323350992651162
0,324103191324681
0,324057372827779
0,323414946616053
0,321262462007174
0,325931178316116
0,320908790639995
0,329337185436157
0,33522528314544
0,325523370451138
0,32753125329762
0,331415872572031
0,331313861358489
0,331478186717833
0,331790284472908
0,331215905285727
0,33614161913045
0,329081951847298
0,331315007423679
0,329253675057306
0,334562047352152
0,334690911896848
0,335679383776982
0,3434019101751
0,345969899494291
0,349264079772886
0,357651102350084
0,36786731958421
0,370229514659241
0,379133619679419
0,383915798587281
0,391132047289218
0,402722668614631
0,407858351336679
0,421614708200706
0,42198969882931
0,428692798449514
0,414111876892662
0,41729217093889
0,412228058225235
0,416410708647893
0,40098006189696
0,399446206685253
0,394490751824156
0,379634582427918
0,374424286752485
0,37101743946144
0,374264556452558
0,373762507540733
0,369588605245902
0,370310569739201
0,368477348938182
0,370312254984942
0,367437572469224
0,376195765296646
0,37163169260784
0,366440217955565
0,371389839112683
0,380830952952458
0,370882282244007
0,363570791966293
0,360737475324381
0,361584591573115
0,363027138755346
0,355059980177478
0,353319232405064
0,355397782467908
0,357767504387
0,354336785335976
0,350151063013582
0,34943517607409
0,348849710616933
0,344089814260594
0,3482185912283
0,34647744319682
0,348580125911196
0,350113617579385
0,352298941425145
0,345475043418186
0,34375984618644
0,345290439550337
0,33855151918395
0,339193370945037
0,342519678697863
0,344095278215426
0,34298346386588
0,341853658510297
0,337427689756958
0,339855741361517
0,329638724213618
0,335672560523484
0,327639720580598
0,334752912675657
0,331417037869506
0,329678607652175
0,323493524205802
0,323414714412794
0,3104142361476
0,319929899852336
0,315318909102447
0,315967675633233
0,303868940817458
0,309726339018247
0,304771130259016
0,316112907978091
0,30255419286345
0,302049306499649
0,307086132848906
0,306119476947714
0,31554543615821
0,320850346250854
0,313345590968835
0,312305429450177
0,312059262433592
0,320614619930626
0,308390414263723
0,317314790472753
0,319542293662884
0,328730840040441
0,32600300704924
0,315500007139595
0,311800461449509
0,333535570999799
0,332738915910965
0,333659426882738
0,328062728097491
0,340103568694413
0,339112905878568
0,345305111050779
0,356582984103908
0,366328745972885
0,358592145102847
0,378815824914367
0,362405596810092
0,364165318720681
0,370481860977462
0,383730084274566
0,389539814386116
0,40457981604382
0,405867837771873
0,435775636058335
0,443151120432295
0,447536001704204
0,452319223145509
0,455116335719118
0,447457416086852
0,490790378459619
0,502687782968766
0,519176109603513
0,497501350490742
0,513249002167375
0,504538757591161
0,540818603405937
0,525809257473069
0,536353543150909
0,530818924847802
0,520973851866689
0,526922667060427
0,535458142316064
0,533978868576695
0,541401325004397
0,514204161672565
0,51949983499481
0,521371239318024
0,545513889899688
0,54435193757673
0,552379378649032
0,523271580174219
0,54168343234395
0,526697945440295
0,548427592749518
0,537084760927641
0,522785978355854
0,512620138434825
0,52784846350216
0,51763589883795
0,503222307301838
0,494844993481844
0,535360169438293
0,514191379826916
0,51290992680015
0,500600748401187
0,513619817174685
0,51871264019016
0,516033349825596
0,539642660491084
0,500096089511156
0,459760462476597
0,509983096242457
0,498809262890357
0,514022386495232
0,484523128760671
0,471453056923133
0,499536194127976
0,487985710816872
0,474421593586439
0,510200602325286
0,497227746460267
0,499193837780952
0,506835509719416
0,505377103662892
0,515346829593793
0,53838227113514
0,497738054963357
0,535351133501223
0,551406285969349
0,548899640087198
0,507540176600788
0,517298771595913
0,523272593014051
0,501177354555555
0,496255317557655
0,573554642193791
0,503473613243407
0,454144048530224
0,540989492068654
0,566738285175604
0,493525270272972
0,550795589385214
0,567144568138835
0,516902088997186
0,531399116696548
0,546117478757467
0,550881513262611
0,641914228709574
0,624071666714611
0,64386870935015
0,580345168440796
0,568170545571679
0,639105148110329
0,617603590438186
0,593223051433994
0,735564134425238
0,68194453477264
0,630599837724283
0,604304012006859
0,67409201185449
0,753325472864597
0,775699895682062
0,667544132905902
0,775908607108434
0,76911567061216
0,674716072758434
0,645189370222829
0,703022381258294
0,668873516802191
0,648966061130097
0,641937656164084
0,683639649520396
0,667825447547017
0,70141062797866
0,719029294485889
0,599350387943386
0,605665749554505
0,689883393392443
0,627428219785755
0,679354182728593
0,619165739284888
0,683245468811428
0,62424664853976
0,645637811710211
0,660784491727088
0,697509931743009
0,857022965253726
0,745961009580186
0,626192886040966
0,652866097697072
0,609834703763196
0,645933373402277
0,611115327680433
0,609096590456933
0,718556353970123
0,667159258993019
0,719969867165693
0,664305123046309
0,572887880164937
0,822461919321952
0,797999374140873
0,716983641295126
0,5747981188395
0,641964547627986
0,592187527537511
0,714272120304588
0,712462325648069
0,700030904055802
0,581157313310923
2,1678969022324
0,686784861815405
0,618637984366575
0,848230400838078
0,684215511000936
0,746256822289344
1,76386651538533
0,725520462853859
0,441143691565173
0,734907552508253
1,02188373080255
0,814550576302471
