3596
4000,36533379555
650,420452594757
1
2
2
0,0491733481621037
0,053383773942328
0,0499049708452735
0,0464608703498347
0,0515879008150536
0,0584390475402616
0,0505183535238542
0,0407460962366374
0,0593594414364586
0,0601818869684224
0,0555978875591166
0,0508535949496247
0,0551527968724571
0,0506930716581692
0,046236273125686
0,0509700590452811
0,0464413809031279
0,0469083375518106
0,0499807926866583
0,0540054433983111
0,0534365126004376
0,0515882641525093
0,0520140345310184
0,0499424084918634
0,0537329746744562
0,0579024294937135
0,0554339062699186
0,044018491871827
0,0588829578284683
0,0559673696354038
0,0534341281930692
0,0437438842038318
0,0531754522048533
0,0517928021868799
0,0486084072917919
0,0521453715126999
0,0476125642453722
0,0471976951851945
0,0526978082845657
0,0461339296920544
0,0534655149327744
0,0517907311659958
0,0534546673652617
0,0460591090857271
0,0507325080676871
0,0488232584270658
0,0527255155007551
0,0498428689787938
0,065037179668591
0,0522116529019878
0,0499750415033534
0,0452470133830764
0,0552199269604603
0,0583068184963167
0,0573202516908775
0,0491879394760451
0,049350122398697
0,0532845704240397
0,0532491956511162
0,0419122969951072
0,0622180296602233
0,0579577456302518
0,0556525674791734
0,0468218976864389
0,049807050954854
0,0429654280508475
0,0554974424942757
0,0497353224111307
0,0485647913858256
0,0440406339901633
0,0410250997998423
0,0532749091311149
0,0569713885115853
0,0429544282521106
0,0552139148433266
0,0500791681532982
0,0447747200054406
0,046113007951538
0,0469695596221322
0,0477121139795574
0,0526676624186988
0,0470732214202294
0,0575883013244392
0,0480530835564848
0,0507761027073148
0,0586239631414834
0,044505392856488
0,045433900883303
0,0701975749926559
0,0519501308090231
0,0453120526304819
0,0432406614337106
0,0478336649376867
0,0414729980650437
0,0506075597219764
0,0556220054444239
0,0426998436285576
0,0422384408720459
0,0416857765029506
0,0539888682393521
0,0343702901861316
0,0596255807518279
0,0559593818957015
0,0413380936246556
0,0570538898684873
0,0378918709233954
0,0518023298797824
0,0614172519184085
0,0635538776669285
0,0494207995190581
0,0536702741740654
0,0406846344818518
0,0539196150145408
0,048065678775216
0,0336750014623158
0,0565813850415755
0,0676496569582962
0,050816904811805
0,0439878772127278
0,0435726676651872
0,0219655528009922
0,0544213460545759
0,061704982185426
0,0472318582408848
0,043917529925663
0,0501462170319348
0,0285690928112873
0,06304169692894
0,0552631410674619
0,0511292741104919
0,0475232236333226
0,0513755061665598
0,0274922876506757
0,0384762953406911
0,0689697083244553
0,0493023557136109
0,0468996518345908
0,0200171972247154
0,0496104431767978
0,0836085089269405
0,0700198848361148
0,0452536061898274
0,030886987117002
0,0341484068428664
0,0646516524893206
0,0386282729549357
0,0359003360234816
0,0646052260710914
0,0471871171270644
0,0399478135771995
0,0415702284513255
0,0419283917636281
0,0500126278308036
0,0463714014275509
0,0060144814287161
0,0544451809380309
0,0553334338472767
0,0707633693733233
0,074369707695383
0,0551573457107063
0,0504615449870025
0,0433318638084719
0,04338802408538
0,0379828144242528
0,0478163329563056
0,0279810083660235
0,0588048832398491
0,0557140021003008
0,0461528598608272
0,0467160780391833
0,0744836932184703
0,0431207274500002
0,024955250189464
0,0742189169520126
0,0443075869090363
0,0403583910876846
0,0600251180850625
0,0581310237170436
0,0350768437269364
0,0459790073185044
0,0549624518124065
0,0499072595106526
0,0458525327382558
0,0370698423677573
0,0424244639226579
0,0525214085168673
0,0429839643483955
0,0483764893642175
0,0394740380981411
0,0315612145631462
0,0370238756874807
0,0644682643982816
0,0648074022453774
0,0578434217004395
0,0430584545826716
0,0196484976350023
0,0662600944899244
0,0591591125410154
0,0540489812712025
0,0368916878066376
0,0383234527929002
0,0456800066468887
0,0422099543031869
0,0420555878954169
0,0362622522166577
0,0229798351780649
0,066387426834339
0,0567952953864798
0,0528899818406086
0,0367007189148612
0,0377674025520882
0,0146705078430523
0,0831441147764749
0,0601427195733021
0,054812723131776
0,0358294763324632
0,0388047532274005
0,0413322520556661
0,0445582254901473
0,0454671952402504
0,0440890770477486
0,0394075343780697
0,0476930782134792
0,0452524733941162
0,0421153671953852
0,0437255195169057
0,0477774119031511
0,0373610668071378
0,0417328477625625
0,0403396400624576
0,0559246465278229
0,0434198275143816
0,0460673688921389
0,0491543129876965
0,037718354385496
0,0369098230962516
0,0508638540082273
0,0427070679146143
0,0500420944023565
0,0428469256661349
0,0407641515158521
0,0431891327753427
0,0417459651833149
0,049444849825897
0,035779734549791
0,0415528509730839
0,0689026017050527
0,0473235226768703
0,0459081180629958
0,0216163295437543
0,0605112930838463
0,0439195746075915
0,0526377261819431
0,0303105543533732
0,051408371050375
0,0319973267984479
0,0393161875844189
0,0512880321663197
0,0625326578751453
0,0259946524207437
0,0518684747474018
0,0409835506705002
0,0560964619329493
0,023950250704674
0,0294329094465372
0,0847805096747404
0,0462912897068465
0,0292892227978609
0,088027338708177
0,0501581531014372
0,054026776170908
0,0223691844930054
0,0154892497325011
0,064962327441326
0,0938441463609502
0,04178443795528
0,040226544164418
0,0542976237329809
0,0450033122894965
0,0500752966235146
0,0413533793022244
0,0534157767797478
0,0577401422672263
0,0617543258343959
0,0683025579606603
0,0293989821798181
0,069385203349545
0,049816470911213
0,0565526160055646
0,0393952058563099
0,0527229826547446
0,0251307736196355
0,0592499624298292
0,0365000867815994
0,0621087678592513
0,0359153951729493
0,0476124951199708
0,0451215977846255
0,0575177295827252
0,0400877706643466
0,0533582011523459
0,0428744015715739
0,052775359789906
0,0340971353860736
0,0433376890691766
0,0531977601385241
0,0337028933008126
0,0279924245148467
0,0931592611276661
0,0395602882631486
0,0545847929815732
0,0567381235954303
0,0581629589905013
0,0391486352719099
0,049607191909756
0,043931898374927
0,0554897643864798
0,0384754994126914
0,0412399225007066
0,0569085347103458
0,0549508073810124
0,0523962447176509
0,0568246344050858
0,048695385402346
0,0484611339149672
0,050317842149774
0,045916649231018
0,0408997115020914
0,0521374840619669
0,032803331763675
0,0597145361992913
0,0650574811601626
0,0380736174509332
0,0652729279209748
0,0646549735172993
0,0557415141561731
0,0519265025611915
0,0499428923593318
0,0573657773543726
0,0482859155747528
0,0545587815712779
0,0477554686221293
0,0546511697686816
0,0599798117392449
0,059671175414576
0,0519738267800458
0,0399303338415276
0,0682622565886899
0,09906230665778
0,0670475987916225
0,0692324133496744
0,0317855850006392
0,0961067085855217
0,0543004638107579
0,0861603233197028
0,0738330398100366
0,0665128514801941
0,0538194558710605
0,0668127086133458
0,0562452700116695
0,0648760362704309
0,0649703017686569
0,0680707282566483
0,0675125258697828
0,0648384286770246
0,0764005555999297
0,056908105664434
0,0654910415255427
0,0968144626403956
0,0750290750713666
0,0799258316566023
0,072234243879454
0,0622920144958621
0,0889487241499318
0,0843085325143205
0,122009020019559
0,0845667668442194
0,0942782437635284
0,100827303546417
0,0937763886474677
0,088863116606762
0,0812681063984645
0,0913802092816539
0,0840368179185586
0,09610316045381
0,089700623886269
0,0939368704247371
0,0966607337100233
0,0963146440792407
0,0946368951167369
0,098131443052031
0,100099472599597
0,112418215092572
0,0935015014818373
0,110726755311084
0,0842332108127822
0,115700180170233
0,122258761652007
0,164687404735326
0,105738996143958
0,132597804447316
0,105394782620145
0,126321621712146
0,101353822970471
0,131333841446647
0,11867484311038
0,124049787274751
0,145386263707203
0,133509016678607
0,146516621192331
0,147002996931083
0,119419846485025
0,150703894282255
0,116705781314301
0,153721671088584
0,150285860358719
0,164835417818538
0,128028887074675
0,179564113311354
0,146029341275076
0,16261532959941
0,155404619333153
0,161270958255919
0,150323464331425
0,164475718623469
0,155683748833534
0,162021062046012
0,163756382480477
0,17512335635396
0,158266364599544
0,176736565936227
0,168621376088382
0,185515414592056
0,184085982757394
0,18823096093336
0,184787215453796
0,207095297845545
0,17682829008676
0,207384366913426
0,168103653584402
0,242991855895817
0,190011341338084
0,241955825620952
0,207187965869481
0,210920983328618
0,193752539644123
0,215226380264139
0,204293661092198
0,219690346220194
0,210002182554609
0,240013775505309
0,223270020082129
0,2293148549596
0,221382774533924
0,235058923706815
0,225375948878909
0,248669069561924
0,228458181664851
0,255352249283247
0,247494087133294
0,274331398023171
0,23075724369234
0,29389769564391
0,257271333777678
0,292305663992385
0,260564386162344
0,281337466879594
0,263510541628913
0,285334757817752
0,27371231879464
0,28364652510512
0,274335534862105
0,287543993274517
0,271019550101202
0,298704701147792
0,293173069213356
0,312547059317835
0,308446595254463
0,315366023403248
0,303346432746959
0,330686753988498
0,313391548425093
0,328977220689948
0,296235889188596
0,338247700229419
0,332302661836355
0,354430506326075
0,331896817161052
0,348125586445447
0,332153578213412
0,357086060184907
0,337684251388314
0,349670104877818
0,34230837675916
0,378595260191713
0,352765505062524
0,370899297845685
0,368756788149826
0,401781410791081
0,367464668271157
0,40233624791002
0,385587569780225
0,42091759099537
0,371319335004505
0,42233555975271
0,378273285098862
0,422115787402414
0,401576820341659
0,445470199313091
0,391822479032701
0,420565384448728
0,421200300861974
0,44287195662617
0,423966228635019
0,455008291115411
0,419258269702885
0,453478019019755
0,445846266800563
0,472733145578315
0,441015061420568
0,472899167088629
0,445694268180087
0,483418918423029
0,461739378205756
0,499947822552952
0,46862988624279
0,507248448433375
0,475454675818971
0,507270406666283
0,484154330243224
0,529005826977251
0,493215490467639
0,498990662061105
0,487419946161427
0,539712092191871
0,493611519196481
0,551307145538502
0,52580010915676
0,558171842784301
0,521714357540282
0,559688731905072
0,532083222846215
0,566836093547725
0,532278459324721
0,565763705598465
0,539680067415867
0,570765638030239
0,542578917867381
0,606817318108223
0,561141411632319
0,589037713680764
0,555425263820352
0,586056862136926
0,589060571701438
0,660587642763846
0,598838669882039
0,618673988286025
0,595499366039205
0,654330630728032
0,59425666130943
0,615103161250535
0,602150750684872
0,638509216144545
0,619688546574331
0,66597825080423
0,604682976635538
0,665038998669525
0,625665561420184
0,673925562550668
0,609212631796084
0,703936917331471
0,665282821222094
0,703523694011805
0,665117397629506
0,695754034547542
0,678887165689303
0,709244749863492
0,7001023358049
0,697130857836482
0,693279271358057
0,698799833206395
0,704431303576913
0,747855642455369
0,706382308255818
0,768958481054837
0,689345174347009
0,733673145015965
0,703524978217456
0,759072726756722
0,720318351050101
0,769399423027197
0,721292634342998
0,787067810161563
0,744455211225564
0,788330057039137
0,731839126783595
0,78387952797231
0,741209088549867
0,794282420713809
0,755315294671643
0,818400601773753
0,754227995086535
0,773885346872615
0,74828453771997
0,832406988954155
0,761511538738672
0,797438703705098
0,784632356161384
0,833626160622331
0,783962023286019
0,799177184998679
0,810735727736692
0,835575514737195
0,805165302611309
0,900455688196695
0,793170203125598
0,823867801717157
0,773480769276402
0,871219715230772
0,839372056276209
0,879180196470274
0,845487836280423
0,934210445493748
0,856096212133494
0,926681396176467
0,849695976241981
0,907168310675873
0,817582150745341
0,866280569608337
0,855641830363116
0,892105186384997
0,852135500551415
0,902593392288858
0,82200816889296
0,917337346744742
0,87658037616983
0,907159993071313
0,879857801743576
0,909926148856869
0,87997492173461
0,887949045719202
0,893569609352532
0,890903067562024
0,891893517558628
0,963742498172018
0,87751504836706
0,962163611344832
0,922214225033757
0,980255945969588
0,889663371845952
0,939058397040053
0,876225403132687
0,995983557406345
0,951596366834963
0,997400807757808
0,935594512235949
1,02531416380142
0,998381309893438
0,960776806465328
0,917159904865089
0,980867554952897
0,931754752725491
1,02976630653181
0,930957107050858
0,99513809235381
0,981377253319576
1,01485916533216
0,941443378082443
1,03480595879029
0,988889084020832
1,02298477316041
0,959105899398759
1,01617067918368
0,948757539043108
1,06972532616975
0,944593091239059
1,03350828021517
0,947437153433391
1,06078752978972
0,942684180646095
1,1036371334619
0,963179772352317
1,06188343663035
0,977113237876636
1,1253065204271
0,962274348849772
0,997750018978175
0,968153315321551
1,036802922695
1,01100980996566
1,06480929466661
0,950661068260847
1,01369656185464
1,01024447569747
1,06906410355402
0,938784258848417
1,0812590283063
1,05102919981901
1,0622718569371
0,955460826017565
1,06445117640076
0,974715380625708
1,04287434247481
1,01363614141402
1,07023401156881
1,00665534656115
1,09840048482209
1,0340093242851
1,02292892826946
1,07555439988319
1,06098126390111
1,0202585088267
1,08402933766933
1,0363175445386
1,10090454608859
1,01225880500761
1,13706070244968
1,03875119505245
1,06379934782536
1,0049181417587
1,05311618019962
1,00640373119336
1,05151801746806
1,00283973570547
1,11611791458373
1,02262106738995
1,06866903464718
1,0360268874873
1,11288942420307
1,01836437373369
1,04914811581621
1,03793457226294
1,08450859406052
1,03873909095691
1,08712188362998
1,00804011691433
1,07690089027441
1,07893965461456
1,11134962711304
1,00831498758548
1,10557052887493
1,01038558868076
1,11492832536354
1,01260858176301
1,10088200739561
0,987694007983576
1,07147919092298
1,04273870370585
1,11650097766847
0,979667017255797
1,09997071887151
1,01761825734768
1,06684084352161
1,05885203342964
1,05170981644307
1,04234549055531
1,06983978464571
1,02203103275569
1,0953113855377
1,02369048714878
1,09954755520178
1,01742379856437
1,06312626273859
1,00338060929823
1,09720002132649
1,00330472490945
1,05884072862453
1,03470762576983
1,08415692034954
0,981990242101232
1,02862270606951
1,03950601504003
1,04746620323961
1,01022000102558
1,04037012360783
1,00373233939156
1,06364203583762
0,993799279472788
1,09314758904417
1,02253126957082
1,04716349070332
1,04751648273415
1,02849378962453
1,01952394743505
1,04754079917821
1,02315514910571
1,09640860845646
1,04356396673153
1,0394971287461
0,992898237459045
1,07231083694817
0,995063934147212
1,007351447011
0,975061861797309
1,01726069774559
0,965264437096874
1,01413718239855
0,964822679713875
1,00026134308417
0,96935935540108
1,02544469865331
0,96062001826376
1,00618087998566
1,00084818388208
1,04715051225285
0,972905699228633
1,0156682589651
0,926882960463979
0,988969046592557
0,980966477139358
1,01713697374769
0,982040321837328
1,03362383329286
0,949284249152896
0,974956007084001
0,983358224570365
0,977410918669912
0,956567641106435
0,987205124866923
0,926138062063903
0,986377292577469
0,949928398856599
0,957101485171287
0,93298173688869
0,981073816564616
0,930802929242176
0,972136696448124
0,898016309142549
0,937242453360016
0,935008866100132
0,95499384416577
0,951559269944421
0,941664316130872
0,883541186383646
0,949011880650733
0,888908140032948
0,935165111226769
0,881489599987832
0,96820065716291
0,896878267119105
0,934464449308031
0,891575015169096
0,877404615351115
0,896588921112371
0,927842239007853
0,863869572227142
0,913555455226603
0,876843235252043
0,897632252182569
0,879267774962625
0,897053601551128
0,871583016665807
0,906392993510507
0,863803622546976
0,902732848558688
0,845457754766747
0,866538478629554
0,836060541528185
0,899902932376239
0,835229518950193
0,865629485159438
0,828357642663237
0,837571419451538
0,834581881276753
0,864627600090093
0,838190362013124
0,852643801904595
0,817825299387225
0,844123790561715
0,804851340208429
0,822348894504428
0,79810237945914
0,819353245284353
0,804210421236058
0,822028847552342
0,792431568374588
0,810493971658912
0,786197329503546
0,827254351400336
0,767983374377794
0,797469570231101
0,781698336774909
0,77885538493692
0,75605261198387
0,791074296989104
0,77920848015326
0,785393798820021
0,777230376321077
0,774161905489193
0,736377735337823
0,762056792674829
0,754119494791682
0,758604925980966
0,729386033037423
0,752029613685671
0,717883900451321
0,742098766405535
0,720678644236216
0,741382291186501
0,715185583436026
0,744566658670147
0,714238445113443
0,723616031043576
0,698936163270621
0,720405916921443
0,694599436896411
0,708183941448415
0,672264965273267
0,700158035861206
0,675809985862319
0,704743480746976
0,678197466178432
0,696853169421485
0,661190286975594
0,696654230089857
0,670034248371501
0,673679710159376
0,65649779658941
0,67431807010317
0,651607399040614
0,660744409028548
0,638030138650042
0,666109136870476
0,645715906468636
0,65754868191025
0,630321174824278
0,648230012869756
0,631749025091527
0,643031402579184
0,622032477386796
0,640351154810245
0,614447337533419
0,638244013213429
0,604683997383688
0,620398692642727
0,601026308828588
0,612809141205142
0,599213334110808
0,612237678153455
0,597767811318275
0,592792115869263
0,593828759597848
0,604249367788747
0,577663838738814
0,59816735997218
0,58250399788362
0,593175670904932
0,569204624990778
0,571739455382963
0,567450806608804
0,570573768587336
0,556388332810507
0,570497673640613
0,549059920961978
0,567851032829453
0,552125716725981
0,55172860946698
0,54868886676748
0,552855589659582
0,541685331129435
0,541045652499805
0,524498153861714
0,55159956610145
0,521529335439067
0,526099530076941
0,528972860321388
0,525348741197008
0,515629300564198
0,529010714062647
0,521058266955623
0,535038369990983
0,498011460835819
0,511049822713058
0,507223506664332
0,510438686286557
0,496917356536642
0,514518859704346
0,49290275149928
0,500397419741516
0,486655720122148
0,493010549197713
0,481126028409792
0,500652745869976
0,481107415217853
0,48172284958893
0,479945092280318
0,488362580696911
0,470641935871802
0,474978671204713
0,452839377730013
0,486840620627355
0,446593005344713
0,474197962696636
0,453642067219831
0,45825481370157
0,457306871769105
0,463341532565001
0,442088451864395
0,461164990164803
0,440220818173736
0,447330913237636
0,441793439424324
0,451201496535678
0,432319426291665
0,443932148036714
0,426463689080769
0,445731503178019
0,423058728032819
0,433630536480831
0,419458520870198
0,428757385383247
0,413852624758096
0,421234216128675
0,413687601998549
0,417381148853859
0,406610758931892
0,414950485377383
0,410928842681884
0,422152520994422
0,401339802030401
0,399255181662286
0,400597334957528
0,405172708380085
0,389362829211123
0,399929645480697
0,387747880148393
0,391249844313324
0,37955715823049
0,392397420276791
0,383225325174999
0,385672276182356
0,371987828214023
0,384349315723155
0,376689847647145
0,380054606828272
0,374959522647252
0,372914879535671
0,362763476252055
0,370720377847747
0,363699755245254
0,366671059882461
0,355639687633971
0,366194487701627
0,356102525597332
0,361638739813884
0,350988333616218
0,356633494856354
0,344603437253348
0,347905232098745
0,351639731677703
0,355405078932443
0,341977688787307
0,345221987934814
0,342149022861575
0,351700262153278
0,333466207812064
0,337905943287844
0,328129156106179
0,337601612638212
0,336433596902606
0,334034039068969
0,325851756664742
0,333044153053694
0,325426833065591
0,325946709088329
0,323034639512237
0,327673076444451
0,319803469350795
0,330201368414598
0,317036640294002
0,327983329407855
0,320855726409064
0,329084490047445
0,31777720058556
0,318247792902008
0,308563654370067
0,322167473180079
0,31254381618286
0,324188180639609
0,314032317032619
0,321021172266409
0,321936009764271
0,32992379577669
0,315155741740952
0,31424946607491
0,313621902696844
0,327500429164458
0,32519325227352
0,328428257785478
0,316208215070681
0,325036594240334
0,319992932824104
0,331521795979889
0,332558350084403
0,330943653036131
0,325764877003518
0,335541492283771
0,336855915516063
0,341664856596641
0,3301191262882
0,345308167569988
0,337149407149269
0,34580310089022
0,336332622501073
0,34744902006673
0,348523529770185
0,353318867037883
0,341787515616935
0,357413411624625
0,349280201516878
0,361255380961801
0,352044708296316
0,360420559744353
0,353342038611651
0,367313740827528
0,361601486490602
0,374503447340753
0,363445857710223
0,376952168287769
0,367898312489639
0,379340009396782
0,37457302112311
0,383821331083662
0,377345621771608
0,382871777362786
0,382642534153433
0,38609383332044
0,385239250368729
0,397143747121217
0,386442419303149
0,401863071085316
0,399234168299561
0,407492468580331
0,396866795540391
0,410715955854718
0,404535732991215
0,420916584977282
0,415629109134287
0,423540348495191
0,418535950990428
0,4331080081283
0,432824833355258
0,437282980136174
0,431985270601288
0,443140246350627
0,427611000489141
0,435621561787111
0,429290127435886
0,442482013691656
0,432069640059458
0,440555300524262
0,43535419761077
0,444586279329505
0,437450710469178
0,444551240323327
0,437111293052216
0,448463632968388
0,436425611838663
0,443332706719052
0,433030908173445
0,444014641394233
0,436417461978286
0,451005864131849
0,436577568825244
0,437946239553089
0,436784137549774
0,442809031067848
0,43544512833957
0,449419624958327
0,436807188125479
0,440868715373959
0,436413723814776
0,440960842852929
0,440095055461646
0,445374709952301
0,434196317377188
0,441701941703538
0,442543177640931
0,444748727883938
0,433108136971049
0,441940451622501
0,43668436401369
0,441405059946548
0,435040984944257
0,449045349897596
0,43876368666529
0,449571124307573
0,439891159062669
0,44962543684701
0,439850880200766
0,443359186001448
0,44237708016184
0,452306815322548
0,433646439807434
0,440948347390751
0,435809161281439
0,444296008957349
0,438188539974423
0,448612484881591
0,443838915893648
0,445210496281525
0,428023880355966
0,437760927028311
0,429888098224827
0,443406385204139
0,430617950466271
0,439527120701526
0,428801260460207
0,436346050919601
0,419869851366463
0,426376128146753
0,41635620737625
0,430172107402337
0,417519996645989
0,422136140503156
0,413972647407651
0,414239513580438
0,40586975981822
0,410524395865647
0,399011941184901
0,403336124696717
0,395391829399617
0,400801687732338
0,391328194548836
0,382659352980733
0,378107823240675
0,38977521921563
0,378158227333286
0,379857817931841
0,358889509761304
0,365536723235606
0,352977798193577
0,36711527355959
0,356092791225521
0,358242401272693
0,353470730623171
0,358915018608142
0,345734664672534
0,344915588852225
0,336648843310155
0,344314678811099
0,32894592378697
0,338256420395703
0,336269773737099
0,33675131346227
0,324367451394893
0,329939021104738
0,320705281776617
0,326430593313073
0,319876995970954
0,32215834332642
0,315560505540201
0,31737080991467
0,305225451773167
0,317785263527745
0,313900964689808
0,311414843526896
0,303331218281757
0,310676389370882
0,302896971650915
0,303074895498978
0,299202205067516
0,302720214196545
0,295665450718442
0,300580480970694
0,296322872587457
0,297232780099743
0,289468927081324
0,295088862329586
0,285339390043047
0,285109678972393
0,282067077797141
0,287316811319382
0,283210029602243
0,28544871951473
0,277591955914523
0,285036592915071
0,275706039501472
0,278952208440142
0,275325867132067
0,281371434265338
0,267773350953151
0,275235457306151
0,267123554128565
0,275437133227205
0,26571835248831
0,269488936141533
0,26782252609886
0,268520387332607
0,262563620343328
0,261306250089724
0,259029326895186
0,263374371585258
0,255537047695792
0,260811475174794
0,256390317583397
0,257979138824126
0,248703993411896
0,257030227967948
0,251418453957169
0,258802212367955
0,251060268681566
0,250434067068309
0,251755044460289
0,251139571334166
0,250701868593065
0,250115754695835
0,245156387616448
0,248368666454131
0,245855053189137
0,250944243690541
0,243728325318627
0,245782988296589
0,239837141996917
0,245075405462009
0,234816494315781
0,247134374572509
0,240427743510857
0,241615611311411
0,236541810039789
0,241570154343103
0,232299315651297
0,239876165002876
0,232066261644374
0,238407266964447
0,231443051834274
0,233323510780871
0,232289068426344
0,232525589335149
0,225199198301482
0,23137027849836
0,227005592311873
0,231810525049479
0,226149558896802
0,234078709068768
0,226931661561963
0,227497836712811
0,224673073179674
0,227680496969192
0,219127059995737
0,231890456574116
0,225768344643799
0,229805535905166
0,223513571384704
0,227871710688208
0,220178102354799
0,225679183644239
0,21872626806363
0,223058222301363
0,217760400152183
0,222357518801761
0,218488326591953
0,220593649336372
0,215001377113576
0,225281952012012
0,222095277190292
0,225270756409994
0,211199328626143
0,216226804301408
0,214754932801526
0,218371535702095
0,212462789055728
0,217863321636798
0,212595558969338
0,217386487120662
0,210497240829367
0,220958270659779
0,212977240959686
0,214176223048451
0,211131235523288
0,214235158300494
0,212752774303818
0,21517328071239
0,209227040781948
0,213609025892209
0,208615134447397
0,212656345876856
0,208295905487453
0,213818133681549
0,20860288256449
0,21278861497867
0,204076571895371
0,207456888926686
0,205513583728297
0,209480642673782
0,201783292079513
0,209654249783729
0,208782752988987
0,20646346015505
0,201068746985049
0,205962172030995
0,200573235437026
0,204161088110211
0,199236026002664
0,201526462933104
0,197406060745374
0,200686146528413
0,199448337551128
0,201227018769437
0,194701975929612
0,200480636598331
0,193676769359851
0,199307436608378
0,194640668842566
0,197370964151053
0,193594969048461
0,199107257663446
0,191153143917084
0,194612230821755
0,188090394204785
0,194927127241783
0,190909154633587
0,193347142604637
0,190205762699018
0,19516520385555
0,18983578959076
0,191366072503381
0,185019891201768
0,18769620060728
0,183188869089148
0,187039179224976
0,185961955326464
0,188227970645469
0,181444639546161
0,185346010761019
0,182266029288677
0,186115214333748
0,180649762890295
0,181192748774526
0,175918409078907
0,181836638093442
0,175640692620943
0,179893092254005
0,175708834590741
0,178826529621419
0,174551328689858
0,177634133814807
0,17156145888496
0,175622739445951
0,173855649547295
0,176665049587787
0,169389134558269
0,174553145804112
0,168361883898781
0,167707406978195
0,165778554674779
0,171226838670451
0,167497971074224
0,170814874665206
0,163103137573828
0,16573718328521
0,161705619296399
0,165169050638203
0,163836484509439
0,164195893652326
0,157831740662152
0,162814832191847
0,158606435602255
0,161326558798833
0,15483229006614
0,16008847935215
0,156329391959817
0,157000925514957
0,152227354111834
0,158349466417115
0,153765703979838
0,158683880613768
0,152217455981228
0,156592191055161
0,151999908064082
0,154154529658512
0,148109302951019
0,150828918788599
0,147711324464534
0,150473869182198
0,145854142772692
0,14882527286258
0,146566598123038
0,149174403060055
0,145073132631822
0,149210877969861
0,144286569047174
0,145062926495102
0,140434403265887
0,145789367636806
0,138751439425064
0,140793367931983
0,136337401628226
0,142446611983477
0,138228017410492
0,142043529372015
0,137441338598865
0,13640151879152
0,132458274624954
0,140334296288916
0,139738804813877
0,138669957670268
0,134094894603251
0,136282501348849
0,131831522224465
0,134153087257489
0,131631602552899
0,133429503153915
0,128327831791173
0,133297378833668
0,130660951456837
0,133577732361912
0,13003302731934
0,134672259993048
0,12900099344414
0,133513926548369
0,127755808095527
0,12689136750825
0,125078115667126
0,130129158203152
0,125884539123837
0,126333844992906
0,127649690567666
0,126845793735801
0,123287520507698
0,127467609200179
0,119563551924194
0,12062269077963
0,123291621293395
0,127095671268285
0,122668674121832
0,124126048536483
0,122324592669739
0,12422559329686
0,118314154015003
0,122636181391234
0,11980054395115
0,12360360399009
0,118748948136715
0,120418884957449
0,118948535701497
0,120742321272982
0,115369888467286
0,122265777303831
0,116062124945045
0,120904313884559
0,117413029165999
0,118475276447925
0,117436793167133
0,118716635059001
0,116571518433839
0,118905728109125
0,115938689502633
0,120069893782447
0,112522480694427
0,117699193967053
0,117421282739314
0,117282926827673
0,114744358835497
0,11928154546453
0,112366603119127
0,117239682324091
0,116091877590727
0,116353223304889
0,111503566194353
0,115582252090617
0,110852687629755
0,114559648997521
0,109118183854085
0,111739890922847
0,111960585699132
0,114308446848841
0,111935217385209
0,112287953651632
0,107006670254127
0,113571020339479
0,108364104107117
0,109874926624477
0,107679528354312
0,111581584713003
0,109728890030629
0,111812934773696
0,10582288661501
0,10820120671327
0,105263847576412
0,107708519119336
0,108530884464374
0,108489733685533
0,105787119802486
0,106761215037658
0,104802084132502
0,108917161478215
0,106464431442097
0,109503342225969
0,102530468390279
0,106763091386523
0,104738498398545
0,105922001128532
0,0995839627811759
0,108347811577306
0,10148325909669
0,103475458538418
0,101769840831079
0,103744580886794
0,1032240456073
0,103642310902721
0,10125319239424
0,103344103794668
0,0989266347330409
0,103990332691877
0,10076399453704
0,106922872101608
0,0993326426266661
0,10071348835208
0,100653598451379
0,102200338597542
0,0978647767150036
0,103453899939571
0,0976894995761879
0,10105296239088
0,0970590821534853
0,0995275376598073
0,0974568230125411
0,0994290419119213
0,0968518311893404
0,100483044677713
0,0953096082857883
0,0986572590618616
0,0953087406026912
0,0967253942593344
0,0941015801723328
0,0953324155987461
0,0946314926500974
0,0982219524892768
0,0958513843351032
0,0956558015462954
0,0927841711982432
0,0961005967925058
0,0890682890772413
0,0930830134273224
0,0891396496838299
0,0939978444937928
0,0919470190304917
0,0921039541778683
0,0873680764025091
0,0906062529358979
0,0894763622980188
0,0918043789078954
0,0883950667242419
0,0913072966903212
0,0883287068943547
0,0884212937306375
0,0858187258417087
0,0889173698734547
0,0854692714843217
0,0900865562732545
0,082872274505792
0,0874681581058107
0,0825956893041833
0,0862054884943927
0,0842450322885055
0,085082563544561
0,0814527164017252
0,0842991644182423
0,0816789093496882
0,0855361189306468
0,080163313866784
0,082892856836943
0,0785330633231237
0,0829953304091559
0,0810183811944559
0,0824484663028925
0,0796480607071105
0,0811671357934912
0,0763514643254647
0,0801241017977656
0,0782463742202281
0,0830786459421691
0,0784328949480013
0,0796886411837933
0,0758850387726835
0,081138549072732
0,0762634415923638
0,078969137105993
0,0752716397756158
0,078719656046207
0,0769587981209977
0,0797600725372819
0,0751618075240914
0,0774170209587344
0,0733582299449097
0,0776291190015875
0,0717544129203279
0,0766453814469805
0,0719313768225521
0,0762674658423966
0,0722538809632176
0,0739376079663083
0,070497829597647
0,0741115897924774
0,0699085929468885
0,0716729411869568
0,0693812107467178
0,0726565236487283
0,0666863717073063
0,0718857132338418
0,0695197317700589
0,0723434822587366
0,0688692845967721
0,0680745020374805
0,0670875194041463
0,0685011285983744
0,0656938093904886
0,0693368306758866
0,0639927443007611
0,0696765457788721
0,0694088750155577
0,071144728502013
0,0634556693768952
0,068152309195805
0,066699509759838
0,0685032727124622
0,0631617491376254
0,0694495776371241
0,0676795853121835
0,0662656363717542
0,0641106380226965
0,0679847877509136
0,0628998205383644
0,0659919059626376
0,0641562616415841
0,0672947826105624
0,0640616334111578
0,065447754470789
0,060979088673594
0,066952655671602
0,0652957440450985
0,064557930172989
0,0628978795849593
0,0673242338015486
0,0612251994744787
0,0617176726810947
0,0603816058828353
0,0673743456408331
0,0614540872363119
0,0660939558320481
0,0594401249289288
0,0639722042871411
0,0618096434535032
0,067282035773288
0,0628574758366061
0,0680215894322161
0,0562695935274127
0,0661094164840311
0,0596081270856201
0,0694748225576899
0,0643170747823214
0,0761031457113448
0,0620779359149753
0,0652142127751212
0,0595737728890879
0,0714108228567389
0,0608121562914964
0,0703602082040532
0,0607241314370781
0,0703878676608951
0,0601650048887834
0,0656843067833277
0,0595665427042444
0,0740823482145523
0,0560801789015999
0,0709616195510163
0,0594791492267934
0,0711628376218045
0,061560561482028
0,0710040344433535
0,0543729988136403
0,0662627144969567
0,0492894881669518
0,0665093906602235
0,0552896381522861
0,0732864869203841
0,053053967200718
0,0763905414742855
0,050161295349405
0,0774477839530311
0,0481356232352377
0,0740455035476381
0,0458090831304385
0,0728120132686041
0,0361739663274889
0,0713898692625557
0,0404161324574491
0,0806518799951554
0,048816574466923
0,0783126134200429
0,0384052021320615
0,0783770158866858
0,035488143096279
0,0813826399442663
0,0423359738983586
0,0775542844657584
0,0344870989206081
0,0763359933607835
0,0471761095251609
0,0726706855042893
0,0434757521406145
0,0644398452374872
0,0614966214333642
0,0621751077913853
0,0574068458598037
0,0496117714323009
0,0694449778398621
0,0421125124114968
0,072520419308902
0,0423383662184548
0,0723317506112115
0,0425212891293159
0,0678699647472893
0,0426590158795295
0,0641931279601904
0,0493063517123834
0,0592116561696872
0,0554838090760959
0,0555868687334652
0,0531716803068723
0,0541121165194165
0,054107696487701
0,0538029102585382
0,052058684501797
0,0573929299914466
0,0506084519379984
0,0559813458937597
0,0515808932626491
0,0548765694671586
0,0529931885451136
0,0565567354301519
0,0495805016707909
0,0552175516328171
0,0496946168955011
0,0540368311207193
0,0513065870137749
0,0539298415378025
0,0510156356455722
0,05375472546219
0,0497230280527105
0,0556255164989914
0,0503274424071691
0,0543060115022753
0,0513893397686234
0,0542416916840729
0,0506853952068889
0,0529252830135434
0,0522773331783252
0,0524130840404912
0,0525930528917386
0,0531147199802441
0,0518942667136107
0,0538978412502577
0,0479058232142091
0,0495785251708779
0,0515028167596818
0,0524103002454862
0,0525661361123283
0,0551142200537134
0,0501140410863249
0,0525962966340109
0,0507278761757573
0,0526998130519242
0,0514733018683633
0,0540189357352329
0,0506036381766285
0,0537364966445971
0,0519313883904206
0,0523107578656954
0,0505241147871818
0,0521190181800868
0,0500634342515727
0,052721633332767
0,0519214777308754
0,0519596875734972
0,0495441138352597
0,051144899704703
0,0482813801444466
0,0490614936546448
0,0505578901672578
0,0525796683200679
0,0523698048447947
0,0513509389739562
0,0485925662376964
0,0514461445600446
0,0480663534702581
0,0524835228538197
0,0515847180318559
0,0514414038136589
0,0521370284537894
0,0502698885427582
0,0491174523948198
0,0510646751343323
0,0502422657755012
0,0502386180627486
0,0538804460765759
0,0509544894568057
0,0510657157932535
0,0523929118491352
0,0511157192127908
0,0521719441899267
0,0501991420737483
0,0510182789261843
0,049478655193844
0,0513768112252298
0,0510516491345113
0,0516499065188346
0,0497930474049852
0,0518655815481462
0,0495064931694199
0,0517991478421417
0,0516623946435737
0,0531258024169157
0,05132911754447
0,0506789050132633
0,0502958449524468
0,0500510085527783
0,0498999389306409
0,0522777002207094
0,0505543568616698
0,0527603292845168
0,0517835932719465
0,0536915202304725
0,0519415807677839
0,0531496495037942
0,0528743742590879
0,0503990557314245
0,0508414186432106
0,0545143393955579
0,0539237040009654
0,0529668831208066
0,0513647306968359
0,053485522150815
0,0530511644254291
0,0537506995393326
0,0530685056810266
0,0526766397309951
0,0521081687131622
0,0525788276856985
0,0497986172248442
0,0531830120518078
0,0527657719960374
0,0517808938353856
0,0497922120751044
0,0533000942715174
0,0533072997866331
0,0550230631616721
0,050929835460911
0,051962548263318
0,0536879370212057
0,0519274283015137
0,0532728335776103
0,0534161659060831
0,0500826986674866
0,0537938903182539
0,0520818157523095
0,0512440108066626
0,0526195980991279
0,0527123617207138
0,0534337778421086
0,0533522947397824
0,0526186609014842
0,0548260376231481
0,0535309265193609
0,0524562716583717
0,0540350411509047
0,0555924848603085
0,0546757043940249
0,0542062907238135
0,0543203328753699
0,052816469355503
0,0532374204648264
0,0541113681489096
0,0534068722067634
0,0552286544733511
0,0539874895418004
0,0555475651439145
0,054477423379891
0,0551210872663667
0,0537599732645831
0,0541622855074936
0,0541765280796063
0,0545533822821471
0,0537589771279719
0,0548257679487701
0,0539936758422851
0,0550331006826158
0,0537877276039749
0,0544446055299237
0,054382965377589
0,0551075859896294
0,0541193406949756
0,054735910816126
0,0529023453990977
0,0526856243996402
0,0516550291298662
0,0530418313359449
0,0499670349794098
0,0541624933829092
0,0547773536359041
0,0536367488370086
0,0539118282375762
0,054649033340035
0,0516668186121425
0,0536968213943145
0,0529278904129775
0,050903811942593
0,0518274934766457
0,0525177543084111
0,050533792425447
0,0509999082980078
0,0527780047451277
0,0493404174059934
0,0511870553211557
0,0519140514069642
0,0497952978458288
0,0499887484658858
0,0525530301722573
0,049805154005909
0,0506020362523745
0,0506149264791743
0,0506562333599798
0,0514794166227375
0,0522578606418849
0,0514142289418138
0,0509383970077444
0,049619077761085
0,0519048088712187
0,0506453905037332
0,0487851817438517
0,0490107208505234
0,0490968095885703
0,0478599109700399
0,052469357990683
0,0501171385859172
0,0507653451163356
0,0528701586728239
0,0514035743014074
0,0489406911763325
0,0488593338062902
0,0494672065432599
0,0473131863547467
0,0498626224987453
0,0484211145024158
0,049357328763121
0,0510702866393317
0,0501398378686042
0,0503891116814234
0,0515974631974115
0,0479142041378781
0,0493655849733725
0,0484972144324834
0,0488341702098113
0,0490162187794989
0,0504701116681645
0,0500387984487539
0,0501909304317344
0,047199626260175
0,0497342339433892
0,0487136187759423
0,0462346211747569
0,0463560033863887
0,0494184117589932
0,0486663423833765
0,0469298575554942
0,0489472011792783
0,0480000887338879
0,0470731741945398
0,0495192278481643
0,0507118321280873
0,0498675897693429
0,0487635891752606
0,0480499430739983
0,0481970130268002
0,050449038966146
0,0493855056096983
0,0485314270239554
0,0495503417436026
0,049961467359049
0,0497608458330525
0,0492977318888427
0,0493918393058287
0,0482908906905163
0,0483804456213032
0,0495359492894269
0,048090652066658
0,0487317813257446
0,0478404792277211
0,049203752641929
0,047341538569358
0,04870264283056
0,0473552984133307
0,0478556100619433
0,0462939802943657
0,0471436702698687
0,046762361775369
0,0472361007037461
0,0469806271077409
0,0472294686279354
0,0472369550500541
0,0489247166492221
0,0468629965873199
0,0483638569860109
0,0473101152790313
0,0480553313578053
0,0459230698930416
0,0471452312135888
0,0464178773289352
0,0470824004363623
0,0469904415092109
0,0458419475941713
0,0460257445170686
0,0457698911279475
0,0445874969004996
0,0462616379597457
0,0453558674454048
0,0440911422447958
0,0462280512233967
0,0459611805844758
0,0431150764756674
0,0464352548807799
0,0425866565975742
0,0467358654841008
0,0442440226925622
0,0448093517869011
0,0437593837572558
0,0436457230603251
0,0466100783876497
0,0469120331347248
0,0414742891765823
0,042090378542093
0,0440891302489019
0,0433069417359091
0,0417486519267972
0,0428645521687243
0,0418187510763045
0,0421230286867207
0,0424883177687276
0,0414958621801117
0,0415413022274922
0,040605302165034
0,0417496751622336
0,0423236704101449
0,0427989172160835
0,0426178965259147
0,0412424107408824
0,0419674129195218
0,0431279914335696
0,042028841549322
0,0418122242529332
0,040579987369686
0,040963574133945
0,0392881152594304
0,0453142116782695
0,0436099092461135
0,0426649533276614
0,0381341780508258
0,0416606360825008
0,0428995273985792
0,0411820653042579
0,0407439703787341
0,0391362464226319
0,0399100356078815
0,0397577384510637
0,0410315066594302
0,0400630239440095
0,0415660318407696
0,0403621878445617
0,0414110431443271
0,0399156301098338
0,0414536569526141
0,040341911012499
0,0405598534510044
0,038893642569135
0,0383564114162611
0,041158396956118
0,039114666308268
0,0414315721526401
0,0379982118790043
0,0384617020175032
0,0424491534627794
0,0414009663893812
0,0411018865612214
0,0370352781520195
0,0411413727926081
0,0380803091618793
0,0407896515739016
0,0380847864489356
0,0388456392343316
0,0365951609471284
0,0391770136577319
0,0384343885538363
0,0365965591747287
0,0383424284560783
0,0406354051606976
0,0402495826292151
0,0410148894553227
0,0385665839989261
0,0390732721259108
0,0358906634393884
0,0397710467649709
0,0372503556094658
0,039234865030208
0,0353700180919491
0,04145379923509
0,0328360611213721
0,0422941847835461
0,0365487218072653
0,0432243558512808
0,0365017098388665
0,0387508902074486
0,0360553003363865
0,0375020603963845
0,0373223681869626
0,0374115930861757
0,0377633894372256
0,0358160619145879
0,0355503890780353
0,0389064132524646
0,038208833281203
0,03881877808603
0,0368577062357906
0,0371930121880874
0,0366393038358889
0,0370829479990834
0,036482420810879
0,0355920211199389
0,0384945657141586
0,0423537303849275
0,035699653262791
0,039438466095276
0,0339900705376915
0,034236240425811
0,0437953554335991
0,0369572397993426
0,0428671140605466
0,034431297610113
0,0404886617316791
0,0344056419408248
0,0404051491015623
0,033803854446027
0,0430825186673611
0,0354083344805753
0,0398233294457933
0,0368068459142316
0,037189409071525
0,0364428770822611
0,0388631128011416
0,0363351516554578
0,0371242259136026
0,0355126678841994
0,0376305790262253
0,0340819019972057
0,0359101516756623
0,0362702089526647
0,0380797424972929
0,0331165568872714
0,0403902045583986
0,0378989267190836
0,0391600599267997
0,0357494044080238
0,0397843285949802
0,0312196480841292
0,0383538482607138
0,0360878133641011
0,0394866897613863
0,0360263498772862
0,0353501648695372
0,0371875329708653
0,0366216283567991
0,0370606282398423
0,0342213624272681
0,0365895320857521
0,0342059161499134
0,0362269957606972
0,0364799864089387
0,0381931801162254
0,0365399834008404
0,0374669017218413
0,0374905602661741
0,0382154190575255
0,0354600565651003
0,0384506019795014
0,0383563713223866
0,0333574975312319
0,0419238003264987
0,0387674807360624
0,0468677192427997
0,0366092257325054
0,0406423290747231
0,0358293299431346
0,0376922080747381
0,0343312517815619
0,037907310092556
0,0361881503726272
0,0392327461820806
0,0346035153188915
0,040771972556609
0,0349220850437179
0,0362481921326415
0,0343897135210115
0,0368721836762832
0,0343227223525349
0,0393708407767879
0,0344722196817446
0,0368094682017778
0,0376606212780648
0,0355025706189532
0,04066768411997
0,0379893671720495
0,0414020265401521
0,0248344620108495
0,0574839366101824
0,0377445129990205
0,0444992253025981
0,0343154766347119
0,0381756561196655
0,0353924857908469
0,036968261614268
0,0368950882867799
0,0399293245941382
0,0365424100359724
0,0385757053454418
0,0350010968660519
0,039929170205251
0,0373822370239524
0,0337960744091961
0,0401064091713932
0,0560653762566025
0,0403498123203113
0,0460155434597399
0,031575724823455
0,0479575403490508
0,0437061402067815
0,0410818914346673
0,0403228859780857
0,0361765829660775
0,0397490581327259
0,0379909375977359
0,040863233573955
0,0361658170089636
0,0428490535641489
0,0374016572197165
0,0420674821766016
0,0399408453010997
0,0364000480331576
0,0415645015568427
0,0373783226785981
0,04394094284983
0,0451337737308786
0,0397159978697459
0,044703873794248
0,0413206337922844
0,0412125302720457
0,0398679159662973
0,0416023649229122
0,0359857474271676
0,0461068028304863
0,0433308598424761
0,0402493758249388
0,0497287460988274
0,0454673824220664
0,041971925195849
0,043061212986828
0,0403874491298281
0,0537251653460347
0,029392280436354
0,0578340316262882
0,0399945739331855
0,0557335239623861
0,0481831370405633
0,044459668437289
0,0438002149131581
0,0437254228590884
0,0443091589923717
0,0383519738327993
0,060217642185759
0,0353717108631837
0,0533282968992331
0,0314034499001875
0,0580506372543524
0,0471699206393514
0,0535121438841698
0,042338884104907
0,0485840028315247
0,0379993898310232
0,0648587142502619
0,0394494415234933
0,0443323814685446
0,0473726271975695
0,0598420794299157
0,0670604733267595
0,0428966111844767
0,0433635782278402
0,0616875727200542
0,0461010865661484
0,0544057911047488
0,0401158002222028
0,0576520037153077
0,0379434306580544
0,0520618740324789
0,0633753711480654
0,049095843279422
0,054147242308464
0,0480068830465357
0,0425737897179083
0,0565199930141577
0,046296132311279
0,0522929896583808
0,0458180090823157
0,0528661469724696
0,0304357491348464
0,0962262308383049
0,035477257416927
0,0689707329525922
0,0474807250120951
0,0646212931006921
0,0484640656429835
0,0574970208553688
0,0439565510191925
0,0567010465708696
0,0547568644498418
0,063586214311547
0,0383487219454372
0,0700459580278328
0,0636106840765976
0,0594768117350013
0,0625445578915642
0,0585603668717143
0,0505383076201699
0,0737804414887501
0,0834465757396063
0,086091294976066
0,066820642014002
0,064879668324465
0,0793501165440069
0,0700016251430809
0,0721532192625478
0,0716388675249358
0,0738195263547712
0,0743604126651272
0,0688499852891838
0,0819365284063897
0,0727628112398003
0,0880809136878686
0,072586756959289
0,085484367768316
0,0713486017596845
0,102470687623943
0,103262671800574
0,081771315658822
0,109459625594474
0,0929546924304156
0,101912129986469
0,0876010734263161
0,0893599659979489
0,0935293805651677
0,0965110234698018
0,0975220269062424
0,0865713316945129
0,119488160404731
0,0946897130204217
0,11931074652709
0,104284789535008
0,113747463278594
0,107606200470672
0,0905340620995962
0,237729184260598
0,117269482654824
0,15263415351897
0,111991888420887
0,146444074898981
0,160940839504003
0,152997276862035
0,145667626020992
0,154387533888041
0,151714326455236
0,164349454784286
0,169701313582425
0,179520125725221
0,183316464675096
0,18895307256528
0,171147492314998
0,198515483318738
0,211204741834464
0,248799137511175
0,220672342685062
0,215137999919743
0,229100550695087
0,243688117123556
0,232660701678467
0,252138097791409
0,232647715867402
0,264962503185887
0,29260606812421
0,276896148645353
0,275320745200715
0,2761211338967
0,315314890782503
0,267737255011862
0,350054131330598
0,306133385356184
0,325589865611451
0,309093269893941
0,333894084075091
0,319572010561925
0,328019697715854
0,352950768126979
0,354949518615024
0,35501777621071
0,360951541444074
0,355602360227981
0,363127529313763
0,370221685409112
0,368986023998718
0,364969278422284
0,388371148874221
0,357442642714619
0,548220995404378
0,38431131430014
0,394015257762407
0,371190113887297
0,386956218723272
0,398218097566104
0,38030324225994
0,423117788559563
0,398914444829653
0,385205158883872
0,387537504653709
0,385249511693164
0,390863911913342
0,375484857936648
0,396965625199497
0,366288271564728
0,419525177309248
0,356448577052303
0,435430168214659
0,397136695681451
0,397499774058762
0,380687801424047
0,379546927601703
0,367597235710643
0,384684216895334
0,357340542605413
0,374988555161601
0,385165689289406
0,361514507146913
0,374707548984468
0,345885096898001
0,378610626156397
0,378248564450808
0,348551460518036
0,358151357254178
0,339532052558401
0,353203170326045
0,318356649611715
0,354030114061062
0,370856412277956
0,335498858175411
0,337827681536235
0,326508541858191
0,327880959012894
0,324733769046873
0,322709615931705
0,323458397493188
0,321385697292867
0,321325830934482
0,32304230695462
0,313551828519574
0,313407212847902
0,305346453146672
0,315924771391714
0,310394843926702
0,315353491404165
0,308681593027137
0,311205209469495
0,308190284105947
0,305973381719648
0,303751043778576
0,306362535841655
0,304269597987478
0,308205266865378
0,299151931298168
0,308051735428566
0,304862753091271
0,308244529568972
0,300364601546194
0,301207252427838
0,299265881992971
0,303158927361563
0,302074155345108
0,302434917533629
0,301964496017785
0,300681490202652
0,295874363022573
0,295555442876224
0,296820035925157
0,296223512656673
0,301276313875237
0,276473498763375
0,369127976485669
0,297090065579413
0,294727918478171
0,285526580061167
0,289730685467814
0,2869997725982
0,26726346653158
0,313827051938044
0,294101635044491
0,285476117644603
0,282476017580364
0,276471594047711
0,295345010446399
0,281792648741878
0,27001962952081
0,28349229264951
0,243110636731456
0,306501112758419
0,266864194250688
0,31927184196319
0,31485917651277
0,288913116452707
0,255319690850166
0,272866970419475
0,290269641211979
0,257995578451433
0,276476775805791
0,248249148680299
0,301261178612389
0,267009606795579
0,267014559628414
0,263083626819903
0,254244725473744
0,265178622916616
0,284737386999827
0,255276662763368
0,270696957879179
0,271509719095406
0,250290204996018
0,275128685208439
0,289498485179386
0,272919985232634
0,240947465773862
0,249181972888301
0,24071712123192
0,231327633653595
0,280236820980667
0,233234545973095
0,254638011826216
0,227663257680897
0,231830013806885
0,221989608527187
0,237497420546913
0,223335184136305
0,219686738935689
0,260892674989218
0,202821959654151
0,234989694910552
0,205396348518217
0,241149164055404
0,233257603915271
0,220158226475271
0,199863258897873
0,231629983587612
0,232583295797709
0,20687760924855
0,221497236280604
0,191623060461871
0,196945874838872
0,213298746392358
0,187144145044572
0,208246020988845
0,193329980863582
0,189983495570843
0,212287720170188
0,204495238711803
0,227789734573674
0,191650428813274
0,178880079189125
0,183040777111625
0,181261337816725
0,192587954727496
0,159315450792196
0,218851957881832
0,181497243686459
0,168927689778596
0,219785216598898
0,188198873527367
0,186365745733624
0,188831734932091
0,181528803953793
0,186770222231936
0,191626108448184
0,217458655290392
0,194965441339875
0,205278449266276
0,216834809267415
0,197845207385136
0,209256603739423
0,202149269768048
0,211201751589823
0,207271040116182
0,226708875547262
0,221281526145831
0,225184914256288
0,237063362089874
0,223393868029869
0,249314180742448
0,265571217853985
0,230017405384738
0,289635041661519
0,241883557188906
0,319952617203995
0,271596728350485
0,280114583465984
0,281478189116291
0,281825338703081
0,295362843308564
0,2820559741185
0,291638187420412
0,330382201852393
0,295367013581609
0,318443760370749
0,301198619809504
0,322490099474721
0,301416699112549
0,355086176788451
0,300340503420447
0,383196303150768
0,352876014401897
0,346221478212449
0,341648187814911
0,332969728526826
0,348066864609282
0,342371926631114
0,3437693525783
0,344112400835322
0,339223722496998
0,366732744062196
0,347968577905786
0,361402587879359
0,353401558817759
0,360465396688542
0,355182593673505
0,361803897296292
0,363337752940149
0,361396445081323
0,370937643457879
0,369220500336564
0,351168768615341
0,436128899577198
0,375996799372928
0,389910579390518
0,37771090909423
0,394505770983641
0,38889071763032
0,387642679024689
0,40238407793751
0,400554427843869
0,394514029764873
0,404975868782365
0,400567821034389
0,407626645041286
0,404281689268989
0,439816627032267
0,397859830127168
0,438264628989066
0,393292346522713
0,451615049592728
0,448014672363518
0,426757130930434
0,441405310509267
0,424710257209359
0,43281074811345
0,429044114494023
0,429169756790749
0,433189687278681
0,438125343881277
0,43311851734473
0,43985121359047
0,437312664277613
0,438615867324819
0,44034636464261
0,434845352427565
0,454955403199054
0,429887417874439
0,438017006684042
0,433723996607836
0,438851624845137
0,422664250742177
0,450217545084309
0,440145996497248
0,434943576255993
0,432719286910018
0,436727954157004
0,441535251876167
0,442959446133141
0,430160330871585
0,439667431403467
0,428372573296876
0,443156993659332
0,4301621746574
0,44150865667744
0,453692659219
0,440763969809302
0,44354733968596
0,439553284537704
0,444943952854756
0,445751225148565
0,447423643773891
0,44399845605623
0,450303435574668
0,450776575105306
0,458973029659797
0,451858357473613
0,456005270502604
0,455345907443361
0,45798189736901
0,456117035499738
0,445698496582632
0,449142653493982
0,446685607777314
0,445131744221614
0,441806599983432
0,43783202136306
0,439016325024325
0,433774511416543
0,431508358266122
0,417071316103326
0,443780917252818
0,41568138373976
0,426789096860872
0,411183272716985
0,409531235706367
0,406696805719396
0,401670554087016
0,397451863989167
0,395117350422928
0,398419873815235
0,391530561035448
0,391300994558649
0,391494869584469
0,391614747676923
0,387562421413456
0,38712251360502
0,385711340057945
0,383908290625838
0,380953469657234
0,379555937158192
0,382514891944888
0,381373516418587
0,385105897275147
0,372200458438586
0,386950846786307
0,386988418806676
0,393164412469478
0,382848345727344
0,385452314838647
0,38661043710175
0,377906670502454
0,379251579756506
0,376760599610684
0,382705492391774
0,37453041942781
0,379015441858489
0,375225463022803
0,37759534375551
0,374612958274564
0,380271425342327
0,372318699329475
0,375645320638195
0,373311687266748
0,372509847845673
0,369784092887334
0,374650957116722
0,370763461153057
0,382073042249861
0,376034594320588
0,375047992003111
0,374359025848877
0,373396675563026
0,374706927607639
0,376025022237043
0,37511513195211
0,375028863049518
0,371826357495238
0,371137121350776
0,375780523370438
0,374391893091614
0,371845775100237
0,374286482686961
0,370907056457109
0,36803183895498
0,368366464496144
0,369389259471306
0,364120816897148
0,360704585862307
0,358882331391381
0,356455285752138
0,351092727494251
0,348698017598686
0,344551698761772
0,342057964985101
0,340721065379086
0,336897547888707
0,332540479138176
0,332521065216303
0,33213779376164
0,331476597488566
0,329124796318058
0,325473060550651
0,324891676145106
0,324129364164549
0,323609716684252
0,323732933418238
0,321432635579163
0,320635351612649
0,321704993030593
0,320159280383774
0,322473469589156
0,320644682936627
0,320542849043709
0,321184328214477
0,324017731672976
0,324206746362445
0,325474590728198
0,328595782402678
0,327148288713441
0,327825578249137
0,330680250433412
0,333305280579062
0,334954984291726
0,335102767270741
0,334918602702559
0,338179806880078
0,340224635043131
0,340146416426904
0,339258135162927
0,340848349102127
0,34575727283078
0,344277085166908
0,341050395201141
0,34269679452315
0,342611500496364
0,343948910158024
0,339788258774268
0,341321087538537
0,338893985133279
0,341187712838665
0,340259731705814
0,339635511717043
0,339827520070055
0,339754981277417
0,336572993549729
0,336760364200104
0,334965436723517
0,332189771155177
0,334929021073848
0,33070126416351
0,330178361932681
0,329939880636603
0,327816789389659
0,327623625903841
0,327518863769115
0,325095755625424
0,323769718847928
0,323845255554698
0,321607733509433
0,323201590223601
0,320222366723813
0,320410833585589
0,318836347541799
0,319853538642225
0,316137731469847
0,315355118162397
0,313335042092613
0,31453404421497
0,312330129572283
0,3112691895437
0,310388662542864
0,309549260702722
0,308544691839797
0,307309278972108
0,301326615077362
0,301047512290434
0,301902990747533
0,299540118079932
0,296381083766134
0,295753209834767
0,290946337779311
0,289325333368586
0,289177615126102
0,287102957577762
0,283673980342708
0,280831771083833
0,28002794595742
0,280104057549661
0,277261025129608
0,275479897089774
0,277639549856549
0,273289837191588
0,274127570664214
0,274969893276448
0,274304938784842
0,273020847936525
0,269018422004225
0,270149530848492
0,268934663797909
0,268867150521468
0,265236870917123
0,263548229069424
0,260396667243563
0,25769662961322
0,254375508713309
0,251348414890865
0,248018079066003
0,246095896273848
0,244033837832152
0,244308140246511
0,240587358844517
0,244423729904884
0,246407489340542
0,249471153130232
0,253063055126753
0,256326049855189
0,264278591025876
0,273506252742783
0,281278072470906
0,291834558903809
0,302576184191177
0,316661006450236
0,326785425545433
0,338594990684382
0,352238105840106
0,364770514769323
0,375704201881553
0,389358502823452
0,402225909934915
0,415847569118153
0,427752889932649
0,438626269673171
0,447283936730249
0,458887293576251
0,471371744894199
0,483525418100816
0,495188539481995
0,504103822862507
0,515430928999653
0,521295359180889
0,526788049957826
0,536496295397649
0,54268830386935
0,549548865974452
0,553368816599447
0,557629345595768
0,561004261952629
0,566388470169607
0,566753620565692
0,571559540414992
0,574656828865454
0,571940018963879
0,569912266227413
0,575528372300217
0,572917038953166
0,577506286389254
0,579891615633258
0,579317583914427
0,577098390055705
0,583471269054397
0,58664219811938
0,585438752723139
0,590780591116461
0,598076971458652
0,599638927638835
0,600134636050426
0,608086240019132
0,614998115144102
0,620188610916868
0,62349345343013
0,631016877937407
0,6349815080262
0,636757545995181
0,649949261915151
0,659789207417402
0,663403203377195
0,674976939035348
0,678890349261062
0,688070049152145
0,704951163964723
0,714491044975346
0,719700620598346
0,725531051870658
0,731659797208474
0,735386664199718
0,739647352480963
0,740237726721039
0,742577072457859
0,742542631681078
0,740545221031891
0,736401316580782
0,737285073464195
0,735297276233616
0,729891256894204
0,727758967329737
0,735938426649603
0,73584896257642
0,739057587157802
0,741574030152948
0,745428811345805
0,769420205309928
0,775398815510831
0,784320538753629
0,793637669441476
0,804764435684701
0,817177614795022
0,830316063216943
0,839999140445142
0,85507119994511
0,86767157864819
0,880404825663953
0,894755340395275
0,895944997019425
0,906937329992871
0,940858007448515
0,950992885850037
0,959153344088386
0,979595562999316
0,994899044527339
1,0045004919841
1,02094593789392
1,03692426170518
1,04961334563477
1,07351846346426
1,10196601242111
1,11580974869524
1,11493698049464
1,14227207435686
1,15801212214041
1,16588679960716
1,17132974051012
1,20492414011973
1,22850770235004
1,21811687740973
1,24323591719677
1,2381372609728
1,24792370876027
1,24137765645894
1,24203955660414
1,24090336865257
1,22632134997733
1,22348927527428
1,24001206657017
1,22434644879519
1,21171744588147
1,21620675657282
1,21849239511179
1,23844896349338
1,23660807188907
1,22712207992855
1,230613236071
1,22835561588566
1,24146217604203
1,2309063901414
1,25267278670607
1,24219127167988
1,26363400765423
1,29604267391949
1,29630086006417
1,30831012487075
1,32095781692057
1,31212923349856
1,33519559690298
1,33420012224919
1,37351144873745
1,38488331481081
1,36421323424777
1,38739221176054
1,39711909763584
1,38969321667988
1,40814726951158
1,41908734464721
1,40912093115821
1,37651503091528
1,41483184841891
1,41049032012554
1,41517144845838
1,40424998872646
1,41215648245826
1,41465763188766
1,39838267732014
1,43135746203641
1,41405347656703
1,38144891818335
1,3880796645095
1,36087689702358
1,3855238519053
1,38358550029208
1,35134698501345
1,3766641052684
1,38036778518117
1,32842319143841
1,31187298470839
1,28563029588005
1,2727236188415
1,21837697464
1,19373029216166
1,16186257811726
1,11314260670876
1,09066610885736
1,04444575149356
0,983039357440395
0,96989219005729
0,933094840713236
0,897886370014997
0,869987955971525
0,857868786998955
0,828948723140856
0,81557994705631
0,80458138841103
0,791418589595096
0,789749990463618
0,783251930580394
0,775968636038043
0,769998310082207
0,758287858907584
0,754936395665785
0,74699522401418
0,73488367343009
0,725483674219465
0,721500416740162
0,706215919310909
0,700109469379724
0,6844052195729
0,66732670012874
0,642845676809201
0,633721791263917
0,617637818005561
0,59699754620358
0,578445371335256
0,557801593746637
0,533780965302545
0,513589322005424
0,494522012389593
0,471507772822376
0,453704360501921
0,433169146685148
0,406365448852574
0,392343139057034
0,37200636856537
0,355778160803534
0,340105809727001
0,321730062301173
0,308836850183302
0,299323577968157
0,286110697357668
0,277911371278273
0,267969930465047
0,258449659270065
0,251599257040982
0,248516456413738
0,246319593622043
0,241617683577661
0,234915080804162
0,238796496680015
0,237405629251156
0,233769062540665
0,233574387167041
0,234056856764544
0,234911297269001
0,234759209895667
0,23245288190543
0,236851972967626
0,238086840094125
0,239762146252704
0,241649179295907
0,240109355746643
0,239206392639654
0,241290487250123
0,239408204217708
0,239760278607446
0,238804087511549
0,23723939879067
0,238918990271264
0,234973355056705
0,230372383769268
0,227298589590277
0,226968069501716
0,230144288952403
0,227279644294984
0,224383641880218
0,224336402799943
0,222552391270541
0,222067904590965
0,223954252745348
0,224369125076359
0,229279716125859
0,235031424816438
0,237725390382215
0,236736258562419
0,238274758535855
0,240512591959845
0,239941865363033
0,242737434025748
0,244925387840173
0,245869230718901
0,246888431428011
0,253098327504442
0,256409231607112
0,253570378249339
0,255652155720745
0,255736557049851
0,255017199750964
0,25432941464531
0,254168737704453
0,257504319671391
0,257465745587236
0,261835981691807
0,265762334487839
0,266112792348446
0,27148419080421
0,270097669057906
0,279517105960179
0,284833553671379
0,287934139054741
0,297912711658861
0,304548479593476
0,312473035244728
0,322241062629813
0,335736980339948
0,34952897743051
0,348868040260017
0,354046399613514
0,35585696931396
0,358267093061493
0,361373114779535
0,360161205166661
0,357634149814674
0,357621568848206
0,348793841303382
0,337887538245245
0,335032337948126
0,326392824244196
0,318436677691038
0,320960300366167
0,310149513353877
0,313019265887771
0,313674485464664
0,310522281878182
0,316056981836224
0,318544760708282
0,309622387638018
0,313019530984782
0,314487258075079
0,317213957184831
0,308661441620615
0,304624682260646
0,304761251345306
0,298820682533554
0,293348785925734
0,290507680778827
0,286067843690973
0,285072934673719
0,279278772160719
0,279517597282174
0,274789095232216
0,274407218781035
0,26140348228676
0,267339750471529
0,263005454420035
0,261657674685101
0,265563079638398
0,255921615526267
0,26016309658181
0,265246689454643
0,26081508978834
0,25717706679281
0,252276364266066
0,251072222646688
0,246548418780611
0,24245201026279
0,245507368584852
0,25330103910736
0,247948272862237
0,249560422670155
0,235213288643692
0,237193587634193
0,235619638714728
0,232748572942962
0,234456809086158
0,2392916977824
0,226781887906008
0,228083051850584
0,230213749105221
0,229860812699506
0,22745174190156
0,225722316124371
0,230225828338606
0,221521242378557
0,217341752934246
0,21718725355126
0,209489481361124
0,214049693525037
0,218489500062817
0,219967129086934
0,21831407442705
0,217384746051332
0,217349327830366
0,223772608761558
0,222523423826774
0,225826430636568
0,229398437070017
0,234831036331355
0,223939229254801
0,225642409827125
0,226043224232218
0,225389737777058
0,229234627860782
0,232759360305336
0,2359912381964
0,235590227712632
0,231742076588336
0,237088194762289
0,237143014361972
0,240416906227473
0,236967191306487
0,248347296533767
0,250861885590678
0,256446552078349
0,262871138175169
0,259168508982988
0,267579732619361
0,277997924052392
0,271477982983896
0,276058715385768
0,28574369771141
0,292804965466427
0,297454507191686
0,311994251931551
0,310439860077467
0,32086207616872
0,328098742915704
0,347008156028243
0,376131031263466
0,379714957303106
0,38447167916411
0,398724011699979
0,39702001238971
0,425437645889249
0,428981154706658
0,436555897513294
0,428667118912448
0,406665317886658
0,426115068177852
0,417152297763022
0,410307437107696
0,437015342644098
0,441679959951618
0,42550155769045
0,427445023879605
0,405033346745208
0,406691861772154
0,415534892847379
0,402043903806162
0,408423321435068
0,399645743142012
0,406870992657447
0,389729666369408
0,401288849900648
0,377545111404071
0,373669006569594
0,378090860434066
0,367375373572216
0,376897800172665
0,369154780557483
0,371335951132118
0,382267499134448
0,365806137539784
0,35818422960692
0,361185104986554
0,359466757901392
0,346145325764925
0,347506292487075
0,3597479270798
0,355611353650461
0,335297045295927
0,340441423651047
0,345068442084425
0,364695672845121
0,36489257934555
0,349227758939677
0,351343584539481
0,349675999893831
0,338073448952733
0,372056397834643
0,362013989515376
0,336587350527728
0,362906626611386
0,339966279167739
0,344049671846623
0,381389374864549
0,347451836189601
0,350696129744783
0,351825887389054
0,347313258328839
0,347804317500328
0,368653063001676
0,351903140729985
0,352476926408111
0,353241060894687
0,354229281269105
0,40145156098041
0,398286161293404
0,381390606681702
0,364670937199021
0,363964520702509
0,372868050878632
0,376123553709611
0,430018747338852
0,443039878951606
0,409674793075852
0,416252614119624
0,430526009325557
0,414136849433313
0,440576524085969
0,470320656351242
0,430942446455699
0,433928244531302
0,457243800254042
0,446578720183283
0,499594408338614
0,493055221136193
0,443718039458272
0,516304234091878
0,479029505126775
0,506181288966775
0,525218629044744
0,504487976018223
0,509403403397911
0,57995462212143
0,551638827186259
0,505809079473884
0,510282073400596
0,488139819598947
0,50450839394387
0,509417607899792
0,466365295209855
0,455537170777507
0,437050118639033
0,53554358124295
0,501365297727073
0,408907396496384
0,446378974467022
0,454579036643595
0,417938997783325
0,498004074789592
0,437984561714552
0,410342241054094
0,47465451391243
0,438332898875621
0,471055128005795
0,454135906376553
0,46582594699807
0,475584505556672
0,492055557551582
0,413942350517679
0,477402805536822
0,472966179765985
0,497805868988087
0,567615846389242
0,442131879727377
0,434011540063501
0,518407181392341
0,509011361734969
0,448144093923762
0,544499076507037
0,548027976024043
0,498559590488756
0,513218507271287
0,57117271530259
0,466419852851837
0,529760679557014
0,682192421667401
0,464293307166169
0,415495620630318
0,737303060142273
0,853373099214324
0,445588535264931
0,578518633170461
0,620468384362121
0,577411191937904
0,500905146421703
0,770362411336389
0,679292155110269
0,419694519998649
0,343203081938256
