3596
4000,36533379555
650,420452594757
1
2
2
0,0511736820498962
0,0568114035875451
0,0520724918913706
0,0559410158536277
0,0530794223730087
0,0560808130067155
0,0551385368281304
0,0602888285824631
0,055847936179134
0,0594274956921915
0,056667962773088
0,057680693464082
0,0567573639969672
0,0545721890722027
0,0504979330623772
0,0542578383742367
0,0465567791816732
0,0556081963851898
0,0516675908400357
0,0534852557914571
0,0533750376421504
0,053494019133991
0,0519202890986124
0,0578974507283877
0,0548441649493239
0,0573947797348796
0,0519510018025015
0,0612839179485416
0,061544966447662
0,0604255664003746
0,050839432736382
0,0560529161123754
0,0570732759081093
0,0531181778011432
0,0497603131607347
0,0591956999502322
0,0470422551050636
0,0573064812683914
0,0519027133351069
0,0484413148860997
0,053119689232588
0,0561902656998385
0,0571253553629027
0,0628160773947634
0,0531452919953956
0,057021971654286
0,05969418495822
0,0607790325505207
0,0630529255860399
0,0578733875472765
0,0511306276781168
0,0490558620116762
0,05362491882394
0,0670820314294364
0,0559714504186635
0,0590213082499228
0,0498070961875089
0,0584359257698345
0,0540562785347265
0,045638770702524
0,0641759235192084
0,0666967922035109
0,051738524680057
0,0565710361349937
0,0508167616719844
0,0482998432507849
0,0529888198431764
0,0558850516702406
0,0494862740477836
0,0544747922330026
0,0408654578031049
0,0566571619735239
0,0675771458073698
0,0514398020038611
0,0514954661285403
0,0573150520584439
0,0541308908170013
0,0505801957881389
0,0440881516683328
0,0526494777405344
0,0584899101763203
0,0552130168914602
0,0549222210344457
0,0584441146365833
0,0491180899490528
0,0593539713497302
0,0486015117616493
0,0514632174156789
0,0747865393883113
0,0589288375785561
0,0388138857289675
0,050476787078682
0,0515804458942415
0,0458010164313014
0,0563599497489312
0,0598823527253951
0,0517012246010902
0,0583863972924741
0,0545702902483187
0,0559089059283487
0,0449893130179925
0,0468739275366577
0,0729051124188678
0,0448231599781097
0,0577633867293249
0,0571996193398723
0,0389776086984839
0,078667638839409
0,0607056262490918
0,0542747857402719
0,0519671603563708
0,047046130037878
0,0510816734194083
0,0543067990521919
0,0404485544430283
0,0552979707013164
0,0726660408654688
0,0539937918797207
0,0515951519960399
0,0536078614374359
0,0324137764430008
0,056039023625405
0,0748731220985404
0,0514338910521162
0,0522373440847216
0,0482668954529233
0,0376372969456066
0,0640011303676451
0,0695806233262931
0,0483163879341153
0,0449908305491544
0,0463925224887781
0,0313882558744588
0,0373714289487861
0,0827083086832532
0,0666712713644555
0,0445227094912771
0,0285746618225082
0,0458535960521152
0,0900675988101977
0,067530892115223
0,0561439781650775
0,0378590145740299
0,039425030595753
0,0683514479652693
0,0512922489999219
0,0472988778430109
0,075885638317116
0,0548263515986672
0,0376192523276926
0,0492651444954242
0,0544057462133437
0,0563198904056002
0,0528210058737096
0,019998994815961
0,0589934988588097
0,079450800842928
0,0564140903335258
0,0892271542386347
0,054484185264628
0,0468541546375874
0,0543246082223894
0,0496277293080729
0,0481794255708769
0,0505003817928527
0,0410713479983654
0,0543778472515343
0,0687243293796236
0,0409051362106984
0,0511521727569677
0,0769401368080917
0,054402619314908
0,0284729198246957
0,0771443129660674
0,057094994251332
0,0399503931593894
0,0689993057287131
0,0602416667901515
0,0412269534431467
0,049313020646615
0,0629020333895464
0,0533599761623493
0,0475681013786167
0,0403934923562518
0,0435374953892322
0,0623293154726991
0,0491112333731234
0,0490401836569485
0,052833105967822
0,0280654912585015
0,0382129312314969
0,0770166201571472
0,0671568478919466
0,057397585737196
0,0436918948639371
0,024980310607055
0,0596859052384543
0,0720744591686076
0,0476842957857366
0,0444813665933356
0,0416297386734066
0,0446414552409711
0,0466869539863461
0,045694247629792
0,0374893350019096
0,0278784857029025
0,0689447714048991
0,0729163092907199
0,0487126944273467
0,0427515498415386
0,0448118285621859
0,030477290370232
0,0793921517920225
0,0824539540246134
0,0547783166425631
0,0455081156730998
0,0421521732316027
0,0523879006843086
0,05808217597694
0,0515998124814709
0,045583107115059
0,0454362356366972
0,0500548294150062
0,0474133192756578
0,0481396649232116
0,0486616114353624
0,0454516977068044
0,0420799233689442
0,0467960304527646
0,0467193780703332
0,0524673217797977
0,0491793789809634
0,0470358479452964
0,0464840863892236
0,0394448811865707
0,0492206843741162
0,0553193058667014
0,0518476887383746
0,0508210811011337
0,0460012920895757
0,0503781382272727
0,0491866895109607
0,0466257593804779
0,0493075452320354
0,0393013850272314
0,0440182203448729
0,0757126073668852
0,0610747796419714
0,0472708134784348
0,038171135037488
0,0553779922178609
0,0534136849816332
0,0486307900807039
0,0422129187065506
0,0478708953714438
0,0462839141166408
0,0372130918647737
0,061660459355543
0,0620555334920144
0,0401239115053417
0,0527796430632098
0,0514780261348681
0,0500694611145169
0,0339307184571348
0,0361136571544996
0,0932149063054756
0,0618039997488875
0,0405118694506056
0,0896977122763689
0,0623135464791988
0,0582777894848989
0,0365966716902216
0,0125607461197748
0,0952080497697742
0,104297960174763
0,0589864766366241
0,0456393956919808
0,0566158729218493
0,0512813056598891
0,0529214134594238
0,0415840425974564
0,0497253920079655
0,0707604790388729
0,0782960908400877
0,0771671475838597
0,0409872682873786
0,0618575403873663
0,069937251555717
0,0568099950925381
0,0522530590657217
0,0559039457093679
0,0411260541868578
0,0554996400202176
0,0542478850060125
0,0646964093806908
0,0509249158113964
0,0481369620277934
0,0599828268930092
0,0610820020489966
0,0494981325964159
0,0573701317551148
0,0541035446642283
0,0574826581589395
0,045278623700516
0,0492214727045219
0,0592563528923322
0,038741113478206
0,0361549926050726
0,0954533905987331
0,0614557357494731
0,0523655522399509
0,0699755007291787
0,065806744586903
0,0556455616063414
0,0551669542924549
0,054570699567935
0,0580833165169047
0,0437456307758877
0,0431415546755225
0,0692352361801073
0,068524142855717
0,0533998138689116
0,0562961195144512
0,0492253848144447
0,0528329889602918
0,0546491635586205
0,052415320191454
0,0487782953204477
0,0577723229945233
0,0396883796155829
0,0636225178611011
0,0782999508102675
0,0458508300011949
0,0707298743324405
0,0853995004991218
0,0614184115997017
0,0585343434025965
0,0586693773506473
0,0609260841611698
0,0544755036879141
0,0587364967225667
0,0550476788834396
0,0613968304200051
0,0718688615691203
0,0739366759724315
0,0571545212470844
0,0596471641240743
0,0967946474611076
0,0919227533114157
0,0712324881625034
0,0644445247046688
0,0498177130126454
0,0892211617309253
0,0692206634855489
0,082561111566095
0,0851205492076894
0,0715904075514537
0,0626342946934769
0,0696862652858422
0,0641731849530994
0,074903120538907
0,0766815133855314
0,0799837432864909
0,0750524572109521
0,0755779098426388
0,0792665367085819
0,0714891111391748
0,0666429484229258
0,105350019894153
0,0854514058007777
0,0779118018778593
0,0871807922373149
0,0778397034998404
0,0941520315879208
0,100527001289314
0,125092592311967
0,100370227020758
0,09693453592731
0,130212703820237
0,101221116927554
0,0900698731367936
0,0880886710582303
0,0968291088418181
0,097904288139812
0,102280487388135
0,100047493772087
0,102179529864022
0,106701898105565
0,106199910582158
0,106535057991153
0,102389295047104
0,112102837139119
0,12728741367068
0,110939465027828
0,111400399595976
0,0987220986035352
0,122836675976215
0,142380399347816
0,158529022873935
0,120310148838901
0,127243602732566
0,122478459395449
0,126291791280412
0,122793962123447
0,138814148562826
0,129643849532761
0,133490192077362
0,148455200271699
0,149740736667556
0,154608778149599
0,15960966534571
0,142878165063906
0,162537983771702
0,147153405412442
0,150794010785444
0,167470680752962
0,164532415502839
0,140396350492045
0,178983706900741
0,163832582696773
0,168591861120898
0,172871167628103
0,16202649248011
0,156020296639566
0,172204727858615
0,167430355025427
0,172747872626542
0,177195110310591
0,189975583456102
0,180427766819617
0,185461752800975
0,179032736166598
0,193441088168709
0,205475625258344
0,200730838830741
0,197666818860383
0,210577843598059
0,199007616174702
0,212242979392206
0,180842427946118
0,226215366571476
0,212245980913007
0,231303409111259
0,229610457392067
0,219659722408732
0,208178307192818
0,225042168065195
0,221751853543013
0,246064831115471
0,236476997517652
0,244037809986291
0,232932531871054
0,237254327825194
0,244680881623337
0,245971644019768
0,245025726043401
0,262338830259747
0,25331522129903
0,262192778152119
0,259405150621938
0,274580741457462
0,259730244167841
0,312840621964084
0,286128411642095
0,305155621546901
0,29504870388603
0,296335653197434
0,294300059664565
0,307063847105191
0,291561875405218
0,311059361954197
0,309163201606216
0,31379329792892
0,300643481490888
0,321443761673922
0,315235603580877
0,324508666850415
0,323543919479358
0,318200000766834
0,315289946217427
0,335494147942354
0,340323737112562
0,348514332352808
0,320332237443409
0,354147322281471
0,36155177295698
0,376208610611184
0,359266822282001
0,372354589407185
0,369392436722157
0,386135312406265
0,365006247691256
0,392622463470695
0,377132961487135
0,400484060972446
0,388744379489785
0,396877329519546
0,384597323743289
0,419069395770608
0,413217606022855
0,431378334147628
0,402481684442904
0,443648691818188
0,426577015146666
0,438362569042375
0,418546555005457
0,452592817246972
0,431724662262683
0,44835784420344
0,460256708338017
0,444533106652238
0,461571830537766
0,468566431772882
0,459096317102229
0,477164082658392
0,475670765705486
0,468686859092593
0,475041258235477
0,501236594235606
0,475342247973059
0,488491483393432
0,496789359070628
0,53856236021242
0,504709422649837
0,541667091201173
0,510635761308517
0,550734428643618
0,522068669887709
0,529945852552962
0,527562230596635
0,546262129189568
0,543678430791706
0,565968049566603
0,554540210294225
0,582974036522753
0,556650764013219
0,576613910126697
0,563965879689292
0,585117247092697
0,571062092042384
0,590935369339787
0,576471383785556
0,593110173646172
0,59126245678195
0,596764619777782
0,59184428025783
0,627146489325332
0,577813439077036
0,613264583347631
0,622198208611796
0,648204926619467
0,625966280655655
0,6498672031442
0,61791401702615
0,679435246495481
0,650676072623421
0,643118200547307
0,626221312625866
0,705540458074383
0,636123935312476
0,680942402081739
0,680130883588032
0,719207737658597
0,667094203926894
0,672028087968992
0,659227298021509
0,702233672133044
0,676261823194089
0,725671014185814
0,676364946453039
0,718045945676898
0,712328133033187
0,702489964393139
0,710797267840341
0,765819959094589
0,747552654490494
0,737505559658198
0,710676071957065
0,75174855659018
0,742681406784987
0,78890880311798
0,774066588587543
0,821570312866119
0,751653464716564
0,808059215036885
0,780127959322463
0,800089923651721
0,773291318556596
0,820473518098749
0,794866130536391
0,819924025998597
0,745486356367184
0,835108831933338
0,820974411725789
0,841745335038311
0,806198925266961
0,852532584697549
0,797608746406165
0,885812564331004
0,81286315123851
0,897021892449807
0,838002520755033
0,825411821362863
0,826803676362581
0,866276469974169
0,792843454809122
0,947712058088679
0,868324052294843
0,87755554966274
0,861271791064459
0,930066728563195
0,890235133853629
0,909748127166905
0,866687639641617
0,958552637111797
0,921798981810303
0,952829557288882
0,90113749271441
0,94974286532869
0,897932543717558
0,966435127389454
0,909386625092808
1,00997190991622
0,906628821457789
0,938884616005367
0,942964312229148
0,960692423840678
0,883151009494995
0,944602070858836
0,903073192033738
0,957823916302079
0,920811655947031
1,02772312550093
0,963465018046118
0,966440745084387
0,943037179350986
1,05306086591244
0,982415644486145
1,00643895680472
0,914548746578962
0,980862282825817
0,953721582778713
1,03570803771723
0,961185743996258
0,999897693288638
0,971806854655758
1,06265599372517
0,996936928217524
0,995137754597308
0,990946484903651
1,02449494309255
1,01598858634636
1,05681208426253
1,05821403584209
1,07515601590861
0,98279858206207
1,07463071490042
1,01437195583731
1,09479215313624
1,06958277890364
1,11101280933128
1,01934385886988
1,07598665771346
1,02038031637912
1,06711901978254
1,07286604939752
1,09766166036043
0,994545229337502
1,14094563398325
1,04794526939899
1,06202218638989
1,01358211682043
1,05717147418605
1,05698231972415
1,0614746490869
1,08085086927874
1,06813410300936
1,11735722525354
1,16666909613316
1,09780653774937
1,1859744916776
1,12112967447812
1,09296733880662
1,09507312321341
1,12394680166207
1,05053367129841
1,18630878613868
1,04277139288527
1,1148537938484
1,07946399147895
1,16973009599937
1,09205784563942
1,17805262650929
1,07883031457615
1,11613992390838
1,00372188641802
1,12100634387164
1,14650301123967
1,18322295694474
1,11158100692388
1,14458469103519
1,08066709870802
1,15415014304834
1,08717934233133
1,16988918090045
1,0968780295901
1,15215819541758
1,08172700294965
1,17629409686953
1,12751667974226
1,19574275434535
1,10803390132528
1,15175215218703
1,16789083393644
1,15652000401206
1,11838864422172
1,15102780848669
1,07814480192171
1,17977757199331
1,11352190468546
1,13637705033877
1,16984811798266
1,1697152970457
1,08475481350623
1,15056796973988
1,10006882773332
1,19125463181482
1,13340595983208
1,22116816343319
1,06651091755906
1,18875511446005
1,14234571371963
1,10103808996321
1,12715710839518
1,17196018013145
1,09197396427032
1,19925486948667
1,11896585314539
1,15106609988736
1,08616726092182
1,1467819183938
1,12693336898165
1,1515973520022
1,08545484124688
1,16556290756439
1,08191109591605
1,15010236199555
1,10892180460189
1,11927291154386
1,12977743530479
1,22739739691179
1,09923694936252
1,09347249809821
1,13463594900307
1,19705786012393
1,09181742967067
1,19438356371261
1,10504007111664
1,16975227639212
1,07939094725946
1,16033234708071
1,12586255893821
1,15041214902433
1,10833483902132
1,12551657683937
1,11132503603533
1,11045543984077
1,10196791943644
1,18171373078179
1,07586276366699
1,15253435655609
1,04821216573161
1,18524034357745
1,10430303270731
1,13055955084967
1,06608380715132
1,12011185383336
1,06116293694392
1,11460540397001
1,08165317228005
1,07301151918803
1,0611596829862
1,09845683568788
1,07854446151862
1,09494908878226
1,08383019284014
1,12480685915202
1,10662842686739
1,10037662327102
1,06561725883241
1,09003375490591
1,07811587716952
1,0735642175686
1,03732479984762
1,1407302640876
1,0429165058646
1,10212723899679
1,05364649649613
1,1333341323557
1,08240975996753
1,06524751255599
1,02740975760195
1,11471000133978
1,0532290251963
1,08874725219052
1,02612023274202
1,07678390696176
0,996818472758035
1,0823782552677
1,04409389722385
1,12442222484169
1,04530704477346
1,05300351747018
1,00207962971466
1,07240385644179
1,00417877825453
1,04081970732529
1,03524448448905
1,04755922050557
0,997345756641995
1,03579626276909
0,964805383720668
0,997958503244907
0,933664026998756
1,03977091522553
0,993061754307317
1,05370659434813
1,0119554812233
1,01729420625302
0,949241434300078
1,0138056074282
0,978845258249476
1,01353825872206
0,982713830639327
1,03189873383193
0,985243238797413
0,99153640564353
0,939194157789434
0,972708392976223
0,927115424619696
0,974575752726982
0,940888389355854
0,962168654291611
0,90533047551248
0,949646707221229
0,9387741720581
0,965823839261322
0,912355891840378
0,972930108328782
0,914585842883857
0,945875681276145
0,921140717243321
0,946974205432896
0,884032540835135
0,942462036077273
0,897583873113631
0,912415600266688
0,867433064422146
0,928028756407407
0,923170451673308
0,904824328122822
0,862776062407354
0,902241910547955
0,864336599028009
0,919474732474354
0,847058763616633
0,911618136810573
0,854524460123351
0,888212969549029
0,845910106523458
0,866362958242578
0,843830559281937
0,874371379697612
0,833957908144424
0,842064718260419
0,839923461445186
0,847155288662723
0,830295236703069
0,855523420884902
0,828563962817757
0,824845325947065
0,821193264047036
0,819222849277476
0,821036729379203
0,830373397233761
0,795865449356965
0,806488221531498
0,780026548338228
0,828912437461884
0,763111053504751
0,803608667208546
0,776590985963023
0,791543682182382
0,781375692079891
0,785120592495333
0,746470319216773
0,777041357670817
0,754818853306904
0,770413616043518
0,749997938098583
0,771523771083414
0,743518645003453
0,752146538022468
0,728124166632021
0,732426828645026
0,73095989066741
0,726843894675594
0,717402782258382
0,742664363863385
0,706950928393084
0,725236666669488
0,717769509286386
0,713546629634623
0,693816785676476
0,696401281871619
0,680187492832319
0,70281941546589
0,674118413998123
0,707694874645848
0,673753360249565
0,698532383839392
0,659765908775207
0,67811763029763
0,643743268233632
0,68568601025495
0,66670618036546
0,674596395391022
0,649250521242792
0,647793013234609
0,649396271255762
0,655119436462564
0,643144485903707
0,647971867819424
0,621765735078101
0,64185498825865
0,622476591966505
0,624298544862311
0,612951299576465
0,612285141153462
0,60072536356896
0,607376844159336
0,59632399139111
0,623795140413813
0,580469995723786
0,607683656921153
0,577148496661799
0,600272043078477
0,582811944960677
0,594551342703492
0,579321300433172
0,572718033948062
0,569069914049655
0,590527783993628
0,562783357605718
0,569587174272592
0,551830709801237
0,567935463779142
0,561871178289513
0,580486193280931
0,541083050345485
0,564107775027921
0,55124384748752
0,550376329010756
0,536147686026314
0,535817127153343
0,537343219603454
0,539411325447697
0,531505807891484
0,537268119093391
0,515060079008071
0,536416164328117
0,511070178492493
0,517458016103229
0,518489063497021
0,517602943582536
0,504927722594475
0,524143738931733
0,501664038841989
0,507502016985825
0,489566679984038
0,505587929303563
0,488656128146217
0,503433987034005
0,492620423853491
0,497753455909967
0,480733474704898
0,474611631687641
0,470990170907062
0,475026856179951
0,471765796580493
0,478054241996051
0,463737367107989
0,4741165562991
0,458552786248681
0,468079830313657
0,462554828537787
0,45866367677513
0,451027320778851
0,461697261892397
0,44429675559991
0,45025996529958
0,442190289729995
0,446909171898226
0,432278893988697
0,4512756574009
0,427444786962646
0,433447929389004
0,413294580601657
0,437484309907792
0,416852156965499
0,430115470955234
0,416290975432429
0,433723860354718
0,41180093549887
0,421416310683022
0,414568184927981
0,417145960334511
0,403591111171647
0,412726728475336
0,400333722513967
0,40983675342832
0,395034531478928
0,402374725260108
0,38580933494635
0,400700184501492
0,385017874688097
0,398512488153134
0,381501695374497
0,394973475591804
0,374169078215141
0,389296477674519
0,3810138473704
0,373179279666093
0,37220001924601
0,380396156302508
0,368985899519311
0,371601519645549
0,359517834111169
0,37272724758834
0,355521094631586
0,36758930159715
0,353325378963085
0,360263583149232
0,347139310387142
0,36078731197389
0,346658040930987
0,354660932027077
0,346298814961821
0,348272104001596
0,335132803432131
0,347518956224315
0,334907072295469
0,345997276671197
0,337106988681985
0,345274607900214
0,333017479377012
0,333766278047194
0,329983444778207
0,338130265581872
0,33612065510492
0,32809092797522
0,328226657361613
0,328760421440147
0,32238889769088
0,327081987077787
0,320188213787268
0,33381530546242
0,316743985579182
0,324504514890432
0,31179440023594
0,318361699060751
0,313793625695209
0,328244277739873
0,313073112373255
0,318047387167979
0,312022024986501
0,318170023860555
0,314311543339491
0,320722642791714
0,308181520889052
0,316914465890575
0,317779355839713
0,321224723473153
0,313532090956725
0,319857763155526
0,312462175117282
0,316633615186135
0,312557782737925
0,32194228827539
0,316757147393223
0,324859473430955
0,31000991216833
0,329013030214241
0,33019378365862
0,324522200045912
0,312934704164229
0,330542475755335
0,331789556719642
0,333992995537036
0,314391850919629
0,336577577338202
0,330600866066115
0,337749086788701
0,322694270004901
0,346772375750616
0,333616454185373
0,3486243154906
0,329675595879743
0,344187998295857
0,336334774080298
0,348205047866216
0,340107934492682
0,35143433844199
0,341212912135514
0,353429440949297
0,349911191880071
0,3531894018981
0,351169719505246
0,361125930419206
0,350452945282109
0,368985235586936
0,36006134136293
0,37524940672198
0,35354055814457
0,372828378643885
0,371827210022901
0,381495390791392
0,380857306597197
0,388407607894779
0,375793865359211
0,396358269502034
0,388166700618368
0,407121165267002
0,396960827764636
0,411489831533207
0,396929505639425
0,414323845189008
0,404686407630895
0,421621477328162
0,413552694350183
0,419908827297805
0,414871048960106
0,429668468635485
0,419287022804316
0,439022607030314
0,423684213185066
0,434285858169061
0,419284111045627
0,430817277014174
0,421402166956104
0,441707958074414
0,426474054560993
0,424322154727199
0,429038274381313
0,435981052228083
0,428518578781107
0,437505254191503
0,423394024268177
0,427139721127878
0,418674919882672
0,435179246889042
0,4182365653492
0,439545592227061
0,432736040959879
0,432391910760805
0,426991442042827
0,436419554150382
0,431529532987535
0,437223277594976
0,422731474410198
0,428239835498888
0,425513667167572
0,431717729214879
0,428109689038837
0,443111762704875
0,430812604764841
0,434367986923113
0,431528772903402
0,434076482458078
0,42768265575739
0,438870740638204
0,427013982712195
0,444181258998737
0,429109353387712
0,441791227799603
0,427208230868558
0,445166876901665
0,435561036670411
0,443796322553648
0,431442243610616
0,441486706267088
0,431785835929639
0,443952666163607
0,432834751428039
0,436631332229922
0,425924560071596
0,443637245006785
0,429428112263556
0,435856703414985
0,43013779086019
0,443315717838599
0,427018336757979
0,433181636613359
0,434798279229969
0,433037826904266
0,425573222380594
0,432096385314344
0,415190673956123
0,428230422114348
0,415531220697346
0,423351564736878
0,403439576229646
0,415708693882824
0,400555764454306
0,412647222430205
0,402223528800694
0,41005076164058
0,389117103979535
0,399917225954588
0,387527415238076
0,393345285045436
0,383476137876718
0,393688895479364
0,37354875211797
0,379749435013224
0,371460362235464
0,374928250584541
0,36793292707675
0,365121257202163
0,351290930792254
0,363182829332739
0,346149624131358
0,354651931159296
0,350467472337987
0,349145921136065
0,342627174129606
0,348307528880464
0,334486287741551
0,341301054262886
0,332066630326302
0,335312246760459
0,323610257336615
0,329242367644474
0,322558909734715
0,328211799450483
0,318109954054194
0,321668512457886
0,314720257646067
0,317637828171429
0,30833928817676
0,312258704963484
0,30434596338569
0,313284299851489
0,303198696184096
0,312609420618021
0,301335328256057
0,305751074567709
0,294763636901076
0,307687116133807
0,294796413962059
0,298037499578234
0,295473640958141
0,292651315672903
0,290846749239264
0,291858801614641
0,282884412305718
0,291107195924616
0,28171576382174
0,293378828685214
0,280345543341405
0,280400383163004
0,279855639368179
0,282740217265487
0,282104770859606
0,279439360590378
0,271795582082552
0,273890148725494
0,265042046103034
0,274953173591902
0,269123038871853
0,272419146265244
0,2624797911514
0,273909875365245
0,263397252866956
0,264490085511857
0,261081077810706
0,268359907375261
0,259764833518128
0,262538054098174
0,255085061590395
0,261031013743564
0,259188050119716
0,261783509037653
0,255979015592888
0,258230331704268
0,247429474316495
0,255912546572008
0,249197750478252
0,257154568926611
0,246288342437465
0,260069483503006
0,24309407548789
0,250018862708327
0,245330773324874
0,245691134848718
0,243691535318994
0,246497784189391
0,242492775236872
0,240726945827217
0,241081813649482
0,246651359493774
0,23575363028003
0,246395174216349
0,235785989218702
0,24182557861006
0,232196545417461
0,239012902694643
0,236184378888801
0,238596131611439
0,232782393215557
0,237739139964621
0,228414711698998
0,238539277985389
0,229230879082348
0,238378507533089
0,225938026856208
0,233818880086615
0,225909504312616
0,230979101874883
0,222412803094945
0,232167721014108
0,222187418058014
0,231702643643896
0,221065548711813
0,229759695611868
0,220138382189681
0,23017029350992
0,218129247248675
0,225867258515953
0,218891584516505
0,22616413576988
0,220537606758767
0,228025375472621
0,222526265926596
0,221811564296179
0,216260935558565
0,222250814814495
0,216074903234534
0,223520690938522
0,211675904883041
0,217437755343073
0,217010189909938
0,223095602920483
0,21665385710058
0,225081960943287
0,219343859575563
0,220983627593187
0,210235466619286
0,213347980577277
0,211301696937927
0,220349026185012
0,20968471534829
0,215455894900739
0,21318063871279
0,215591375391933
0,206304470578653
0,217795197866155
0,211335271705101
0,212804242081905
0,208287835785666
0,218686518944078
0,207875574435751
0,212824132372161
0,206828349436865
0,215639571857376
0,209176964685383
0,210903529140252
0,204608199815486
0,214486917151017
0,209356020690001
0,209061547502521
0,20087766994885
0,207877567854943
0,203543820384612
0,210195761916439
0,200658676152564
0,207432076200412
0,203788117488931
0,204512901522427
0,201284120411082
0,209206003736167
0,200217030725245
0,204419442524201
0,197182512739733
0,203395663256464
0,196543646978056
0,204040307196873
0,198074880254885
0,198161339598756
0,19560688040186
0,201140560183557
0,190366851484381
0,196713297599937
0,19333943128886
0,195516491952437
0,190191650725188
0,198309772638209
0,189142775537387
0,194340124549294
0,188966877714946
0,197380871286663
0,19073085549172
0,195087676911421
0,186482406546157
0,193142443589643
0,18794930035686
0,188140461150363
0,182257908550822
0,186745263185977
0,184916485135333
0,189734450055991
0,185899834043753
0,187667186183997
0,177716169214042
0,183519672133394
0,180129905700871
0,18892447645185
0,178355688402937
0,183201878276305
0,178350148146396
0,182316781819038
0,177929175923036
0,180285702984097
0,17703711914669
0,179196281896526
0,175200534425055
0,178121581800397
0,170345461197178
0,178121638496429
0,169378341499621
0,17415342176827
0,17079459726096
0,176419581635512
0,170472260979652
0,171136931805571
0,162825003457254
0,171353891161671
0,169025953366558
0,168577554754555
0,165369455957544
0,168242783333214
0,16280537717518
0,167169936192867
0,160844292036121
0,162834358861933
0,158217664099159
0,165631712256844
0,157655463985294
0,16548219930777
0,155854697039761
0,161209079007446
0,154590300336936
0,160518109114688
0,152359444400632
0,159322856844746
0,151757464135044
0,157961549663183
0,151741537820522
0,159095667753473
0,15244458534798
0,151403753439595
0,14924175802097
0,154242521914381
0,148945735330324
0,150029291597973
0,147542527293031
0,147062767437822
0,141018989439151
0,149486409054974
0,143635731762062
0,149856782385621
0,146201330082387
0,149297352553004
0,140812758201876
0,147635944370563
0,142031621992908
0,144240197074907
0,136944322354126
0,14339317473679
0,141325930141063
0,144625211414465
0,138925815844371
0,139310896541792
0,136547638152882
0,141841472123781
0,136926360936822
0,142862389070729
0,136556892950721
0,139498175180693
0,133585207439181
0,13685613370722
0,132866378147551
0,136532520171803
0,133474491824728
0,140011142465769
0,132006529825659
0,137333920494731
0,134065333728534
0,135417433316799
0,129588517161879
0,134897090724998
0,127647473110985
0,131491445118888
0,127996950291077
0,131485567379705
0,129390313808848
0,131515847999163
0,128461314290278
0,129503865175472
0,127026890112234
0,131350527492731
0,12576991945763
0,127769612505622
0,12390567776333
0,128148358041433
0,123921509040789
0,124689466016395
0,125954024779845
0,129441826368314
0,12380123284617
0,125027145860059
0,123054804032167
0,128692688933397
0,119831885812878
0,123704905122425
0,121961290551812
0,123729286410999
0,118397886367615
0,12515745046043
0,119689373738143
0,125066251416867
0,121669806418325
0,123055021689481
0,11876786336117
0,124204315451409
0,118459202495724
0,12200402539894
0,11942868104899
0,125033795117281
0,116155828187245
0,120413457356718
0,120614197702299
0,122879410880527
0,118125592539627
0,123183039809914
0,117618826806975
0,121605823276548
0,117027532689846
0,121716875433795
0,118985575062234
0,122958352131141
0,113541594838289
0,116932275059643
0,113403231981977
0,117517985519537
0,116087353977199
0,118952956258269
0,112621567837673
0,117452676935877
0,111145485696496
0,116920651662334
0,112106750634994
0,116800431009608
0,114867045226486
0,115583882008411
0,112025555670965
0,114660842103378
0,109355114376505
0,111722417926622
0,109849464368377
0,114192303487051
0,110259662674104
0,112260863378576
0,109995162805888
0,11205496169913
0,10881122992979
0,113680681960997
0,109099954935478
0,11384742466045
0,107028769321532
0,111759714841401
0,11112562156452
0,111808244234167
0,106288681601164
0,111615444823926
0,105706219910924
0,110033847462251
0,10632474068864
0,109279136844387
0,105096187892691
0,108097793519258
0,104763064256332
0,106845989523016
0,103290938919647
0,107036701007009
0,105968323681841
0,108502528628573
0,101551257635849
0,10546830699672
0,103753318033311
0,106211975899129
0,101806505286519
0,107315540125741
0,100816233586151
0,108595874668062
0,102757000852645
0,104850030210361
0,102697142621924
0,104173581808528
0,10201581845832
0,104720615438512
0,099054909966409
0,103750540454964
0,10206304825822
0,101367065714461
0,100969447039719
0,102448412299168
0,0990272463807901
0,102524099472947
0,0987552962089315
0,0990658346294535
0,0954201079330205
0,0997137825819942
0,0951247576039149
0,0998246767653928
0,0959678010947769
0,10027870330707
0,0979775341684002
0,098604185614891
0,0932530143481331
0,0968849477539547
0,0942282498437021
0,0967395154861043
0,0953973181424313
0,0976450497108208
0,0922406869998916
0,0929422166992481
0,0917811250940183
0,0949519908994377
0,0898608423859132
0,0960886707691303
0,0884665868850196
0,0947515817128947
0,0887795411117497
0,0917949777606265
0,0902178425726916
0,094393477706866
0,0895507039567692
0,091938869858239
0,0881725147998523
0,0922424525640461
0,0859856529007152
0,0899605010603696
0,0845416201647929
0,0892370265248508
0,0873949325251625
0,0901647291669006
0,0862227830969614
0,0879471445236272
0,0858580680121314
0,0875514116515212
0,0832265736066747
0,0874453697851034
0,0852626492395602
0,0884468917641178
0,0831397717122209
0,0870691691429204
0,0831643677253732
0,0864335527147379
0,0832343114015642
0,0844341819933969
0,0795805606205002
0,084710732342336
0,081453224859883
0,0847800631664681
0,0790156510107012
0,0846289342742585
0,0773764390172461
0,0832166128103719
0,0786014671485668
0,0833570781231043
0,080362912844707
0,0780031291806191
0,0754103543236734
0,0815382132417464
0,0743200891790694
0,0785524418632863
0,0759411248922113
0,0793283686526207
0,0755567309907051
0,079300961290593
0,0760185176620425
0,0792608938065269
0,0752318780146663
0,0754702746829533
0,0747971758742303
0,0763808856633848
0,0735770131816481
0,0763997061301306
0,0718732668333739
0,0771214108014087
0,0744491372711595
0,0757089245595281
0,0733249952337848
0,0764132248421058
0,0711695399405701
0,0754976699553709
0,0706698767462908
0,0732505113129525
0,0730849849223776
0,0748144872440198
0,0699508270999667
0,0747636236219985
0,0705875590150472
0,0724803177923019
0,0694914468097821
0,0735044142896951
0,0710319187504763
0,0734663280780103
0,0712652299351883
0,0744889140086362
0,0706772727282029
0,0711564627741464
0,0686702705244117
0,0750098594814767
0,0696708028337403
0,0708964687509729
0,0707935547408517
0,074483064612038
0,0694300467060837
0,0736622313912304
0,0675082487856183
0,0723359776899011
0,0702061804031528
0,0779982053154294
0,0682119168289374
0,0717982332639778
0,0639099286419767
0,0712040676321577
0,0665593554399442
0,0771109306125389
0,0703793946686834
0,0804130598558547
0,0670407505941895
0,0692564358856072
0,0631619795200199
0,0774578442710931
0,0664320485737995
0,0763030748673838
0,0739145394685195
0,0780628751825833
0,0683263157976992
0,0746152048293898
0,0658327113494208
0,0804927467536933
0,0639274513841867
0,0826251201075812
0,066850973055892
0,0756599725828877
0,0711096437480039
0,0793539377249779
0,0641097909455041
0,0710020854684732
0,0607639612698002
0,0719663907015705
0,0646301742034476
0,0801366699436898
0,0608311271717759
0,0824313792691543
0,0609409398518678
0,088054298567358
0,0581269910995176
0,0842274702879878
0,0560990546085767
0,0809972745956656
0,0464633385625307
0,0818672214063136
0,0505909835547736
0,0893623968936873
0,0572335982237002
0,0898781933782599
0,0447273226065443
0,0869336122162157
0,0349083430157139
0,0935786845852569
0,0480957543012665
0,092282773376509
0,0311163337210791
0,0940856858395486
0,0447935723102651
0,0930603671639564
0,0373958622961103
0,0868987012001849
0,0543161800705051
0,0801976122681566
0,0502499212430413
0,0697463843456278
0,0660694350845149
0,0593388839563517
0,0714736540722995
0,0570672957176488
0,0766857915900482
0,0495624751049161
0,074236719399108
0,0483098425674563
0,0724104171574786
0,0563447402222537
0,0678447947797718
0,0616545787133304
0,0621861751906251
0,063438991377754
0,0611408114680099
0,0626531334797398
0,0589927555496736
0,0626896059836713
0,0633996405952627
0,0595046848841781
0,0619434471827609
0,0590274992944242
0,0621166631973975
0,058892274720339
0,0618351536103352
0,058132791186469
0,0601248677797894
0,0591843524077409
0,0583935396033696
0,0580845185457633
0,0615017494700163
0,0589759954395749
0,0590444606302114
0,0588178668730774
0,0631028682281234
0,059082899501108
0,0616837045223358
0,0612883529708466
0,0598963975624825
0,0589367006032581
0,0586969238160262
0,0594339838878133
0,060908584034675
0,0606179313352211
0,0584270948512935
0,061678690623376
0,060070245465531
0,0579489212607401
0,0569390805209454
0,0600435724845778
0,0606006859950994
0,0602019953905125
0,0602254701075881
0,0596873842792228
0,059787965725768
0,0587177031396371
0,0609337533783764
0,05929609938141
0,0620283233743466
0,0614998679992999
0,0607681126019434
0,0607900053383882
0,0600952992729341
0,0561601476685229
0,0574238678792354
0,0599864180444255
0,0590010597678937
0,0588025055677182
0,0592493052762158
0,0560291605424883
0,0585735704981734
0,0556618112337554
0,0568342312164475
0,0598189717624164
0,0604255272473883
0,0614933321574231
0,0582787968106426
0,0569237853715784
0,0586407186249406
0,0574886665960528
0,0580298111564478
0,0579466291041327
0,0593482137628489
0,0595798680899527
0,0585063658599494
0,0579142135226037
0,0580538581807584
0,0602993704760613
0,0578051259965196
0,0612865567125367
0,0592272343299595
0,057589277747703
0,0588313102560291
0,0579744957756897
0,0578975950896592
0,0582858350409351
0,0575205952194673
0,0588253644006783
0,0581054588884738
0,0589824386754781
0,0592056450371793
0,0596661955439294
0,0596052152201225
0,0585668399035469
0,0595549789204222
0,0598807478200068
0,0607188990014059
0,0589648367447762
0,0583910964110917
0,0587481920227984
0,0591901487127749
0,0580858085557304
0,0614987977534964
0,0613966564784672
0,0596435590796735
0,0596348833217692
0,0588474617865097
0,0609801027905284
0,0621984320402082
0,0599467335700526
0,0584888621094593
0,0596590713769418
0,061230206056174
0,0608376218156089
0,0611539795593452
0,0592569886409867
0,0607349490652471
0,0596787624986305
0,0608708483221135
0,0601844591174873
0,0596263978597523
0,0610312820370344
0,0598017299297182
0,0567294068198266
0,058737128627908
0,0616512162157891
0,0610819096762509
0,0590543906157951
0,0596709856422746
0,0609499808065153
0,0596618930886485
0,0598846063677162
0,0605714765347718
0,060597079113999
0,0588484784901016
0,0614736569834989
0,059544134470136
0,0589830295899566
0,061778074435228
0,0601241093659276
0,0601030498091984
0,0601731988454536
0,0588043022362981
0,0612593829925877
0,0596833065288816
0,0601325550239865
0,0616382196848928
0,0606980825649589
0,0605808208215805
0,0605425068981974
0,0620970896804825
0,0632434130646841
0,060765345315147
0,0604151189504254
0,0615319429295671
0,0625142356444409
0,0625601830141015
0,062679220604299
0,0616216156905913
0,061444833807203
0,0626404273990303
0,0629429506230591
0,0621504243290579
0,0634444713691694
0,0627684225655746
0,0629030923108031
0,0631821634716031
0,06104258956653
0,0628752924150558
0,0628844098299829
0,0620177289226757
0,0632916761118299
0,0610440543119273
0,0629854814834871
0,0628923522028569
0,0607116646563286
0,0614594274965627
0,0612297086961657
0,0585818444200143
0,0601862651724085
0,0622090330844349
0,0599161585504054
0,0599723372622738
0,0618489601810195
0,0626740662119831
0,0613300364134314
0,0596761558118252
0,0595008255057761
0,0601208492267581
0,0604767296502656
0,0577182249788403
0,0591078668909592
0,0607043467600153
0,0588899768891663
0,0576578738938473
0,0606494041371804
0,0584891817692967
0,0599122189738151
0,0579284001927284
0,0583537151553531
0,0585197512788774
0,0589140067651796
0,0573541986256125
0,0599030958717225
0,0598805331267346
0,0589676894864796
0,0582223262343046
0,0581654523361802
0,0610525208363887
0,0607433394345612
0,0591653166401367
0,0590084677649672
0,0574047037264062
0,05524857549324
0,0550598433390849
0,0572844749268237
0,056453209161202
0,0589321406425148
0,0572920853533458
0,0562914632293403
0,0573721795192237
0,0569508641978405
0,0549901930590489
0,0581019620170893
0,0559335091292637
0,0554194961612728
0,0582659456398121
0,0562429893373235
0,0543890150502568
0,0589204797117665
0,0561030412935672
0,056226874435313
0,057945092828479
0,0559519325932108
0,0549780938310408
0,0552377539757031
0,0564433942458113
0,0573210768823487
0,0561168196049269
0,0555793304410953
0,053789883717789
0,0538087768862341
0,0566283166210229
0,0546606802187348
0,055089691294018
0,0540226854445763
0,0557407038864498
0,0561635694824572
0,0541241605724689
0,0548432393198569
0,0545824993096903
0,0539712908402831
0,0567512999660244
0,0554469911209063
0,0550473279600802
0,0542045230576104
0,0535514004909333
0,0542142586488114
0,0562721437531088
0,0558554884300371
0,0562203722218945
0,0547997994250423
0,0549258435639114
0,056517151969409
0,0550196057261145
0,0554628062230425
0,0540956621985194
0,0544554804118753
0,0553995590305654
0,0545389507477058
0,0555731642062198
0,0538996536937592
0,0537145104544894
0,053911188055251
0,0551175349610244
0,0525295992850423
0,0530798583065336
0,0525916680859675
0,054530580514191
0,053672585896973
0,0536498704445137
0,0529586742545951
0,0525564959701734
0,052651410859729
0,0551807978131971
0,0546169067201464
0,0542035135927401
0,0536539797111929
0,0523126511741462
0,0510456840876341
0,0523865717308778
0,052629893454057
0,0531758783355211
0,0522120825573155
0,0518840944145545
0,0512224162745773
0,0493694323382505
0,0505324199352238
0,0504181488574839
0,0508920516306708
0,0509505250749273
0,0506825475833932
0,0518934818831096
0,0481908137804089
0,0508653647909754
0,0486573591714584
0,052059707506301
0,0486501954115007
0,050162443035636
0,0489079707165054
0,0505212926585823
0,0487531666547674
0,0515615624978784
0,0464819648686477
0,046393734240392
0,0483624528926344
0,0474536592404002
0,0465957271582367
0,0469003889551414
0,048774461306255
0,0455161479584632
0,0482911826901282
0,0467263239995901
0,0460681148016892
0,046209983902306
0,0455563663643849
0,0465480515922875
0,0491642371142736
0,0469078248583463
0,044118021639671
0,0455425713215966
0,0465099398913326
0,0448042203729349
0,0465288870635274
0,0444364732575681
0,0469088811952244
0,043624302109907
0,0512328010066733
0,0483075742683523
0,049322252866532
0,0436264459554499
0,0486587739357386
0,0460727051108074
0,0463853526204833
0,0422985805929319
0,0435151417710319
0,0423435653335346
0,0438709593260378
0,0442189432401097
0,0447621708620057
0,0458366923798958
0,0440017899943964
0,0430319126886291
0,0440305192215029
0,0425998385411251
0,0442516408823372
0,0442480523913789
0,0436571239221917
0,0414096924178485
0,0457604933880614
0,0418227070657683
0,0451698977707816
0,0415742617566794
0,0432881992396321
0,0448875266676487
0,0461966386085692
0,0431264030874796
0,0424171948706622
0,0437564682558981
0,0426966680613273
0,042908990670865
0,0421013485264892
0,0421996861042086
0,0404440538905871
0,0413826918471631
0,0415967266162788
0,0397586024264756
0,0422381780554447
0,0435522819043651
0,0419010051594177
0,0435234886454022
0,0419805192246813
0,0420508785251562
0,0396305962395214
0,0411721097211625
0,0395776563417349
0,0409733200237787
0,0378439534168693
0,0450191536592583
0,0379087399297935
0,0467503065478356
0,0404262728287138
0,0472443784027062
0,0385365516652093
0,0410404105912296
0,0397165104115111
0,0416204518987943
0,0376257874952137
0,0392619576436345
0,0404113107512266
0,0416115718535059
0,0392040742929166
0,0410527025048236
0,0395276127685359
0,0411458401146745
0,0401836290653251
0,0405746558831482
0,0386271655073591
0,0407635188427452
0,0386383800875237
0,0367988621058232
0,0404629743465351
0,0446491576920362
0,0395251312503632
0,0449714734630303
0,0350501580054907
0,0414397436549771
0,0452817024082548
0,0414253963306227
0,0437734385302734
0,0381275489570001
0,0433188287434902
0,0355538183788768
0,0436482434591653
0,0355059358120126
0,0462689509986476
0,0381493082884998
0,0450596996855297
0,0378338648595668
0,041438859191304
0,0405280282893749
0,0413779189559673
0,0381707352752415
0,0401960488098152
0,0373811493225668
0,0384304698198075
0,0389936101120132
0,0381518517634524
0,0380849049826354
0,0403708926964387
0,0352714896674185
0,0420775963286966
0,0407084373095413
0,0414631937033262
0,0369121987657025
0,0411987062824459
0,0331652656040439
0,0440483783583263
0,0380754982097764
0,0435351303146106
0,0368808498343916
0,03827527610162
0,0386570967062249
0,0394466343066628
0,0375450663558384
0,0393760145956908
0,0405721364312468
0,0375878008253253
0,0392582365720372
0,039212593895824
0,039114862778064
0,0384315596510495
0,0397728428392984
0,036883900041135
0,0404229702007852
0,0366442697891853
0,0417407047853816
0,0374224383019741
0,0360665574057702
0,0460739161156085
0,0416549441774723
0,0515451089488136
0,0394805019368616
0,0454666888517978
0,0377355116971031
0,0411403309862373
0,0357409175419473
0,041559753150376
0,0379325752648408
0,0408648689165244
0,0355199511100272
0,0440625081600189
0,0370531960132259
0,0416120240403766
0,0348809789994717
0,0398192509185592
0,0368422380097994
0,0435767409451241
0,0366093185402997
0,0398274505511367
0,0373076132395755
0,0396934665933833
0,0417685522971569
0,040877465549576
0,0419722588929642
0,0299337400587451
0,0570084409788814
0,040151659662204
0,0490199680292422
0,0346741363310196
0,0438425833848244
0,03788379048097
0,040727977689949
0,0368874411952421
0,0420104562514857
0,0383919290769007
0,0409560196587328
0,037285939153411
0,0425046162805515
0,0386026350232864
0,0362890390547207
0,0450057047156776
0,0545366379400682
0,0462453667077548
0,0458164424370532
0,0331144066660626
0,0547246145095689
0,0463586006339061
0,044077132290112
0,042014371544598
0,0399327836628445
0,0426742972968342
0,0386519529828495
0,040846258389077
0,0375329571766807
0,0452201213952575
0,0396124021224818
0,0445865667495829
0,0384360138893483
0,0410461295839557
0,04047966880804
0,0407447147357775
0,0481962394107103
0,0488231890372114
0,0424425795878849
0,0471976882796988
0,0413137852504922
0,0428597475691294
0,0416577732606787
0,042584985319272
0,0390148261034904
0,0490794655963473
0,044830726910614
0,0463242385485675
0,0510086032964218
0,0486055104492183
0,0439250005269765
0,0450358715754174
0,0427532715646693
0,0522485899440875
0,0297821984930289
0,0648178785736068
0,0412134326924874
0,0673419781558428
0,0461430655026358
0,0496670094353345
0,0440740358209604
0,0468809261263244
0,0415340440929325
0,0463520149921334
0,0582964627897221
0,0398318434669352
0,0543029282345165
0,0335952437762261
0,0590855283534207
0,0480946852089227
0,054656742152593
0,0432613865626705
0,0503032844903627
0,0401121288072637
0,0687958081415594
0,0396661648483011
0,0506315085332071
0,0466535575720076
0,0663117039011327
0,0722996911066401
0,0415396930372238
0,0458188933571053
0,0598293266571963
0,052019421590413
0,0537585416732532
0,0438505282902738
0,0597207945130439
0,0374841424383724
0,0557260666310964
0,0607855542240282
0,0509095993010056
0,054743113091053
0,0463456932526909
0,0453015542432636
0,0567590549206392
0,0493406724934782
0,0512875774063307
0,0486589356366011
0,0505478135788569
0,0343610949361799
0,0954528651452243
0,0339820743880449
0,0733734940760566
0,0423712486872824
0,0676075450324366
0,0457498596912762
0,0580065940623513
0,0410012379355112
0,0605185246887426
0,0565194929822876
0,0610065403770854
0,036333450090752
0,0703560728638901
0,0550378897333694
0,062118959620758
0,0575874861732428
0,0551665590912104
0,0463363026277908
0,0785218422115682
0,0828744144372139
0,0861093434380599
0,0619419938464749
0,0671616394070723
0,0764568463284814
0,0690437298630115
0,0678200575742328
0,0675017541360065
0,0721929664988432
0,0691551792502003
0,0682179580423375
0,0785190744623484
0,0703354729389274
0,085700836777976
0,0677407824082692
0,0822630107497977
0,0664366700518968
0,113824859494247
0,0941543893931601
0,0829932729741737
0,101875841174518
0,0942342757848484
0,100600549629167
0,0853831972449405
0,087750264553259
0,0903443544770644
0,0937062476308857
0,0932576234080317
0,0809373805156749
0,113388423182654
0,0900946269380317
0,119666123674028
0,094822458450421
0,111092356916953
0,0909761111647276
0,0990562009417535
0,219809209729142
0,110624880063215
0,140863070311449
0,0986766366055717
0,14182186950579
0,147751866630122
0,141759220825862
0,127943150254861
0,136388683084668
0,129357573906048
0,141860120155602
0,143154947900608
0,154194336924713
0,16162492437928
0,159128020356085
0,147161945736609
0,184075896255618
0,180088287082105
0,222467893340235
0,187143857019094
0,181883029492683
0,192081136133317
0,20808599440008
0,190414072604431
0,213378488178828
0,187813482889914
0,234331110945938
0,233574376948233
0,236661356792136
0,223666661421347
0,234306524917593
0,258630915835225
0,223457555787697
0,309706502892673
0,248251368172014
0,27184466419675
0,247252475738895
0,282462722529904
0,260310188405255
0,271508001093825
0,294255983992995
0,293799762537844
0,293573089265378
0,292068414091782
0,299861454359287
0,293292347549502
0,304778269727214
0,301097032926416
0,296579291755956
0,328232549023975
0,311269087620323
0,50632527817396
0,313510026478503
0,328974270049773
0,301553102463103
0,32292016134509
0,338458803873998
0,314094787206465
0,366408883126138
0,322240546903932
0,321668835312966
0,316696623832813
0,320264588707929
0,321950482391907
0,317485392609367
0,335724671731991
0,306697548701508
0,361170048446037
0,296194618210181
0,377161370470962
0,337104676962421
0,3410682424227
0,314548118298646
0,329583562023468
0,312423533575319
0,329778703195552
0,305046948046569
0,328297208627736
0,335245839492348
0,325189538355663
0,319904574532259
0,298903400800953
0,339552175333567
0,323368457823728
0,314384214227748
0,316009121973675
0,303049421796827
0,31528855455725
0,279377486114302
0,333128127669554
0,332728939110274
0,306190146589466
0,306759111871409
0,293496875690046
0,299327505508969
0,292851800156974
0,286864795445973
0,301087546161642
0,289623963394722
0,290173329246784
0,293342248825047
0,289834657511222
0,291678915935554
0,282336343042836
0,288075469009202
0,287737866624043
0,290079219427457
0,285188482371599
0,288506811230967
0,282763977078589
0,281207578962949
0,284245522298488
0,27713644911289
0,285032506792491
0,284871914716038
0,275654071123636
0,281137802179742
0,280033195443041
0,282649240841869
0,277766162502377
0,280979723585712
0,27370665797689
0,277636650314928
0,276147474662998
0,275973227654034
0,268643620423719
0,275245515726132
0,272936192464942
0,269645940968121
0,270086675059052
0,273127111434254
0,271893631252575
0,244828416183793
0,339011757703772
0,267284882310276
0,270854637131781
0,254324711520634
0,262610277492108
0,252286302936927
0,249572027414376
0,293087588390478
0,260734156549164
0,253467037740362
0,247367254037529
0,238363139987264
0,259261958285868
0,243312541256275
0,238482315936926
0,244256551776661
0,208941697514069
0,29197938991796
0,210439003100225
0,310605750053592
0,253241401361956
0,250438771373203
0,214068821722842
0,238640431645746
0,238506390494599
0,221156703687718
0,229831199314409
0,198646317059605
0,256946050909529
0,218083042796
0,21951737643939
0,210267780599837
0,199149217799601
0,225329034114719
0,23233314393452
0,203837526484912
0,224961962430283
0,220086029685044
0,204913507855279
0,217127029242173
0,240154418112544
0,22204385900274
0,192051494962116
0,202026663780097
0,182278754863548
0,185125134752046
0,230737292048976
0,183806450580108
0,20836805458499
0,174608021906343
0,189446653168173
0,171927675522382
0,197646561746594
0,176985645952744
0,184985789265838
0,216336829993253
0,160673148470046
0,199258915007537
0,161405233104015
0,218546929251453
0,191978788826682
0,185894116919968
0,151370168609321
0,203857407275667
0,187173554964178
0,172845368975143
0,182024876160862
0,156026670090143
0,16806546924643
0,177773050057653
0,153451957393262
0,183225491689678
0,164607165620984
0,176022973675032
0,188351587685153
0,188508280078213
0,199817875014554
0,166446971747661
0,157517569652985
0,156869220528218
0,156812812444149
0,171100453951217
0,13890143590024
0,210705951998221
0,153861309003949
0,158252429058792
0,195973166312759
0,172622789660576
0,165516063973534
0,172624529733745
0,165575296801662
0,171261314843676
0,172329509649165
0,209681674731576
0,174300049307703
0,195977101911566
0,202100386968594
0,18835723026143
0,194962001912655
0,190495828407847
0,197983141677071
0,196377632336484
0,215086807770357
0,20661455215872
0,211373498430926
0,219409401766012
0,207513108324245
0,241322657745438
0,246585202893122
0,217072629407838
0,279597605936783
0,224458689764162
0,317693015316287
0,247286045940084
0,264907313448761
0,25900715731992
0,263062421225236
0,273100323417623
0,263348799234062
0,282883470226554
0,309165576778933
0,277379351691294
0,301702336348634
0,282050963429512
0,30296470762884
0,280839091846093
0,338209417827417
0,275481689581419
0,389666701653152
0,313737787998853
0,33145401541874
0,320201653829542
0,308880091678503
0,326878269620207
0,321541492453403
0,321515543441214
0,317574473350816
0,320523722637652
0,345215780510104
0,320141315848321
0,338323400768875
0,323297006573416
0,334748937534836
0,333312058989936
0,336870687973549
0,337268512176302
0,340835775452916
0,347586656302288
0,347017519699085
0,332228749040835
0,42722908273557
0,354950171908954
0,374247513647717
0,359624731552496
0,372655323260459
0,363245955815755
0,376451584112582
0,39103786710099
0,379763327479073
0,373613507845952
0,380244113777198
0,381409396244381
0,38546851668324
0,378675195103719
0,427271413148776
0,372815602369034
0,42205462857179
0,364376010216619
0,45218219452639
0,419264182747432
0,411714015424001
0,422596814131715
0,408313112887308
0,410167168660656
0,406719981714775
0,40812406221839
0,410356710704262
0,417274347585779
0,414629027962232
0,415044766831973
0,414733025408434
0,41511929340836
0,413036825176081
0,40839832448237
0,441169605805621
0,412768725455237
0,415034381129427
0,40484552070159
0,413890414590739
0,400778317690738
0,435154780631291
0,41296801106508
0,419588254211036
0,410505187605699
0,411666610741821
0,427969592197745
0,423661073543844
0,406236911469026
0,418337951021563
0,405647962409377
0,423599649947472
0,408042017233115
0,421146605913393
0,43694049455074
0,419731291328991
0,418982522192936
0,418400048430469
0,420380357148495
0,421397511463758
0,422122632518187
0,427447982844871
0,435271745539784
0,429900643113482
0,437279432565905
0,427776169727152
0,427586961503989
0,43454306970978
0,445029992753495
0,440211443109965
0,424921894637677
0,430604323575332
0,420191197089671
0,424028229249753
0,431325056804088
0,4250635578223
0,415153613750897
0,417304913928743
0,412648070947197
0,401862236450456
0,430946917377482
0,391244996079917
0,416639543617626
0,392758718274328
0,393167372374202
0,383812389320437
0,387413558882246
0,381149226997562
0,380424741653742
0,379364610855759
0,372571643977169
0,374280867890164
0,375703717257922
0,372700466748076
0,367272186341962
0,366785754843515
0,370264057445425
0,363336916238916
0,362162328712371
0,362232467780156
0,36770271679712
0,361506579355541
0,367188582424277
0,354274974432509
0,374024000865818
0,369186212533439
0,378919370093387
0,36422728854781
0,368001050450785
0,363838310677487
0,362161537992409
0,362174420716259
0,360927724187813
0,365299293358364
0,356742482005536
0,361900230114838
0,357910471887365
0,359228216156906
0,35789579280671
0,364307065641886
0,357182761548073
0,361305125646076
0,355100932978021
0,363106626179715
0,351511681259686
0,358164985412524
0,349635107231886
0,359275898606192
0,354681514002303
0,360343738571487
0,359755419552566
0,352985149696908
0,36097961282806
0,357356720814636
0,360068783545393
0,355516298034787
0,354645839330751
0,355774724939034
0,351785954680753
0,359602207793709
0,351104002556746
0,356485439434262
0,351938675735439
0,353029298127476
0,349079449306496
0,350677592343734
0,343660458875521
0,34275067988896
0,338852736422297
0,339072896934274
0,33453254019015
0,334748090745889
0,325545424441145
0,327908623982485
0,319738800891116
0,319685386968096
0,319672095852326
0,318470541548241
0,313567498112927
0,312242201794899
0,310166271344845
0,31212151668971
0,305863560408582
0,308886117871682
0,306186730643189
0,307802404305399
0,301869073445932
0,304837189021693
0,30212880196301
0,303182417821274
0,301114619065804
0,306969943579441
0,303427125384511
0,307080577843993
0,303956559521964
0,305023971648408
0,308789957792308
0,310149831306885
0,31057591076095
0,311851216065817
0,313305257043529
0,314511419974325
0,317343768755568
0,31703181318999
0,31693315770143
0,321521003989668
0,32212381195906
0,32130922640569
0,324074543367128
0,323914070197297
0,323734309296659
0,327378900350208
0,327106334081373
0,326327900760705
0,321816385686154
0,327279436944941
0,325182428665115
0,324340094119193
0,323431012097965
0,323736822005985
0,321894686731464
0,320561513236895
0,318704967393121
0,320801345244667
0,319733833023154
0,317443017625037
0,316210110620672
0,319746859831921
0,314310673742327
0,312573047684449
0,307990048199756
0,309749794269318
0,306313332635302
0,308291274869538
0,306799191017443
0,306270891597838
0,307023985779503
0,306109251947057
0,301266776450484
0,303646231256477
0,301074668000902
0,30202316692799
0,299083487083554
0,302126636058559
0,299413428705996
0,298544424777113
0,297452142722594
0,297168763593672
0,293506579587028
0,295192639000397
0,294142570879539
0,292093459380458
0,291934920972878
0,291233624139061
0,28426919570688
0,286546918831397
0,285345187473732
0,283958384654909
0,281396037494539
0,282438401417203
0,280865441859641
0,277974558049381
0,275448917354388
0,271963606165398
0,268512207419749
0,267713073359043
0,266217534102094
0,266818982749636
0,262320293577453
0,261070792601496
0,261370991665555
0,262944194622251
0,261148997813953
0,261812575699267
0,260432228979471
0,259763197834719
0,256534177563907
0,257935417687075
0,256667673174294
0,254223893928814
0,25196354928853
0,249564604950686
0,245511965384148
0,243111335332447
0,241857986972189
0,239154084425464
0,235829722627785
0,232184665272248
0,229910274298888
0,230595551045644
0,229352560985517
0,231660297217294
0,231662863505466
0,235998070641354
0,23975082143582
0,247255470047868
0,254364349260392
0,26148991162973
0,27007807581739
0,279978612331515
0,290917192109
0,304082076366901
0,313378228416961
0,324196923271177
0,336213049310763
0,352459682930437
0,36075646887454
0,375689846997109
0,388839659866383
0,403908912891974
0,415878407501167
0,424051005220205
0,439008016735002
0,449531608501315
0,459765668701609
0,468427283711699
0,480011717528566
0,492495650343845
0,497501465997389
0,505448238201595
0,513848873763382
0,521544601006089
0,527814380407281
0,535385992777536
0,541337850333962
0,548459001764803
0,549273180454468
0,552036710777405
0,554422636374898
0,56085024767835
0,557846931608087
0,561110653388254
0,561584177149414
0,561789863844437
0,561795922320731
0,564485670074864
0,562253797364827
0,567923445195352
0,565235853030404
0,569529428825679
0,572016718439
0,571024414775926
0,578269117594459
0,576877096134612
0,583566559387703
0,58844164708511
0,599980756516221
0,596570441311692
0,606435356132487
0,608683437256947
0,612659009061827
0,624162225909046
0,626967431414022
0,635707033688637
0,646373316321112
0,65456547767222
0,660498282878878
0,672918088094343
0,683529354818053
0,689475738486441
0,695222804345396
0,704543562982203
0,710355430671447
0,715737960256074
0,725106976828041
0,725590735470087
0,727925895088177
0,72906377395974
0,735353744786031
0,73178855471367
0,719064447267398
0,72319489687712
0,716963065491238
0,714450686309787
0,717665511902815
0,71279560167603
0,717092048262757
0,724209762234178
0,726609275795106
0,737548080128505
0,748837261383945
0,758444357957962
0,770114685972445
0,784350563605994
0,793074027720087
0,802304068291258
0,811272505207774
0,8336486645923
0,843078749960189
0,84750466178039
0,868691503582168
0,880976650389641
0,89383401240976
0,909115764094507
0,917858136526673
0,926512958788153
0,943264295955106
0,961554269414351
0,975493057041616
0,98509534849128
1,00937848761578
1,02355578741166
1,03776618628021
1,05163157184955
1,0707488834457
1,08908247200563
1,10849655147514
1,12595065341941
1,11812305537151
1,14271137527855
1,16934816285468
1,17359930680076
1,19002503397261
1,17804916383954
1,19587690076308
1,21197609973947
1,20606103348284
1,20583754401503
1,22112001663194
1,19238175517577
1,19647070898569
1,17728147055091
1,18928447171474
1,19842165151802
1,1827048503913
1,20135887026373
1,18181968068549
1,16496713009191
1,17719573415301
1,17882996135157
1,16224962181371
1,18315921363983
1,17784794943
1,19290522618852
1,20569812754337
1,22709018939844
1,2218051736622
1,238178344938
1,25602018500906
1,25332140676109
1,25797320681896
1,25142305355127
1,29260886290125
1,28236472574589
1,2787756884596
1,31121287584108
1,3306798496523
1,30125675608623
1,31717809780127
1,33764560953253
1,32380629044407
1,3079128516476
1,31889560524657
1,31994320484575
1,32911139359676
1,33388151671391
1,30636235013401
1,29370244582118
1,32923021918394
1,32352420543524
1,32794886449375
1,31342669695293
1,30501395370262
1,30210171872165
1,29228452231846
1,29757136314677
1,29478898133089
1,28647914528348
1,27284811236134
1,26239544407794
1,22617539513311
1,22194039146671
1,23238738471711
1,18819605861046
1,16323073946823
1,1427818710749
1,12129691256511
1,08716953064021
1,06053534489285
1,00775964942732
0,984258401816784
0,946379150814589
0,911425163410426
0,884082092459639
0,853798912683466
0,815598037744285
0,805960334362782
0,787598229617775
0,777548239726287
0,767796824124423
0,760006439795495
0,758233445728516
0,750008750343451
0,737720872260826
0,737708626973429
0,733929071965772
0,721856474562675
0,713795426174779
0,704862331003665
0,69506327817932
0,689624536926377
0,6802902382222
0,670524229487415
0,658398353902758
0,648157166134131
0,626285220806388
0,612472964216037
0,598651000831569
0,57752383886857
0,557762561179713
0,542854598189108
0,52923488220624
0,509721017939105
0,483854512203599
0,469792767958552
0,448765595035061
0,428814540420704
0,407412358849746
0,386474004037519
0,372865995860154
0,357312445649399
0,341266760479042
0,324268085783603
0,314653319788943
0,307583581182162
0,29382032961844
0,283380109438297
0,276907901303592
0,26998277516122
0,262984069675784
0,263337716876476
0,255472867617735
0,24961568918932
0,248046470602223
0,24663801179309
0,248732043652992
0,247901705644593
0,246786968396952
0,246809674195227
0,246270643404522
0,245383057755339
0,244933515401839
0,249861274333583
0,249955085640701
0,251333479968975
0,248984523137757
0,253040700266884
0,252909148846378
0,254508848678358
0,252144479470812
0,246727121862203
0,247114535698122
0,248623273592074
0,249363076567433
0,245104351569599
0,242384630463295
0,242910802392929
0,243654062079464
0,237731280302619
0,238139824134386
0,240420959346569
0,237662814069867
0,236179279840548
0,236951075332374
0,235854418138779
0,233681138631397
0,23872601772424
0,242155895227401
0,243408683327164
0,244411120243335
0,246207229730284
0,245755864415401
0,250175440180279
0,251875588344889
0,253239736583118
0,257942082376329
0,257082651972154
0,259958980960358
0,26278160767836
0,261538626044492
0,260158005167696
0,260669389872305
0,266309704394024
0,266320052767073
0,262309862857563
0,266397665541348
0,265535522547898
0,264065917569253
0,272148050032428
0,274237907448439
0,27716968043044
0,278236215576739
0,281703304323365
0,287037746942597
0,296008339428732
0,301865484436611
0,302256071574894
0,310322436291947
0,330277554031037
0,339025026435704
0,339728826908122
0,346926256109312
0,35413028417042
0,358618763814161
0,365437734440138
0,353644880825498
0,361482943039372
0,360912460339673
0,35233294645634
0,34313931183283
0,339631480936394
0,334559802331172
0,330809072161901
0,321899896698111
0,323411398701862
0,316278601618729
0,312341015426087
0,316898563263934
0,320637226604176
0,318254624870133
0,311930161927226
0,310923790502894
0,313649939658738
0,317387699549455
0,313910325282541
0,311077465969792
0,311419778138508
0,301698122875051
0,309065534301902
0,303689541789296
0,297268606436148
0,297208985963302
0,290374845983978
0,285201563812083
0,286229763054753
0,28313559138917
0,278932845020519
0,271217883007181
0,279297614842206
0,271225934642436
0,275453371184875
0,276166651481162
0,271276973940186
0,267602372325491
0,270404130577475
0,26823178886999
0,268925335877799
0,264235353544189
0,264148298249039
0,255887286543065
0,262113358027582
0,262147379808308
0,252563901994443
0,253125544260982
0,251468980805739
0,248876008405966
0,249522990759806
0,243966929950854
0,247593525072755
0,245017458308558
0,250302417035649
0,242473526798596
0,246798639510944
0,24134583323487
0,236180841943554
0,238957377071383
0,243476975976287
0,235974029992321
0,232862858944414
0,233627245828589
0,231111811425298
0,229748020717353
0,225461407766613
0,232131716456323
0,235344533806897
0,229955829534171
0,232722348922094
0,231600305719942
0,238145128950401
0,235696466056099
0,234082185909094
0,235178702253716
0,237182039196027
0,23706970022731
0,237030058092088
0,238929695070553
0,245686942541677
0,248870490834881
0,251245864482048
0,244972858760486
0,249002657381607
0,243826820774743
0,251796887430573
0,243320323720206
0,252556007940976
0,261981342956446
0,262993690029828
0,256482794207924
0,262433154754599
0,27040333030717
0,268925732966413
0,275664867188105
0,288139642354073
0,280666167248761
0,285959264182099
0,302464451622079
0,305568305925353
0,309286165324975
0,32713398588389
0,316187449896545
0,333228402287856
0,342898245644129
0,3507876886094
0,373145828513066
0,395990028762016
0,398697145713748
0,396743585203633
0,397070352759819
0,419957506075415
0,422229667476344
0,424117570971392
0,422374185496827
0,432424411471192
0,427507509525967
0,420758893212186
0,414020571494141
0,421650332246154
0,430392749798308
0,432022606880594
0,402277891291855
0,39969688445408
0,416668674969388
0,418332135332225
0,39360151998554
0,400353988040017
0,412976484479933
0,419270746417243
0,396983851155133
0,398451937843685
0,394171972863536
0,407729018413158
0,420861899510104
0,394622244834337
0,381195202555881
0,386741418905043
0,363686726551232
0,367149634773845
0,359948486638889
0,365067115951729
0,366023085179637
0,372505677844972
0,364287565193089
0,353504761368493
0,365500890806025
0,358009854427214
0,348566912580126
0,365244204241254
0,37234761883095
0,368513643421378
0,356317394701231
0,370935204323816
0,353176055695283
0,353377235341454
0,34439662149848
0,346363603235211
0,358028902105158
0,376308831381919
0,366964078244321
0,347635925875566
0,349228748795157
0,355921560330255
0,346071846111488
0,368152642598546
0,38460463493949
0,375762583586078
0,382028288810683
0,381027501918339
0,363549147630208
0,379809434430892
0,391895956996667
0,391116859017191
0,363716507962298
0,384854655247615
0,391442015017514
0,380003414100538
0,38672318816252
0,403662535397672
0,4038621032569
0,414174284896595
0,400758332810606
0,42820364101096
0,399566020135984
0,428745848915423
0,42109723075198
0,428708483235044
0,431001529168139
0,396452893691868
0,45508649172082
0,500569077198518
0,449063185531758
0,474636589625667
0,475432030948506
0,478527993700454
0,487360121595052
0,523111189934248
0,509197759147537
0,489580439637753
0,506753435237415
0,549848155048985
0,545088231607723
0,543247395243414
0,530425911833112
0,520998654269838
0,502150858122341
0,51865312905618
0,503346603223263
0,463426312738958
0,499089160524881
0,572429669988892
0,508346819161841
0,464092338116246
0,482040957303769
0,529917544040938
0,407152966207145
0,377413317976564
0,478542611483167
0,480053923904385
0,457025668990341
0,521754676799254
0,441372158587573
0,538338902164502
0,610538521976179
0,504491326241267
0,509923836349182
0,473284980344065
0,398141057110714
0,404164841266673
0,387023598907579
0,465355634385089
0,445124249758534
0,394064751502593
0,47920551179624
0,402237811575904
0,541316142079532
0,5702228989637
0,448551588523343
0,572678872255092
0,393878761945022
0,437532489098915
0,518517553426482
0,518759524832191
0,426633447978568
0,598495632294421
0,475664932535781
0,39119586950738
0,57761692205142
0,512013641480227
0,564779703315413
0,609304663817357
0,599748867986044
0,622087039142644
0,638670174408867
0,620396500728804
0,759523868111065
0,624261659024984
0,457568084303809
