3596
4000,36533379555
650,420452594757
1
2
2
0,00428703136644605
0,023274546642162
0,0151417058046132
0,0153515250561195
0,00829426212758982
0,016375114656235
0,0127140866391736
0,0167360469959686
0,0122860767497377
0,0224759088158113
0,0156100993436595
0,0162273997099724
0,00516773067060015
0,0137971944376094
0,0107622775367718
0,0225955857750301
0,013900641555123
0,0155810838795663
0,0071977449440177
0,013792114845851
0,018742914173171
0,0201439304043256
0,00386706663195337
0,014221875862473
0,0115728599185936
0,0170117127257306
0,00930812119765897
0,0164414095380645
0,0125392744204685
0,0181674692244708
0,00426682280908356
0,0117701468708579
0,017617162636461
0,0142173345452686
0,00745115025996593
0,0135535146206669
0,0205355203134986
0,0154642280665329
0,00853325639091235
0,0248979639600506
0,0130396698434388
0,0222464648019528
0,0100529553500949
0,0190482709421723
0,0134032167805912
0,0174775145243849
0,0180789095600399
0,0198004293945668
0,0109636959039889
0,0156165034873297
0,00994248374545546
0,0142317428863958
0,0244090850836086
0,0068650152943751
0,00712247199648533
0,0219757384919838
0,0125769460403495
0,0091304855680496
0,00724891484505732
0,00874304493359468
0,00693792680845708
0,00650938256867508
0,00490326356233484
0,0191837495827117
0,0132792721639442
0,0211165841060672
0,0122204971075577
0,0154543217191866
0,00485578803675181
0,0157516710246534
0,00722472179489117
0,0122973182670371
-0,00283618625615985
0,0183341615307678
0,00937104525828191
0,0212702617202493
0,0100807702902366
0,0188221390150193
0,00674618657355081
0,027044583038804
0,00584618191219765
0,0171152971455306
0,0136080035068955
0,014719868711966
0,00849932389875907
0,0170270893186
8,6057684329544E-05
0,0151963990641085
-0,000294183137782887
0,0221870869292576
0,00678253437241096
0,0121425452197682
0,00496317158098126
0,014321852907127
0,00149055864933121
0,0158419555449767
0,000487520896901184
0,0160085158419024
0,00252487984106715
0,0245236359975758
0,00828962771245582
0,0117549617853136
0,0195933223760041
-0,00115172697257247
0,0394633998863375
0,00983274365886976
0,00651430511349353
0,0154025520308829
0,0127274705945612
0,0250003472768897
0,00679329190685883
0,0186333607828525
0,00401779773869905
0,0172989617788865
-0,00574452612282407
0,0182143501802757
0,00335283512767789
0,0240856799215583
0,0123634159867557
0,0260326493680276
-0,000226549063466364
0,0292137157252066
0,0165540176929992
0,0184535815939774
0,0137688818279647
0,0155027908653306
-0,0010169135041217
0,0232376810382866
0,01777293450124
0,0152765093500509
0,00846320928281688
0,0138694466764069
0,000848499179034583
0,00544808466389541
0,012707791842449
0,00443405334331238
0,0113855382167424
0,00675988907027486
0,00486468825799576
0,0340903783531898
0,00733699282766148
0,0133842951709008
0,00807830786840257
0,00628833128128742
0,00961016384966499
0,0233420641142544
0,00632191862897271
0,0144293510160737
0,00202685668834787
0,0151175261980767
0,0122855371502665
0,00997009795534396
0,0116287683918895
0,0109561587581347
-0,0118964842232161
0,0281607103816498
-0,0017515138933781
0,00466296533626283
0,0253268316647995
-0,00406694035481072
0,0170223088671778
0,00592997213312571
0,00843748153377698
0,000994084472580064
0,013036150869311
0,0062917022705767
0,0114613121696744
0,0197458507121069
0,00680369446032234
0,00847499220595
0,0143668135619289
0,0202918472043463
-0,00834586461227014
0,0307842991362309
0,000664790699525251
0,0121798074224777
0,0113467410736208
0,0149251567582957
0,00592799438913274
0,0130971315347379
0,01403118317847
0,0107088512082142
0,0131751752462704
0,0106851343094292
0,0110823530453887
0,0139702114245689
0,00299051286318411
0,00775413326936889
0,0171743686790504
0,0123777568470117
0,00617215440232541
0,0093580449151854
0,00630682476446215
0,00571055459035176
0,0113198366589765
-0,00532165111890013
0,0143769527923444
0,0174906331301845
0,00363097573558008
0,0121285355380709
0,0112527909085584
0,0119173240873376
0,009480902950512
0,0131789252422778
0,01300702538561
0,0053985359762227
0,00910767563856654
0,00633799407876358
0,00811711455700001
0,0113194130748736
0,0133271777530659
0,00295266537659039
0,0165153698145884
0,00893496933859751
0,00771424494825617
0,0129786837635307
0,0049407639842111
0,00995608135695524
0,0102055946687931
0,00497859570067809
-6,27274318822847E-05
0,0102040359094965
0,0138182169593166
0,00955446521288878
0,000244680078438237
0,00902010896568922
0,00374844965131169
0,00851504489100336
0,013541025605104
0,0125448733650231
0,0135744604174331
0,0121322966933084
0,0125355473773628
0,0159560568932576
0,00408095625113955
0,0122805971149374
0,0172980272264155
0,00680761108686565
0,0092243772099318
0,0103600024867883
0,00937647556382396
0,00854595675980776
0,0139911646807357
0,00948800817769532
0,0123680095010483
0,006633873004256
0,0327105309465003
0,0107299995741725
0,0113858990954935
-0,000451454115304341
0,0204245444966326
0,013162302138334
0,0154622407110894
0,0134101759711561
0,0121789717635201
0,0128139919387236
0,00443697089490295
0,0142822023155158
0,0128151197362444
0,0066645060203626
0,0105316616231346
0,0143469702978467
0,0154835072652965
0,0162635606551818
-0,00574177919224058
0,0305713601680022
0,00845195470998782
0,00254042907653106
0,0287904461162935
0,0157936048297245
0,0144265919196893
0,0140514868001498
-0,00365904876693771
0,0211055700745139
0,00849373789255477
0,00881655666731064
0,00896346332039941
0,0315552722497243
0,00436597447214553
0,0260746624350309
0,00998034819318624
0,0108302256414464
0,0130080874305017
0,00402509453948342
0,0360324293329074
-0,00383834812279388
0,0187522803483615
0,0204036872625932
0,00891767032006282
0,0142076221277556
0,0157193196461426
0,0168430185069768
0,0211752862006599
0,0127457124008321
0,0123112614770228
0,0151091712609349
0,00249666810273879
0,033211689762494
0,011317239101087
0,0184710827224625
0,0142355237463151
0,0159865913831918
0,00902821277047054
0,0244358160463633
0,00899860645266447
0,0278483787314251
0,0139201104492444
0,0102172836866187
0,0307824654450463
0,021299395593562
0,00815707591591172
0,0286677146454226
0,0107882606031885
0,0235458738744963
0,00860960651776517
0,0255776751080465
0,018366724715591
0,0215789811251858
0,00793295747630755
0,0223750778285688
0,01291524846862
0,0177221697918287
0,0142709395231556
0,0195317041214144
0,0153786959758628
0,0251029179863988
0,0194674448280639
0,0194209547417688
0,0170808771863224
0,0178006521380084
0,0230902777214806
0,0343752188501182
5,23811243366515E-05
0,02752942843305
0,0289588206780861
0,0252344372682249
0,0247105247850224
0,0243409505544089
0,0272179431987387
0,0268282915233999
0,0246122405470733
0,0246393028854327
0,0182898722826302
0,02359332198975
0,0218955679694217
0,0267479530378957
0,0292932831936365
0,0330661427270442
0,0445801992710286
0,020946404923424
0,0418337635355931
0,0262083666739447
0,02459636240109
0,0323149750957339
0,0285553031446822
0,0541922799626868
0,0272769723362818
0,0438358149936153
0,0263326563585361
0,0434116452956027
0,0307085646153649
0,0444639183253489
0,0375698328213473
0,0430337209393462
0,0365559594352614
0,0469000327193365
0,0437072386532131
0,046006682085161
0,0547359507084947
0,0571974385479899
0,0425853463008282
0,0608319652498465
0,0456606590046871
0,0580301166433787
0,0498204741127647
0,0551649286609182
0,0666302260230437
0,0597997936335437
0,0630592080422249
0,053040913521636
0,0753375612041573
0,0575079070653922
0,0620616277375589
0,0654121231494911
0,0658158860401888
0,0653873091926512
0,0668647806136699
0,0661729403843193
0,0779003161694266
0,0694120513877352
0,0762500417848013
0,0729403317833727
0,0836036706562686
0,0715117761604313
0,0775225239864503
0,0803840013469406
0,0930119142452487
0,0905940837197315
0,076724207275304
0,0904727746902053
0,0937867815099076
0,0956663356964096
0,0807469083357346
0,0997961567499648
0,0904745486295616
0,106310272298896
0,0975280168086164
0,105472153998742
0,103467712222257
0,113287610949733
0,107522182726586
0,0938550149103107
0,0969873364610611
0,120314005931142
0,112950743354297
0,113050061568096
0,109850502016463
0,117112402620029
0,112137707514452
0,1333146607311
0,108619810437816
0,138116110675637
0,109847320819637
0,127743263988036
0,128777911267845
0,142958372902686
0,139948018924572
0,147207805331651
0,137722877070731
0,148671147634258
0,143254982335779
0,15571123985343
0,146632100896526
0,150135191163559
0,149445395125621
0,158283487613396
0,168671597825777
0,151692682650565
0,162526392045547
0,167533231061056
0,149722314872618
0,174807570628757
0,156006530397299
0,192924472903014
0,177818513592832
0,181188432734308
0,177342284644111
0,187541457189218
0,184363702289413
0,194848088618811
0,188399480798651
0,215197891799777
0,196451354747312
0,200974342685146
0,200238458691271
0,214449156545848
0,204954089048389
0,214272170961955
0,212407847643808
0,223892648396364
0,218169298045153
0,234027416657278
0,240510096377304
0,239396077840592
0,225676053188614
0,262280218266335
0,231148212076927
0,24277373852864
0,2318466188349
0,248767227147481
0,243403528999639
0,269505795857606
0,252632094925797
0,266014019592243
0,255234648398957
0,271530699787917
0,269249555036207
0,278475179967675
0,273417845576499
0,299355159470557
0,283175402393791
0,291825008634264
0,283573791562347
0,295458283203143
0,298095008438114
0,305235324140888
0,294015183963948
0,314972068762305
0,299909845238164
0,313083489544022
0,322108138963882
0,315130194844466
0,311072728815292
0,331428858867371
0,322674746880562
0,333640103971876
0,330144682418846
0,346983492991533
0,35060900090801
0,353759710666195
0,348207791831516
0,350671727304316
0,347132253177344
0,374651355836188
0,342765117909524
0,377175003090063
0,3757310481474
0,3684193899463
0,36005808414869
0,381732182004874
0,37924056767554
0,396666062188952
0,377011670059979
0,398721975407701
0,411023809133118
0,421756342778368
0,399472260937616
0,411236453713829
0,397430617001458
0,413785162719077
0,411856309085417
0,41279482933202
0,423373829909124
0,442678592397942
0,439700793069444
0,437678331865707
0,432318382543462
0,456928116110487
0,448614703965336
0,450545637738581
0,43905025381979
0,445479502567203
0,460537222630116
0,48373594392315
0,470355061466354
0,48518031156619
0,48693675859955
0,490268785722314
0,476990301453532
0,489316329932733
0,483315574777435
0,512740688578319
0,506756706826477
0,503205840984303
0,502548241178284
0,512181933045542
0,520423293188369
0,536096163843902
0,533201422045735
0,529080464916397
0,515610041196584
0,558656999595856
0,536025588391566
0,524582410512191
0,551671598392574
0,576792016902862
0,552593293501322
0,537843827373496
0,534403734048281
0,55430905395201
0,577058430494355
0,57352420935941
0,538789734367941
0,598043552569708
0,5946776051533
0,609005361442687
0,593172399805239
0,584350056559676
0,584900115385281
0,591736757281199
0,587002331621102
0,607034696089676
0,614697155433396
0,621527527463711
0,624023348304212
0,652640911358639
0,64753392568365
0,642718414925379
0,642974016399929
0,638241843213083
0,624413579790766
0,637007005675442
0,647776174306267
0,664066728116929
0,66954737780142
0,652717045627999
0,655681010611899
0,667575159387483
0,66235002508569
0,6823865274409
0,683849149313665
0,697036817066074
0,658479412710007
0,661864922935423
0,686707826696389
0,694831780762063
0,688998537872674
0,716042053186893
0,695557448072952
0,711458225120109
0,721555275582781
0,705706882562947
0,679165784884368
0,701469990934973
0,722415828607303
0,69526553659828
0,711013075823667
0,747947609555532
0,766799399886014
0,754732982987002
0,726005589519075
0,766135233476017
0,74710375399713
0,745756582245225
0,753317757496784
0,761344195519518
0,760597034669366
0,75738459938961
0,789389205462873
0,804050808934946
0,75908022960181
0,797485671141911
0,783617752763367
0,765644513742327
0,736733433381557
0,786901412895071
0,847731570402347
0,793528330539154
0,773277160010847
0,791965990772808
0,770965005646901
0,78615981842253
0,80743962960783
0,791094465969017
0,828532312792843
0,863132179498686
0,833366227186401
0,829050638111102
0,797721935147505
0,801322578444892
0,819700031668885
0,794790647046348
0,786249003935069
0,815747820589204
0,837060239755117
0,850088801371036
0,809398068394573
0,836041308346349
0,878274123315108
0,842009598860891
0,871353898408999
0,838719921184372
0,849443666573153
0,899491990323971
0,859400434683784
0,864484119237978
0,858874336569923
0,871798337276552
0,900530135833134
0,879516790597278
0,874233370580352
0,894637302760233
0,890605094005037
0,885688983555981
0,869166905828457
0,898476209579213
0,87703058794289
0,874845202352115
0,879764348436563
0,877148026501531
0,918377057461568
0,887059369616072
0,885550696853179
0,856381246641038
0,85009299598649
0,849596176927783
0,859308713845104
0,91976994347825
0,895163303400338
0,903642829525925
0,927061171369934
0,899859734114266
0,881724191305984
0,876163177379996
0,922393933474552
0,923781230235735
0,925730676920998
0,917571546862986
0,89092053158621
0,902008816626219
0,885668434123707
0,948809570606232
0,958302387056346
0,950430676842815
0,948991987427861
0,894540560344302
0,925556002345844
0,895797149524157
0,891291668508797
0,909131446695957
0,93731375814519
0,938538721222572
0,868939520983877
0,937141099457052
0,959593903199533
0,898621119891617
0,954530540071385
0,921386081757452
0,921371090792369
0,930049204380333
0,914253506288876
0,929084771114772
0,921093378705976
0,91257238309445
0,920785827488381
0,922872673157089
0,952334671978649
0,924400954336063
0,918139507999639
0,958762478319374
0,945328927895551
0,924467453131937
0,935219450754665
0,894804404470051
0,906951169335019
0,945114371012542
0,939807956929979
0,920352106928585
0,94290999786294
0,913015359030497
0,907257598886298
0,911911656673309
0,938905582061596
0,922104080126601
0,926339283233443
0,93621898043041
0,934613365923361
0,924091933831145
0,954567990761389
0,880263877913202
0,916612526144214
0,91735773446215
0,916966796573662
0,918729870782655
0,900504254096675
0,874529130069066
0,902405997183651
0,923496118483487
0,935331894850752
0,945330139881895
0,904712415840318
0,878022597936058
0,926865488100978
0,929735801007595
0,917933332231092
0,912383487868191
0,922499905133855
0,922434534483188
0,919375582183242
0,906392965190158
0,922259975427638
0,905110157418133
0,884454624728918
0,929893973444661
0,929355980558356
0,891552676411114
0,927778636252045
0,901742635131207
0,904221338882285
0,919716639156555
0,884220765602815
0,887304519172783
0,90372634587848
0,898125537447919
0,912656054498811
0,889238727602502
0,876219330103213
0,895721305587064
0,901092476014678
0,908944101621853
0,903444653187398
0,886320587753667
0,880093847588185
0,917408014250828
0,911697020827016
0,873419182484473
0,910172450338027
0,87278175899753
0,864513165110456
0,851821817168935
0,889883041956559
0,873656535509948
0,879666020003128
0,876217206295572
0,886864954548208
0,865402795936995
0,8689422245775
0,86380505304925
0,870435262408041
0,854265439210697
0,878000563029807
0,887876349244244
0,865515289638572
0,855652238285714
0,874007309944913
0,836694443997367
0,84257189213358
0,827871223804487
0,848614210837914
0,853309444398374
0,838333475274732
0,828250316213578
0,834615341617522
0,847307468670565
0,834451601971784
0,827337495245934
0,8441062265017
0,849894179978995
0,820063774992335
0,787774940796994
0,819852401621425
0,818211816594038
0,834469928315359
0,852223064074339
0,826574703057533
0,830700489692239
0,84218270387942
0,830584888939571
0,813033929310023
0,802526629709171
0,81642761714947
0,790378279655338
0,80323979754459
0,785919179142341
0,784886215737121
0,783220821880731
0,807540512182686
0,781317222941679
0,77244521335158
0,783086512299721
0,775155435146495
0,771042888393488
0,814505152011157
0,777516973336827
0,770946912709365
0,775069603788533
0,785716327518901
0,743973741805289
0,755656862547217
0,759080712878235
0,766578777595188
0,76654604599078
0,750802704659672
0,766166182129596
0,764034710830831
0,723171770023494
0,751393390982052
0,740743570663594
0,738818434405243
0,732630183121023
0,752931712683916
0,730729237706699
0,720893213782103
0,708452700070252
0,713748947671301
0,721255188394117
0,721440072324712
0,723781327104502
0,715723266298084
0,705080007772917
0,702231011051328
0,718186861477531
0,713589769264282
0,693243958307182
0,697981923242821
0,684682269572169
0,693996260323571
0,691205127366554
0,686267966852045
0,674431004075859
0,661576963656335
0,666405367996186
0,670611261074835
0,646324051401589
0,641572883001092
0,648562157945211
0,661392125438025
0,654046323715773
0,657130145740005
0,652597913591516
0,656521901984633
0,636255749352608
0,648010366129633
0,633755333713729
0,647673012086478
0,640462683773248
0,615293479194356
0,618271476592926
0,625232237861404
0,614544282657152
0,634467729973226
0,596518665297503
0,61995347479122
0,610818569794925
0,613986541044722
0,608864980312476
0,591975148675329
0,593454972203645
0,59218631670674
0,575630904550398
0,589790539497497
0,588003647947301
0,576908980933242
0,569252412405125
0,573909359466825
0,564579847313254
0,58607623459712
0,562005999753501
0,559829963427703
0,561879469886998
0,55146436711752
0,563227016933197
0,553074492854958
0,548378931682056
0,543703932012242
0,552505059035449
0,547675963938867
0,542286915298925
0,538797505404787
0,541217166588365
0,534726407572993
0,520925070766264
0,519171877259561
0,517666456417527
0,520821885025936
0,520502037993852
0,516875799181131
0,503025882505641
0,515942606698916
0,504475752345684
0,514241393560841
0,506844178044144
0,505051824279877
0,503925975030845
0,496589906329117
0,49614899360616
0,498689895216815
0,488581842682662
0,488154036784801
0,487175229201207
0,48847576059737
0,48075642120645
0,482971199149273
0,472771947298908
0,47785329858375
0,468913750612692
0,464278726930147
0,461049289310158
0,468899416926576
0,452407628230059
0,44929290385317
0,44988173543001
0,459070231462411
0,451579216400192
0,442450228976411
0,445835612307417
0,445395523820192
0,446161296399283
0,437373611230745
0,442394238698566
0,445439984449632
0,424079566672226
0,432302922653378
0,431934133816211
0,430061371864593
0,424559394931838
0,429548636623866
0,416677310392257
0,421769550406842
0,414137899093812
0,412427813252652
0,413876214961579
0,412876263183568
0,405390062669715
0,405921220816704
0,400123511222885
0,407936901855528
0,399675995721529
0,396351904683145
0,401258290801979
0,392515583796486
0,398972828370713
0,392842637770171
0,389012312623122
0,395356913047998
0,383844369691841
0,387480244534094
0,383448568452307
0,381324699881541
0,371323603063704
0,377822552215732
0,376799377891419
0,372442093048172
0,367660603832446
0,375580943652514
0,365153811557438
0,366535958421557
0,361881317318945
0,360359475213266
0,362836426486236
0,355832615599372
0,355831053600597
0,354306788386231
0,348058872386498
0,357462605421365
0,351559884720438
0,350619376745372
0,348827100845562
0,345274942189437
0,342300611649048
0,340182090296645
0,332900372010608
0,338918418442028
0,338012367426913
0,327539052816345
0,326499986447069
0,330061708189607
0,326912167866998
0,329223080117795
0,328140861521778
0,32436215981276
0,323063998061568
0,323933713000163
0,314574603027517
0,3124607365764
0,314692802115212
0,315724233123553
0,316078567827937
0,308465354066126
0,303006638466713
0,306597749425929
0,309000864394366
0,308918570891038
0,308572234856455
0,307073884266629
0,305357194800637
0,303409935937386
0,292234663451064
0,298241044255102
0,289755627995819
0,289184817633634
0,291748468636292
0,292743064492595
0,288022054681154
0,283823444481109
0,286471881649803
0,28416382786124
0,281382227686229
0,283865973472321
0,284647067990236
0,284700098419519
0,277835974749753
0,284474358457107
0,271003210010116
0,276138494954397
0,276021924299828
0,277804124283502
0,28222662253931
0,275584192134421
0,270551870959894
0,273402038128142
0,264102615933097
0,268806885407286
0,269324666668931
0,26614022367345
0,269446233917417
0,271358225303659
0,270766437847314
0,267275259182242
0,265322224547334
0,26602210210856
0,274162410601762
0,266137364102328
0,272909970957998
0,270519935769363
0,271159977308303
0,274657503282289
0,260545126655669
0,265371702039851
0,26565864238371
0,270978714078707
0,269619608926018
0,274002736475346
0,269268449113041
0,272000982919876
0,276328444807978
0,273884737867754
0,26990903611046
0,277141059306825
0,279885191755664
0,2808973899095
0,27909583700663
0,290010102085251
0,279239375481226
0,28365894021581
0,288751107995597
0,288434166882777
0,290880750859752
0,291085871871083
0,287153082593269
0,288605137209392
0,290699147608748
0,297184710179018
0,29242567217557
0,299446336129658
0,302995165396093
0,295439430115514
0,297050830426289
0,29701265813663
0,30099381254032
0,310094227051275
0,309304048829628
0,303204869862791
0,303713207005818
0,307909913625699
0,311974098496365
0,312174645508355
0,315000251886875
0,317463318550256
0,323053966619407
0,330394072016613
0,322301630710904
0,32061084280516
0,335192507214912
0,330558164180368
0,335969364223327
0,336456868530479
0,345500240052167
0,333757419318251
0,335907247893556
0,347717493794269
0,347431476445749
0,351116324222938
0,34749608228087
0,354524836077495
0,352903111726781
0,35488869273093
0,349516498642741
0,354995970247466
0,356459845736788
0,356780579112631
0,352479913819069
0,351559022675058
0,366664835105963
0,364501691157637
0,35667143061616
0,355036881100219
0,357675205700924
0,350469429474574
0,349736747695185
0,353572521218275
0,354219073609272
0,357664732241884
0,357558576346227
0,362073876072201
0,354319762748132
0,355083600063806
0,358892351814289
0,356622492185419
0,354141328228353
0,352628317467017
0,348248870881932
0,355076529840269
0,347485616661106
0,355754944054322
0,348184775530078
0,355394003525664
0,356136947676386
0,361064224626989
0,353345605417026
0,343863380587595
0,352518445509622
0,350903421415541
0,352877229016025
0,353168533330175
0,351968351899196
0,35496293379634
0,354672110083033
0,360204602328573
0,354032306669665
0,35307399695254
0,353351889672512
0,355289495983994
0,354617250014249
0,352590759939745
0,358076626672951
0,363534096401991
0,349904208128924
0,345408422133041
0,348269822231253
0,349578912877658
0,348548724270741
0,351422903669711
0,346464951702113
0,352306788881263
0,346974338805512
0,338628461545985
0,339055590491037
0,346965921259554
0,344953704495107
0,334124024065794
0,339068790951169
0,342580648912245
0,333388530266785
0,332954652693747
0,329317934794858
0,331497075889896
0,319989807980095
0,324017618400403
0,324971873265141
0,319631391107848
0,311521699300378
0,322275374412474
0,309648882710632
0,310385561934425
0,304965699710824
0,306041286399407
0,299674414190362
0,302903565922093
0,298174551325239
0,296937773393187
0,294097722972228
0,288410836812777
0,285524466850209
0,285844542179428
0,285506730666678
0,284335180025497
0,282336406139098
0,279058006708383
0,278740067620138
0,273409210733156
0,271082062892576
0,273726643770301
0,263778520399297
0,270614531673138
0,26380537853191
0,26259614353166
0,258795651589358
0,266984466006836
0,257368387627927
0,262791841441565
0,252245866591424
0,251810304697413
0,257503382877365
0,257649153864827
0,25767047636659
0,250336752363512
0,250798418384754
0,244906929949468
0,2415214156806
0,244348109132806
0,238871035233722
0,239685792707876
0,237979226944019
0,243151243960007
0,233191845546158
0,237848704420792
0,237662668909943
0,237007318499315
0,234858045066868
0,232506447624621
0,231185889579157
0,22890504805728
0,224704385153404
0,227170043080843
0,226223298814126
0,231968201635915
0,218929730711396
0,226909451384971
0,222508234428542
0,223103642890358
0,224566045355434
0,218881435456696
0,216438163921674
0,219768963756698
0,215959932442551
0,21791558516138
0,21757894576393
0,219652963767679
0,218099054544519
0,216614441389179
0,215007551545826
0,212226042370578
0,209985195689834
0,213305983443506
0,207831876993458
0,211046533511181
0,208431638869718
0,211998648212531
0,206861586118919
0,208865187189995
0,204205252487528
0,203909688082466
0,207295743754538
0,203533355725944
0,20565826629067
0,198859085268101
0,203811081804802
0,202422577988193
0,19684584742491
0,197826840602735
0,195497463278447
0,197286027271059
0,201082290960829
0,203388899772713
0,193131529271826
0,197138947450573
0,196184942448855
0,194936934627268
0,193754109899019
0,194864565559796
0,191844822083894
0,19432367939859
0,192272911173611
0,194103393237705
0,193793912012149
0,193148906118832
0,188375756302509
0,19426737171628
0,192127266562595
0,189218758111659
0,185628482079755
0,189328168002453
0,184573179460927
0,190631354020414
0,185931166934073
0,184714104828879
0,187639488030747
0,18402527436884
0,180371124331237
0,187746121586689
0,182964043492729
0,185609258695988
0,183457865463295
0,182494160680352
0,177802631918804
0,181263468711675
0,182591849926722
0,183523101555712
0,178014961335564
0,180794168319763
0,184204704033131
0,181146648569716
0,184283297823086
0,181911593915463
0,181700145698458
0,176866156392224
0,180402776703937
0,180930901407916
0,174029858097736
0,178203949972597
0,17595363164811
0,182663581369457
0,180438315857394
0,178606806249417
0,173584301919765
0,180028741692976
0,173102127465627
0,180454441739199
0,173777426793958
0,178181789668517
0,177866196444641
0,175290344379798
0,173602715203096
0,175670911534779
0,170610635621306
0,171250396365573
0,174649392047934
0,172829036567668
0,169796861952569
0,173725860551201
0,175398009495717
0,169054965017806
0,170397041699869
0,17526243123928
0,171822594149326
0,169925121991054
0,168816534804697
0,170307519586325
0,167455768628541
0,168187332190724
0,164897630139142
0,168697164557875
0,16355134925682
0,164271119768048
0,164208116872973
0,165370781565284
0,164854562931395
0,165146946499162
0,163191020339216
0,16415116063353
0,162767994736644
0,16165284598502
0,163785941310337
0,165053530008883
0,16136158845326
0,168870043221262
0,157525232141907
0,159450804607648
0,156516357029388
0,165458910259616
0,163443532074621
0,159869660581289
0,157814952510685
0,159129850859966
0,156779132921609
0,158638440657409
0,156140661909761
0,155676176903896
0,153193792742079
0,151493443078618
0,154248407618643
0,15823692812364
0,154476224251961
0,151829783593537
0,151054127660719
0,150739227129368
0,148198186359139
0,150839922850864
0,149273054070536
0,15172681803271
0,148756543823425
0,151345565890016
0,151927419460006
0,148173576453202
0,14168694700747
0,151426408088098
0,147478815080525
0,144615613233366
0,141448839255584
0,146516361412413
0,139629923894198
0,143782418428455
0,141956032463596
0,13983224563343
0,14089999143645
0,143488740162492
0,141023051921322
0,141801907363413
0,137349436890376
0,140065405209618
0,138450568371836
0,139837156654659
0,139739478596617
0,137587153027649
0,136965290348765
0,134131897793835
0,130158042208667
0,134174568029745
0,132814090485709
0,129277056440899
0,135232911010287
0,132380196100655
0,132275414252501
0,132154918492123
0,131065719912437
0,130616056673628
0,131445844114291
0,13233368783542
0,128111579934598
0,1315789103721
0,127166684930281
0,125018785531535
0,12704727541195
0,126864171798609
0,126047549203023
0,124990529561126
0,122996000370158
0,127140838007509
0,122597000192555
0,123138806662816
0,120877211456041
0,125616606470011
0,122366357239946
0,121981440925797
0,120684336101644
0,123433179609494
0,118603528366048
0,12368166927243
0,119335730344419
0,12115707071759
0,121637591211455
0,11811851171658
0,116037479347261
0,119088271270432
0,116746275436219
0,118816452467424
0,113542887185379
0,119624866359158
0,117504045370509
0,118258586169544
0,115801419573097
0,115153463280481
0,113085810766657
0,116715989947474
0,112025824580554
0,1129243989126
0,114557607607007
0,109986304554991
0,112527150494274
0,112425640784347
0,110920873121504
0,111612066232031
0,109601206711007
0,11172773799862
0,110041527489195
0,112918467042505
0,110259528127352
0,108053597356413
0,107681410899518
0,112087840781111
0,104552143001015
0,112423912756892
0,105169366688829
0,107603088373376
0,106595564219764
0,107265320416057
0,1063612034582
0,107853963652906
0,105625153032135
0,105334925333014
0,106541919706844
0,106435606897123
0,106218938128071
0,104922236132196
0,107112687528447
0,106789389136165
0,104468276340439
0,104099600082121
0,101041394901804
0,10237432378536
0,102859908228706
0,105641763903914
0,102980474818204
0,102206283278393
0,104929465034317
0,102176146479992
0,098542491200806
0,102501411150282
0,100575571671224
0,100279195035294
0,0997394980276326
0,10093570229357
0,0971916716941073
0,103210446307889
0,101159905352962
0,099835452830519
0,0964569648478422
0,0997116227258848
0,0986460113338379
0,0966237062124765
0,0976418315485091
0,0983378544488746
0,100041322835134
0,0980547489505886
0,0978602439015255
0,0982201554608033
0,0989138458525764
0,0964089565300857
0,0950855327175083
0,0974345095860645
0,095454918832555
0,0984635704772013
0,0953459919322189
0,0972784626012324
0,096511221122169
0,0968562274873449
0,0962120097065221
0,0947564244164448
0,0947214196800541
0,0964549813418819
0,0969710712670818
0,0948523762552373
0,0945915215981324
0,0951076975559416
0,0932511568739069
0,0944960285947065
0,0931692930246815
0,0926783614629505
0,0953525071573198
0,0932244602086691
0,0903222174715885
0,0906814924759738
0,0916887590648581
0,0923603670039317
0,0916412105458183
0,0921908230037242
0,0927758344615145
0,0921478808871882
0,089856036776683
0,0903835603202402
0,0901581870371476
0,0887536714092014
0,0881185370866174
0,0909362690106656
0,0902034520548846
0,0916349214736836
0,0913889283177955
0,089895671774895
0,0892546767086422
0,0892725259416705
0,0906051971721732
0,0881389474321702
0,0887213954814967
0,0885783016055729
0,0842766515636164
0,0884070297750306
0,0839302477966459
0,0871829265984142
0,088380244363216
0,087422742992803
0,0884094436863746
0,087773236394897
0,0833307633171421
0,0846265842146795
0,0857868135714642
0,0883610763843164
0,0850156692460201
0,081838787173742
0,0785874391770865
0,0805050032263938
0,0830684936524428
0,0815490823403949
0,080186778803656
0,0838965899597004
0,0821286513461434
0,0793382776667786
0,0846212023461147
0,0821942718565086
0,081421856881776
0,0791497099306394
0,0802724466535933
0,0800798550889987
0,0794328168922891
0,0792786077943275
0,0771687702138492
0,0801407938721948
0,0786796856807894
0,077481536381146
0,0767378261963015
0,0753053148300587
0,0765235557710757
0,076259314988737
0,0781080605923703
0,0754000652511891
0,0726265849989826
0,077998036483099
0,0764180841849726
0,0726174312010305
0,076802854018749
0,0790134574144411
0,0736773064291586
0,0720596267969873
0,0730454364916869
0,0708600046872206
0,0726466975910833
0,0726195646836767
0,0718467774945561
0,0738400567382895
0,0716941887133229
0,0726054023748904
0,06983158116509
0,068423910388343
0,073249977509551
0,0704224743824949
0,071472941504088
0,069508047786125
0,069829910673461
0,0713762572225666
0,0700890076675404
0,0691329145529845
0,0686024527424358
0,0663037537863185
0,067345840303178
0,0666708578771038
0,0687349877641859
0,0692634137815368
0,0681607669685086
0,0656328434606844
0,0681589414233941
0,0650763406950344
0,0632938930965669
0,0640788491369997
0,065603526531665
0,0633085372866833
0,0656013574497149
0,065372817337571
0,0636984624352458
0,0628460581527524
0,0657681700551889
0,0628433206871462
0,0622613330912558
0,0636929665567759
0,063099890081952
0,0603299215483475
0,0621860803980187
0,0643633353205945
0,06189296820481
0,0625272843767296
0,0631792986420115
0,0600507288460645
0,0618416357325132
0,0604646352496816
0,0593797117477183
0,0560152464492073
0,0590303346792681
0,0596725428152913
0,0601045372799101
0,0605688141676837
0,0617095623773858
0,0600559745750903
0,0587476055857882
0,0587585804497328
0,0584399650717847
0,05908348722824
0,058264486595433
0,0578327909700733
0,0572597462228974
0,0591206844373178
0,0589805907125563
0,0571291841893241
0,0606827305444444
0,0591065014972074
0,0590575689763693
0,0544311076971108
0,0557534311233163
0,056310782717772
0,0582848184511913
0,0554939015369859
0,0561699087031041
0,0555855817430508
0,0596364661452407
0,056622546495913
0,0585289713956705
0,0558738497986445
0,0595320534741963
0,0551744720887292
0,0567419373195372
0,055623741009244
0,0525025616706264
0,0546404353947715
0,0559380068153831
0,0536562507100597
0,0581124031121868
0,0516493966158844
0,048886611266992
0,0541191346256567
0,0579635079662044
0,052147661989084
0,0563598536411581
0,0492109353202759
0,0522095886206075
0,0558525227895892
0,0561312295666904
0,0519176569895217
0,0503421914849476
0,0496446096338901
0,0596364312989508
0,0514100376083474
0,0575628423216019
0,0519554359839673
0,0583918096296981
0,0467278619938688
0,0547448788085012
0,0457005556929531
0,0536842163608613
0,048287287148729
0,0573902103932443
0,0435985489858413
0,0599065923774394
0,0460344468464399
0,0574144061085234
0,049836327078758
0,0617027596444329
0,045431597752771
0,059924995548758
0,0446241530297288
0,0584806313773807
0,0415634827038713
0,0574382511616929
0,041890883831146
0,0629051616935955
0,0450631322652102
0,0586476278885751
0,0436478443818407
0,0579386415686232
0,0481560473442397
0,053275917474948
0,0445601471764511
0,0496652972598173
0,0485940444012064
0,0496202651857804
0,0530912179918993
0,0434753332734242
0,0585288664006284
0,0407090844499252
0,0602170608049454
0,0397302438277922
0,0636416540897266
0,0363177622323866
0,0603958677864301
0,0377287046760713
0,0600119319616749
0,041688607614148
0,0553208297569677
0,0449432285267789
0,0486253972177319
0,0469876625265004
0,0486950017557207
0,0474403562576704
0,0501182349825946
0,0464426038118723
0,0506687004539749
0,0472460081904891
0,0513805227338181
0,0429048295544386
0,0496986135709621
0,044758927642172
0,0493260100590725
0,0460968535580129
0,0498042348977217
0,0451569155386116
0,0479215797649261
0,044507633288683
0,04694863098234
0,045894063631143
0,0492891010650303
0,0462105402541778
0,0510785628134447
0,0470832678393736
0,0502771019067973
0,0454715114012422
0,0482299223599233
0,0460487481576209
0,0477112436172963
0,0463586695994067
0,0484664021721665
0,0445449760723639
0,0487593924674756
0,0442199254238216
0,0499242492006912
0,0451039714964983
0,0494314673959048
0,0471146201566805
0,0475088575829307
0,0449938713805741
0,0478343437379065
0,0460400815332656
0,0479600422874392
0,0460778744847212
0,0478762776675658
0,0466398775210884
0,0492188914941654
0,0447580765235587
0,048594452634238
0,0451945024593072
0,0469069087272793
0,0469209520747631
0,0483431981860181
0,0450772234428206
0,0466074827911583
0,0448500727539722
0,0484018739848536
0,0439464082137514
0,0484274807979551
0,0439891583364713
0,0468740654918757
0,0460149195475188
0,0484160741652464
0,0453160231423285
0,0469597220175913
0,0441673252995746
0,0460741662018669
0,045119429909259
0,0480299965305912
0,0468585441992413
0,0487957256382939
0,046012888386554
0,0482672976959748
0,0470488506530737
0,0450880353687912
0,0454361763222822
0,0488234599989778
0,0461884992940017
0,0468878353963814
0,0454370604048834
0,0482168273300219
0,0467193674980105
0,0483082280410516
0,0438776617403247
0,0474805315625642
0,0464042681839236
0,0472644431961973
0,0472461632177
0,0481829564711653
0,0453740047356025
0,0470155805996792
0,0455133486414945
0,0451115328637358
0,0444982123130842
0,0486354411777385
0,0472015749675961
0,0480472985921075
0,046834363984532
0,0497917777082079
0,0460041060020369
0,0472662446271185
0,0473514612685371
0,0477028836500706
0,0475532841913534
0,0512159922740231
0,0474689899414324
0,0497434589688592
0,0479400007619215
0,0489971741343662
0,0484990109127972
0,0486266818512116
0,0471642223186403
0,0486461231349893
0,0463326643101885
0,0493723095750707
0,0497374037674432
0,0490896406907857
0,0466977135753166
0,0509695491265798
0,0499220372440446
0,0498334410177451
0,048762139295656
0,0480505437686017
0,0485679661055395
0,0499275524611346
0,0482493873113163
0,0495124106278909
0,0463867355089454
0,048713247624768
0,0490708533871112
0,0501304579663282
0,0494734234329215
0,0494264809206561
0,047631592486456
0,050129210950705
0,0475267038604785
0,048285386686137
0,0489059609642226
0,0508542538678257
0,0464038906640011
0,0487123806852463
0,0488016270590232
0,051213292360443
0,0502262748302626
0,0498833491022647
0,0482693172041194
0,0504100985169894
0,0485994527519156
0,0510526174134059
0,0503540000988042
0,0497454498589363
0,049564093102613
0,0503534581645458
0,0492555850960141
0,0524100341108924
0,0513767334799831
0,0515162574931158
0,0498880984268171
0,0520598140677295
0,0516956052212765
0,0525974730397815
0,0513522717152737
0,0510627199139909
0,0488552592915686
0,0512863863069591
0,0500627983448153
0,0522268162048599
0,0507992697948839
0,05128630762845
0,0523043406468192
0,0526708938531402
0,0502727494647125
0,0512577190927783
0,0505564653154486
0,0501844972531401
0,0503989050539992
0,0527002312964629
0,0494279963530008
0,0500243433345098
0,0488005704970439
0,0483664237556081
0,0494870662979846
0,0506261392191198
0,0490022590215701
0,0498637768546406
0,0494708475752941
0,0524522597249822
0,0496193614672013
0,0484816988199162
0,0485317230735036
0,0510505051943154
0,0487566651434412
0,0497823968154524
0,0501650328584132
0,0502167410240701
0,0489093812538025
0,0496861749110702
0,0466515075584845
0,046971644613431
0,0473526591581283
0,0487925704766655
0,0469430949935282
0,0489454698676949
0,0481643134069442
0,0505100100496883
0,0487444776467549
0,0479134247557599
0,0472075558535543
0,048952486771327
0,0487939896377167
0,0484272460722276
0,0463110633875016
0,0482985692011633
0,0468172632709131
0,0467718030931625
0,0465632402462085
0,0487861000293303
0,0474657925692067
0,0481021033537278
0,0460925815899814
0,0475327818729795
0,046753758421883
0,0469007669681965
0,0459479232959143
0,0484008178141548
0,0474826172698801
0,0455195921835933
0,0461254388830024
0,0480007492837589
0,0467345028071068
0,0457470814926377
0,0465703416215627
0,0488649852759765
0,0457197189108409
0,0461721543239167
0,0465707187404814
0,0466321344154335
0,0444058200458976
0,0460458867516087
0,0454078781749351
0,0458015383159667
0,0440120730639204
0,046997367024845
0,0457263616744127
0,0461478075862209
0,0447772622833728
0,0456385543125419
0,0452630451175726
0,0448445253398326
0,0457636393243025
0,0459041297391346
0,0449688561633319
0,0445806242569223
0,0436123972165465
0,0453132359648948
0,0442122014635729
0,0463972161986105
0,0443426658953906
0,0454948588314594
0,0462061593261276
0,0466994040947628
0,0455487981820624
0,0450772409585347
0,0443679632951584
0,0445239466655125
0,0429190950371509
0,0448642257284356
0,0450684336031495
0,0446087510712359
0,0428699486290618
0,045915092192697
0,0441710909574123
0,0466214785137822
0,0432071849000947
0,0427679481624793
0,0431280904056088
0,0446865325120935
0,043869659051671
0,0438247717984502
0,0430492807577314
0,0449882503834215
0,042495679144121
0,044386314359098
0,0427043575853465
0,0426779075608789
0,0409642837692547
0,0437938982479027
0,0431943284014323
0,0414118050201105
0,0421040324223571
0,0418023755687909
0,0412365759205069
0,0434939866912649
0,040723409878348
0,0413664403599926
0,0400441139589616
0,0407391051481695
0,0405539933867243
0,0416553464969493
0,0416629052940201
0,0434123406490397
0,0427898369233505
0,0414997088941228
0,0393016170481961
0,0426995784621712
0,0428669453965598
0,0408890990796338
0,0375750828140028
0,0411175637442668
0,0391916666699046
0,0387242988397775
0,0381938512978454
0,0383933507395595
0,0399289647691706
0,0379529735426541
0,0370810077748097
0,038542001461485
0,0390822665472172
0,039369768457283
0,0383155298934885
0,0398635264423266
0,0381309818902625
0,0374883193686027
0,0403010551639075
0,0373725092523846
0,0373414614458343
0,0377194580105333
0,037389338607479
0,0396210982837354
0,038468290943512
0,0363284825548934
0,0359690108704083
0,0362882020281692
0,0350854173242327
0,0346071532921076
0,0372845491578579
0,0366096464882787
0,035690804600565
0,0361728536710373
0,0386509893667763
0,0371676712545308
0,0376374934527476
0,0369202101153965
0,0346123666325795
0,0356310269325514
0,0357901359247188
0,0363919693536083
0,0354035248232282
0,035660200451216
0,0353707812407036
0,0354402810546837
0,0345714662637184
0,0358759668894849
0,033674641858754
0,0339029437638124
0,0342443129763438
0,0362390726437123
0,0356677552134129
0,0335393121608083
0,034236212022694
0,0374221346707073
0,0354357468495927
0,0344862951572508
0,0337910020811008
0,0330799286176562
0,0322741583300964
0,0359108067788777
0,0330402082282554
0,0351141155454698
0,0332940329405039
0,0350529799851884
0,033497389003307
0,0347121026312025
0,034843211074081
0,0364197523291563
0,0334632314343665
0,0341823956700481
0,0332638176994823
0,0322618899425398
0,0316538281675457
0,0331479508584888
0,0328908971729033
0,0317842520465642
0,0312036984870128
0,0325145558666008
0,0301395012277332
0,0333558378553333
0,0335399103247749
0,0336750071556849
0,0299654826341942
0,0349628998872401
0,0308462842278538
0,0315496871867778
0,0341775780812394
0,0345380099036302
0,0329101738585167
0,0317390673800664
0,0317032876031471
0,0324068455513197
0,0322605203896532
0,0303839652558007
0,0318739102586175
0,0312532005107922
0,0321657148328701
0,0298786494893627
0,0311020489664194
0,0335524878958008
0,0329817643214387
0,0312944202245394
0,0329545217246562
0,0312351430661049
0,0308820533424165
0,0301621233017313
0,0325134114114559
0,0320285911851568
0,030254765357523
0,0324976460759008
0,0335712962001175
0,0314132119316861
0,0346772511745531
0,0276874313783938
0,0338547964706801
0,0310881525222907
0,0329892769263585
0,0271956425861625
0,0320167349958724
0,032521246573879
0,0315061564372828
0,0333005793930912
0,0328291895551455
0,0331524959790909
0,0324976759813523
0,0309234282128274
0,0312490318287662
0,0321296727868528
0,0283937010500757
0,0294417940347741
0,0301620187090499
0,0295341667842035
0,030235087358106
0,0311945421813918
0,0333285619343464
0,0287096124436519
0,0313228157838163
0,0308184780687472
0,0311070752742723
0,0298042760665931
0,0313941540495959
0,0326214989587151
0,0306553743212171
0,0323297215408439
0,0294799946619768
0,0334521143264608
0,0305106045097239
0,0317766958590582
0,0298685296928838
0,0312131917779026
0,0290383666836155
0,0311025792649234
0,0328654347018535
0,0314543975687043
0,0295704934226924
0,0314263266546738
0,0300251687652706
0,0320867132158304
0,0299122615256455
0,0300274459064317
0,0295756719989253
0,0288151743652996
0,0311710027892146
0,0297907926067284
0,0320947591517095
0,0309972063486572
0,0326097484944518
0,0314737455520982
0,0309243428484239
0,0291717756281981
0,0294595792043241
0,0314007429966967
0,0316109865577672
0,0303642205962077
0,0295938973852637
0,0314793703034848
0,0293161353938404
0,0306260732703339
0,0288106663910318
0,0321645156010941
0,0281686960945454
0,0307242944578336
0,0302604991439625
0,0319379425424076
0,0299697738500574
0,0314384651681977
0,0284478331466636
0,0348169591925412
0,0246548916488527
0,0366823406855902
0,024656739798305
0,0415802990147454
0,0305301391287
0,0323666451498202
0,0332690074995175
0,0321959645226661
0,0299548909014141
0,030480870717798
0,0314269728162609
0,0303123989439613
0,0330907681300924
0,0347187646958242
0,0308224034248755
0,032014044161919
0,0308144384297195
0,0327592147092863
0,0344253349863482
0,0362632092720908
0,0319272672807132
0,0334397557598628
0,0317325152527118
0,0337025224180122
0,0353423804263662
0,0295611310617121
0,033624849404235
0,0305379741016806
0,0339597447644924
0,030507516711453
0,0335608004216892
0,0333374498484087
0,0346619891752388
0,0328231342720965
0,0326184178507623
0,0337322735189549
0,031803419512223
0,0350575698331764
0,0319993176248787
0,0366185181786023
0,0343893065374529
0,0316092344380378
0,0354525653597784
0,0340816622217579
0,0342619319333572
0,0318649329494069
0,0338256507788681
0,0334278199753956
0,0356873624240713
0,0346219536397589
0,0334162737436857
0,0358087764926286
0,0366891076775903
0,0336165326120277
0,0388996163304903
0,0312374043191973
0,0397337767682289
0,0322307200546035
0,0360705560424559
0,0397439653831166
0,0339234460217528
0,0404078691015816
0,0316462240738779
0,0391086924156319
0,0313821840426261
0,0415561594989279
0,0328027626921556
0,0431114264963017
0,0332353462450612
0,0431260946740548
0,0321805597508656
0,0416564865066296
0,0340385112396427
0,0380605574197663
0,037196226747087
0,0398928200312498
0,035839830386571
0,0393082351807054
0,0377750443196031
0,0345531592387166
0,046439872834891
0,039453708609067
0,0421021375510532
0,0404090734537159
0,0338255551723721
0,0452496958463459
0,0333789069637872
0,044520753728529
0,0390808371168397
0,0417532195482856
0,0388899002638596
0,0436725287717331
0,0452175324242512
0,0409173899785794
0,0397839387533743
0,0444249957836721
0,0388638973656361
0,043575882306841
0,0366521013441141
0,0463976927207243
0,0374455659800779
0,0462407467966031
0,0351628959278036
0,0525600509501357
0,0390331316120667
0,0481397485245041
0,0451476318308847
0,0454459570327209
0,0455948845648881
0,0478294737788751
0,0477203121274943
0,04601263091922
0,0479922293597222
0,0486884803640562
0,0499680078430884
0,0521457405820858
0,0555606706100927
0,0511824807580683
0,0538527083932516
0,049954162095396
0,0523014864448167
0,0607985668244285
0,0573771266301346
0,0561907076089695
0,0639189825428634
0,0592454253592624
0,0626016677905716
0,0594428219098161
0,0647830455760758
0,0625472966788399
0,0631255981865492
0,0650051242242291
0,0635674915101551
0,0701976382165449
0,0657120637013355
0,0687721704878165
0,0680304659312551
0,0729495103139562
0,0777881892505489
0,0686450416194347
0,0774407587817538
0,0678926010447986
0,0816598468879366
0,0742720961295904
0,0769030725517042
0,0789995726924008
0,0827849674114292
0,0836781062771916
0,0809786314942324
0,0850699233704775
0,0816185610914735
0,0919686612594554
0,0973591987917318
0,0944122277483131
0,100100848056108
0,0917302102347896
0,123219509107242
0,0681372951156031
0,121288136787942
0,0996084252327979
0,118509149647646
0,111239108862295
0,12616410046762
0,124415188147595
0,122288552946292
0,127150023569976
0,136594569464608
0,136999897147866
0,144052557687699
0,146103102725659
0,153803904807974
0,156668685590758
0,165983750361164
0,156923434698801
0,183024997147626
0,178442986627512
0,185117101973214
0,184616747157906
0,189785924347054
0,195598679061912
0,205877889451219
0,202568808684848
0,210904998383929
0,221689035184207
0,224014199177681
0,233746802903981
0,225559181891086
0,240216591500461
0,238840219703943
0,257056234507967
0,246890001569333
0,270116235438492
0,265682006037621
0,267665156889383
0,27265721517238
0,275985950151963
0,287277959493152
0,283869034602418
0,298699471812599
0,298057588620598
0,299466302107342
0,301181461143708
0,304994980327199
0,31063210063152
0,309805591912468
0,312270394741972
0,317994442569743
0,344359034606669
0,323938801291723
0,33054490172262
0,32141898359078
0,319751433762191
0,33032045322473
0,329916462672775
0,346243202331448
0,334797744121661
0,334321550264098
0,335778391508212
0,334048844044044
0,33778488077418
0,337111507801389
0,338964034784523
0,326492993693472
0,340411847476596
0,332309278956092
0,338754604891589
0,363557693317716
0,354383413588695
0,330466471699658
0,324997076873634
0,334794963139276
0,325230574714984
0,332019840717489
0,31687609693321
0,330836627035972
0,317672218524862
0,336313848200589
0,317835354095912
0,320175819383935
0,31381412534788
0,32449462924803
0,312095629685478
0,306933176222043
0,312417931342251
0,300912796331975
0,30486662997091
0,313530611616954
0,295278335678825
0,296613073094839
0,291261685989865
0,290826974961818
0,281016827384561
0,28369232808606
0,275686285222618
0,280038228830491
0,277300527607485
0,2748921896349
0,27190592915547
0,268789133752975
0,266553108385366
0,274099069377088
0,271483436609838
0,271984929461587
0,263599342548847
0,265784057974171
0,265044338770739
0,261668799090132
0,261147556291802
0,263418877875755
0,263697645813469
0,258343430557257
0,262612914040916
0,263872312735678
0,259458057466666
0,257444904099801
0,2575753200665
0,25883285253184
0,258973127246443
0,257913831620221
0,253143575330744
0,254754998789689
0,255867861078018
0,256389221638503
0,253106550736533
0,249492612645159
0,249914327398458
0,253890582045415
0,255243321405465
0,248883435929531
0,249085377054673
0,25597591704197
0,249346886170842
0,251746306285479
0,244532342863693
0,246178117062789
0,237557976769075
0,248467868536046
0,23256937637508
0,242854597102132
0,240546783056321
0,239069096585624
0,238011400928285
0,239673515019908
0,235692313697427
0,239402962919308
0,22329576187323
0,236677524064894
0,229587353137621
0,237893405912778
0,236436237202839
0,24007934432195
0,229600879061578
0,227578373650157
0,242127112249851
0,221222385651907
0,229215104534883
0,216284663717904
0,222784038861846
0,219357602086957
0,220685666907324
0,222507265941839
0,21421735764001
0,219315044736669
0,221453827367217
0,217273050680481
0,212540961515066
0,219881052402087
0,205087733371676
0,214110450610507
0,208718234621789
0,225434425525017
0,21101714196444
0,206845395413743
0,197323617822738
0,199635034610123
0,203655648282191
0,201265432076428
0,196802832087411
0,194899415848121
0,192221574823858
0,188713415079629
0,185554614467416
0,191452750787031
0,182043252146497
0,196285461599528
0,177745537076101
0,187627521444613
0,175279042982061
0,184232112977105
0,183875320084509
0,181287017681106
0,174850910353304
0,17362846709721
0,179419881761839
0,17710435966654
0,179853035547151
0,164993582657005
0,164855537332272
0,170252466913029
0,157238944309084
0,165812551939116
0,155556020940648
0,162823769026267
0,160768633573699
0,165074516983241
0,166610733389492
0,161577944744236
0,154577814494869
0,153858768038967
0,150782296654511
0,159148889959775
0,150100514372394
0,154245852043109
0,156887175620692
0,148437940995961
0,161952539212557
0,156418260093695
0,159176543552284
0,157308889860028
0,155741761830328
0,156107773334565
0,159300805039596
0,166641051171718
0,167361376889351
0,159795713312229
0,169717522189033
0,164438041115025
0,175894926673303
0,16712557926583
0,173417940456858
0,174689931330533
0,182575613392757
0,182189646140815
0,186740924243992
0,192171084160156
0,190848422838832
0,194319150367418
0,203704484389314
0,199217696654001
0,211104997277665
0,208057387423977
0,221763714370458
0,2301037760647
0,229225050249714
0,230463522548816
0,2268501032564
0,240908715278702
0,23989698369806
0,242714615916645
0,249113361774568
0,255702766833277
0,254617377012662
0,257450029291236
0,260871248509264
0,261912094045477
0,264199226019174
0,270676939679113
0,26434244875849
0,294139942675724
0,268922383398907
0,283624310035702
0,277366458071369
0,279906925862954
0,281304637337483
0,290466210930842
0,28709891854624
0,285248666074449
0,296822886761158
0,294633581846129
0,287649870776166
0,294071402888445
0,292541434624684
0,294050621616396
0,295866436890817
0,298546774622084
0,304872419365901
0,302988726953225
0,304964553304768
0,310052595659255
0,309033380202817
0,31917174902897
0,310649965971459
0,315946744276094
0,316462935963619
0,322396093981578
0,319407178228084
0,327476222216008
0,336494483616673
0,327873479939093
0,32750982033638
0,330095512337857
0,334364697565978
0,337226040799002
0,339145552092499
0,341161599119492
0,339946591460627
0,348787581694797
0,341790770785921
0,373374883495248
0,350228410329077
0,358443279923897
0,350380109957779
0,360396085943438
0,351710013314502
0,357909683000507
0,356677967596592
0,362634202572404
0,356493753235489
0,364344024337804
0,357400637633777
0,363542242789808
0,365302380270867
0,360203088720459
0,362796492759248
0,367675412565046
0,363269248233918
0,360791918024817
0,354845361069646
0,36116107756922
0,35457674828582
0,371412719201548
0,361725451601723
0,361074926753787
0,352687655903782
0,361988206149936
0,36269586138669
0,354703270704583
0,354938032889423
0,356149077051696
0,356574924700667
0,363431844361321
0,356300650260872
0,367113699206251
0,365594344534792
0,36117465785508
0,357548619849799
0,371254919848299
0,36674221752001
0,364881774837751
0,366753287854993
0,372146375987552
0,370900490830044
0,374159198922529
0,375239199997128
0,37626410853597
0,373007103179919
0,374063260856753
0,387793929303372
0,375136310071445
0,368399194773911
0,37378590621645
0,367680579400987
0,375284086238523
0,364296661805098
0,369164991148869
0,357686080090517
0,362826399770407
0,352380636410463
0,357012969686821
0,350252008614576
0,350484726725652
0,350670490964742
0,344747613934007
0,340855616474481
0,335609679814711
0,336398127359047
0,333600309476702
0,335202424042407
0,329287524214695
0,328331981213536
0,325512678428096
0,325277799697885
0,323966083198342
0,322871689504978
0,324978705879646
0,32228193564772
0,323099841104475
0,320547479948139
0,320420859518888
0,322405030004421
0,32020560954931
0,319961784097723
0,322993809943663
0,321307313345363
0,320608797332117
0,320005741300444
0,318223198594162
0,32153145120456
0,312352408318606
0,315368312380965
0,315924693562757
0,315525297297308
0,315358646748105
0,316617572581069
0,319235295572001
0,312683423954405
0,314968373561831
0,316023867114225
0,314444544860668
0,313904716797879
0,315009052076296
0,312170042333804
0,316713170400733
0,309009732065361
0,313678015487538
0,314363634734939
0,311727727213906
0,309960569990375
0,315198027025471
0,309776009696809
0,312856118525331
0,31087131910295
0,314094349146713
0,313616660823288
0,312373781705419
0,310119644495668
0,313173154392609
0,312155775761801
0,312620931515296
0,31206887107074
0,308376136329598
0,310268962118958
0,308708429226935
0,307044524648828
0,305450965426335
0,301843979267816
0,304223383786844
0,299791386300045
0,295427528459938
0,292825743384574
0,292495610242904
0,288486691926989
0,286615373103708
0,284266547256814
0,277501788823564
0,281034106197657
0,279834041330361
0,276852171550841
0,27413670039468
0,273796122768082
0,273637264174387
0,271359399372116
0,271076319353883
0,271254314525793
0,270877622628294
0,265498835490582
0,268935538291683
0,266798657403435
0,268303015932845
0,270453350037244
0,271324581419222
0,271033365195181
0,27054629851289
0,273450802679909
0,274069364067498
0,270618014656872
0,274923670521732
0,272252168817064
0,27778935119956
0,276238570735845
0,276959818828784
0,280645823221685
0,280536086225589
0,280424684494405
0,28556086065529
0,28237481307551
0,283603796388949
0,286017800580835
0,286487020478325
0,289313962912187
0,289576468156708
0,287364348891472
0,289862206661904
0,288991452327425
0,288414109970305
0,286218551293733
0,288315111474729
0,287980610722325
0,284124571612259
0,28562026863708
0,285622334034907
0,284875983762209
0,28398381945476
0,281542341147221
0,28070256742457
0,282038232626917
0,280304043526021
0,277116297134562
0,279308519708374
0,277457528274352
0,27572408919732
0,274975575046911
0,275109662119769
0,273990744847313
0,271092989796607
0,268364094517421
0,272119026594552
0,271480458413904
0,268805128665735
0,26708854006903
0,266417266240922
0,266880582444333
0,266329471212111
0,263817625930475
0,26541239068775
0,2640771505494
0,262662835549952
0,263781627150938
0,260105840006274
0,262200217933242
0,258427303669092
0,257952167307073
0,255933200398933
0,256300475008388
0,254790256802792
0,251086035828503
0,249193221234803
0,248403746996725
0,249097893442455
0,244686817007958
0,240662821466463
0,243200735004879
0,238486297907524
0,236910956201711
0,235134873981444
0,233357551217785
0,234500075371737
0,23111645171253
0,232426827196989
0,231256272887506
0,231514884493292
0,230485975785522
0,229843045025331
0,22895820547398
0,227874231675453
0,227480104554799
0,225976605069306
0,224536784646411
0,222927126492859
0,222060219402466
0,218486276646562
0,216190343268275
0,213871863755969
0,211952436466365
0,20823156837222
0,206431113802935
0,204889812374363
0,203957734906471
0,204713451936454
0,204435666641368
0,203946403527197
0,205035801094239
0,207954186542684
0,21053622165702
0,214143917193705
0,220132737812404
0,227577643300011
0,233827726419632
0,242428487644914
0,25250681487406
0,262004728365468
0,270471664148071
0,28054983602359
0,293039987771273
0,30194686945313
0,314199771499954
0,326147028292554
0,335988478469965
0,344648211137222
0,358571151513058
0,369220225111516
0,377138904876641
0,385223261028837
0,397707215389621
0,407014704134178
0,412522900849322
0,422260911677003
0,427348913436415
0,435861715163395
0,440785686202283
0,45061477026712
0,454592663428137
0,459909976999129
0,463951102281779
0,470016203308608
0,470483346010215
0,475754079803718
0,473995444996503
0,476622741692214
0,481265996970137
0,478695814491703
0,48088305479452
0,480737452848951
0,483303955550295
0,481184710163803
0,475969885406846
0,48184634722143
0,483946246818142
0,486490814540609
0,484227093711318
0,486864830729089
0,489670152338011
0,494269337425871
0,500688136642516
0,501016772167276
0,506056662250959
0,509181896205453
0,513331413945701
0,519684994798591
0,521859732609398
0,529442885322487
0,539181882603107
0,5419958079607
0,551710120342812
0,562528542564643
0,564199606493208
0,576889037158528
0,581510496433698
0,595720857322237
0,595164627920295
0,605218913557062
0,609855715359188
0,616251866611867
0,619530710453792
0,621331708489862
0,620768362446224
0,619658999966431
0,623359544298288
0,620727117704244
0,610593351125467
0,619179853957443
0,610261593715695
0,606382013290289
0,60978813751339
0,61260926660603
0,614311341537911
0,611109906945842
0,623645974846838
0,628714017176356
0,63594406370793
0,646324094363888
0,665894323133251
0,66827929712734
0,679816438348883
0,69270478585119
0,693370990959779
0,709074553021538
0,725122583135331
0,72996074355047
0,747163017270874
0,750397935148305
0,759622042264509
0,776523882981132
0,798947085398591
0,800142241874164
0,804732751362505
0,832557171023424
0,842236646950257
0,85214545444548
0,868566898160895
0,89365784285426
0,906011663230658
0,922529005136366
0,917237713803524
0,950331018210375
0,960730231017584
0,965502900244913
0,975947138755341
0,997847911830561
1,00066805984593
1,01562216719217
1,01725151985958
1,03640730332221
1,04055245241019
1,04394222874403
1,03920178046762
1,04046962471278
1,04169638440806
1,04671246704235
1,04290732132581
1,03366670630673
1,042895811987
1,02683774133176
1,02681734933581
1,01812931410185
1,01937389922249
1,00312958106417
1,01339846037977
1,01219896332266
1,00890915206045
1,02053545931902
1,01586602902709
1,02374651737244
1,04895912696018
1,05761554837482
1,06334734924159
1,06996843554859
1,06132806671938
1,07997070422093
1,10434742647268
1,0999239129977
1,11711347766229
1,11057954238658
1,11072077113256
1,14443112370809
1,14298621799259
1,13228921698198
1,12374549465802
1,16148828101547
1,14932273152951
1,1478233873707
1,14946908264253
1,13763714737235
1,14726249303626
1,14601843817744
1,15823753318036
1,15785842892254
1,18734822265235
1,15802899670442
1,15781243533856
1,15226853166326
1,13890471385492
1,13180279804251
1,13980632300222
1,13862086393125
1,13886764983594
1,13372458301555
1,1241147808804
1,12933599986192
1,10409364420984
1,09998384997559
1,08012005126283
1,05643534008347
1,0322993594429
1,02154122302619
1,01472438923072
0,98258626989284
0,935041731405664
0,920319516422559
0,882700758203742
0,852993221648978
0,833295708368304
0,805322248715733
0,78419118425241
0,760107826475079
0,747718879210812
0,742321312286086
0,727306891669317
0,713228953493952
0,710498873633932
0,707849092127625
0,694616972673831
0,697732321828405
0,688938868558331
0,689128207892908
0,679912692142215
0,66923298113771
0,659778745654264
0,660376651233843
0,647175091446809
0,643211383403983
0,635886178666503
0,624898115041418
0,614538147054872
0,606065106932104
0,591248467488526
0,575590467945981
0,55858586184166
0,540937968513843
0,534455623678699
0,512682821970058
0,49701580344398
0,47769098861795
0,461854117620334
0,443581622952655
0,424056019760455
0,404698363113403
0,387261842406226
0,371907065161949
0,359764815035834
0,344659655793618
0,332870231333908
0,322580054462554
0,310010278722345
0,301271357274814
0,292149870864762
0,284499269316967
0,283107479611254
0,274627795283654
0,268497455910746
0,263493396621027
0,26167533530649
0,258145217527829
0,256265903165899
0,258026683915588
0,257753005987601
0,255715775400831
0,25087606543922
0,251842571421202
0,251204297827476
0,249680002813
0,255319351161084
0,254242994003865
0,257362460508621
0,258388032605901
0,254428425456265
0,255979773142595
0,259923468226635
0,256835600444054
0,254253027558729
0,25044691901207
0,253419519313901
0,247913403239955
0,24995251280309
0,244282851260505
0,243347489541129
0,242432483904046
0,242148207690966
0,239852410428257
0,237807056435258
0,233211118442002
0,235102861503109
0,239924414850185
0,237047995436448
0,238317122228603
0,23984489050576
0,241414484317186
0,246849004932092
0,245259965846811
0,244589052876676
0,247859413839562
0,251047614781704
0,250826834923211
0,250157135837749
0,254343462095681
0,254131068073084
0,253411421940797
0,257908128352148
0,256509657012292
0,256984760337872
0,258521618776956
0,254790849659462
0,255488700866576
0,259263530421397
0,260225026209879
0,262329122136229
0,260717866926377
0,259595588660598
0,264377141493293
0,266141364379103
0,267620102763715
0,27390335872344
0,279832381714173
0,284826287386045
0,291936331628638
0,296425120672616
0,301699097484199
0,309050752677636
0,314345276520201
0,329670726192844
0,332421932110427
0,331697341846303
0,344699633812425
0,346242315758739
0,340966617651295
0,342666516762608
0,346101592851682
0,337355897428399
0,332022388329951
0,327512764041871
0,318725877904214
0,315407679005606
0,312694719628828
0,314093061779805
0,30763300059602
0,307007729474911
0,310386116309477
0,308842770664256
0,307322545148216
0,313784490974466
0,3084996671528
0,309309511227923
0,311226028370286
0,310234404076421
0,30930738037048
0,304946494220441
0,297467576712229
0,300835293266753
0,308376515258829
0,298633944985066
0,286970354583597
0,287996517090268
0,287564226919511
0,290740515752608
0,284298958930899
0,277207972141981
0,278884491505398
0,275720207663347
0,275704711847483
0,272613194478699
0,274849866967777
0,27466503121514
0,274194157962582
0,271349696949439
0,27536707509339
0,271021576192828
0,266818514989663
0,275068350342638
0,269236869234652
0,268939693740145
0,265522758443734
0,259146925810754
0,260446841104188
0,268357819477498
0,267551788945598
0,260228845252223
0,264898575298835
0,261044049574891
0,259161974927408
0,251684950512886
0,253025715170947
0,258129755048071
0,252217811704223
0,249442755855421
0,244155316269592
0,246834974805159
0,252002625683329
0,25500069396556
0,249604669919507
0,247798095474185
0,241774908826657
0,241545669761279
0,243466425032017
0,246358012607732
0,241869995587304
0,24517408565153
0,259375501393888
0,253304719232477
0,247673528849478
0,254209366095814
0,252024343012139
0,254611338887014
0,250394057821669
0,249807104668708
0,252033756971386
0,254660073821874
0,251028081171683
0,254449390591732
0,25747655461262
0,266962022970366
0,268289650168092
0,264522293490211
0,26225588790154
0,260067416078923
0,263904382181293
0,273168619864554
0,273398533868805
0,264440092555832
0,279073940514724
0,282498525528119
0,284075266532083
0,299790043900586
0,297771561954418
0,301306712066681
0,303703884086113
0,2943913703068
0,309935421851987
0,318014069531915
0,319594497405211
0,334044960046546
0,347789134506181
0,362005728330214
0,360376992002811
0,375092054050113
0,389551948671822
0,392436130206629
0,405633789921492
0,427341789481843
0,410838607832302
0,40762646648417
0,421340583648634
0,420686183149184
0,40977249222596
0,422070888860156
0,41678191751612
0,424998305410408
0,42484533829212
0,401035493004588
0,412468153908396
0,440372600337302
0,411065179637784
0,403026374369154
0,411746200575653
0,40381651632927
0,417682830511587
0,411232925900586
0,408667171710808
0,427392963486383
0,408222611240714
0,400731032830162
0,403268362463695
0,39635012142705
0,392408792676197
0,395810591978236
0,402863444217341
0,393784660721934
0,380953669255741
0,374157632076564
0,382030854229003
0,365411039738622
0,361671132135784
0,386754926071238
0,376307664881816
0,367062733567888
0,374323708531717
0,377462933537983
0,362260891638443
0,385431190250491
0,369922313822108
0,367814603022988
0,38898644175918
0,36618800176764
0,36012884685747
0,380560543229393
0,405367171459426
0,401813415985606
0,386739175789251
0,387510505112954
0,378532180686575
0,384000880671583
0,377091758585357
0,394701871269042
0,39322011757893
0,374717041977666
0,39982431494788
0,41868424364867
0,415042775740546
0,418829656437572
0,393494497759926
0,393078645847998
0,395983084997838
0,419617434926475
0,423494740458828
0,397321001053533
0,37758274476859
0,393402092658802
0,42913748099921
0,441951221915047
0,464687622207964
0,450607446825945
0,443439498490658
0,440926409712114
0,420187765396312
0,42315642145822
0,458285457191577
0,486877831961829
0,471289485875324
0,480738875730897
0,475416460729534
0,448965379690095
0,442427558933204
0,492526132663377
0,482048708915809
0,522080735810985
0,530628544703127
0,522798039391569
0,551123280489234
0,492116287990545
0,503831277232043
0,474329280809639
0,502203031102259
0,54763734800284
0,473504893900542
0,526105308576464
0,50365263667662
0,485127071516215
0,499311973759947
0,446211472485589
0,469338226663568
0,503563668726476
0,464832605911301
0,498251930947585
0,506948179440276
0,435238562859811
0,487279581886358
0,523425386743502
0,471332056968551
0,475694179779717
0,459174675231254
0,488338825462976
0,500835140072912
0,454891977243325
0,49652924919299
0,511938157283633
0,481078726765847
0,52715954126447
0,464231226752984
0,460934672457886
0,544690718087465
0,549808679718699
0,564070851037356
0,439501360662938
0,573958919249643
0,682609437840965
0,479679407938297
0,72594672783697
0,599506013382472
0,53682361929395
0,523490965429374
0,520755376732934
0,626613085353239
0,47076349112457
0,417196963786956
0,61858787987495
0,707073674816023
0,543699983928008
0,511786692234877
0,479535750894024
0,411301350655746
0,514874887199681
0,560237273659481
0,507952862938477
1,11324863499106
1,03883612670822
0,512492013337879
