3596
4000,36533379555
650,420452594757
1
2
2
0,0155309140170875
0,0144161843452496
0,0231490354261218
0,0112102751451116
0,0193852229968708
0,017977808619264
0,018249157889849
0,0154373135955984
0,0263160184314028
0,0257527534906989
0,0232304187585224
0,017699461845282
0,0215836001719409
0,0205280760294341
0,0169919888226051
0,0204697441320298
0,0200829720920152
0,0165625634725702
0,0223367650917714
0,020252407921664
0,0172026352681679
0,0212047864971956
0,0184843836225211
0,00986338779990418
0,0157551617400251
0,0238294683460919
0,0207539085752909
0,0131272243128265
0,021177782248357
0,0210627992523284
0,0185343274071399
0,00792440695888767
0,0213263125901944
0,0175340309261866
0,0208528198249632
0,023083502722978
0,0162371595576914
0,0175378079741593
0,0220506104917217
0,0169791571509742
0,018077789184075
0,0121501142063298
0,0224667754657709
0,0177329166628267
0,0184474866757587
0,0171451666163628
0,0215212139981675
0,0214373724200725
0,0260119843087626
0,0193876470312255
0,0194232825435241
0,0200951473248133
0,0244683485625289
0,0251953915919682
0,020249292692962
0,0144517367767372
0,0177077613472353
0,0213542246592952
0,022546120702938
0,0153873877303798
0,0276072750026667
0,0214655595615941
0,0189410960605904
0,0188412562211677
0,0220261490580443
0,0121806723948219
0,019303524470371
0,0183431117303012
0,0142357124341802
0,0233675208297875
0,0117371468080953
0,0256253798284618
0,019992059347949
0,0107395787193796
0,0207116339956847
0,0215703031680707
0,0232205569355911
0,0177649626959962
0,0211650582176767
0,0176397980889977
0,018413485506047
0,0191840314139447
0,0236912813764857
0,0227465540756113
0,0179246516011883
0,0219948286177056
0,018119223812501
0,0197352194448246
0,0296632725285414
0,0117098917375202
0,0162432413846996
0,019116784985323
0,0116684932236652
0,017403904524245
0,0254521906152884
0,0219314384756649
0,01970332460391
0,0191742698292116
0,0159340246302433
0,0128305857831886
0,0182152685253097
0,016310686978981
0,0316514061825802
0,00621568286659348
0,0194945302938714
0,0146212999037996
0,0189609181634283
0,0267608576116072
0,0265100611005089
0,0239840715288807
0,0164918944481562
0,0143158083184393
0,0225712732184984
0,020288664046837
0,00854208737328392
0,0239399450700332
0,0251155069918885
0,0152208524064569
0,0226529659852053
0,0204933945411264
0,00673227841174088
0,0208865348070568
0,0278322960983678
0,0158796385426346
0,0227108805356445
0,010421667886586
0,0138342801357786
0,0281563974649216
0,0255498846297462
0,0146126312796253
0,0192300464170178
0,0134087568216808
0,0132535064386547
0,00336272681667227
0,0284118413015398
0,019758679356777
0,022117714682852
0,00964904860639147
0,0203937589764881
0,0340970373238602
0,0264794224494599
0,0186437637170299
0,0112277991749286
0,00430922691149779
0,0150642943727953
0,0125047188636925
0,0162359352634341
0,019729312232
0,0160503524766265
0,0103614883616742
0,0184233886154856
0,0150801645376927
0,0206380568457688
0,0155652478139301
0,00216874024173017
0,0181962218323986
0,0262750636300732
0,00772492005250312
0,0422827588916102
0,0108298046646687
0,0231853163683421
0,00997380944866177
0,0213359067770773
0,0132718802512947
0,0261884842295561
0,0121335463389349
0,0237879739958243
0,0224712414495005
0,0196158604488115
0,0168751294277883
0,0232367849999663
0,0119089480216159
0,00855559210683894
0,0248222638579705
0,0191287987286444
0,00902388067725336
0,0254590937581727
0,0204767069935566
0,0199122904986025
0,0112717163253294
0,0259642398563391
0,0157432350823813
0,0191534401801045
0,0149254264299299
0,0234739786421094
0,0203542574331409
0,017688798229697
0,0148725455786613
0,025328134110183
0,0135061910504497
0,0216774016064186
0,003370675786146
0,0247531529979047
0,0200674931731473
0,0216298076219397
-0,00574734823858902
0,0226925457814532
0,0182718830663293
0,0220989652355298
0,0131872836359907
0,0174901459145971
0,017832166950761
0,0189413609146433
0,0113734736008561
0,0171139349072206
-0,000571064297421429
0,0306854191507525
0,0152844528967658
0,0240181574873901
0,0120516388077048
0,0170729115540912
-0,00257509049112131
0,0332404642241816
0,0258249301652056
0,0198629808636069
0,0135878517116779
0,0174882550779457
0,0149724614647803
0,0172978164850584
0,0148696542161463
0,0211888625189676
0,021627616997128
0,0214961444826941
0,0174597041592586
0,0243037086889408
0,0177719712321309
0,0190181480423104
0,0153131557920333
0,0206805458538097
0,0155349968011477
0,0227370478792726
0,0164200489886384
0,0167468780150214
0,0217369564047984
0,0112695195033372
0,00266595079305665
0,019525031598077
0,0182119294869711
0,0211479236224857
0,00995971143597608
0,0187901045390392
0,0162877957368055
0,0182666169465083
0,0154335171839285
0,0232053115868979
0,0121854188791653
0,0346565054321855
0,0104034619149257
0,0236431825264673
0,0060946630516011
0,0265803325501942
0,0132546434218066
0,0143541214265122
0,0101731541368308
0,0184870435164805
0,016540412168099
0,0185948353100745
0,0142074534776588
0,0215584267936728
0,0101725946374386
0,0152410420022711
0,0185913642038984
0,0162160654024055
0,0122490802345956
0,00235384349665163
0,0389528204167719
0,0213095126847691
0,0027159647942615
0,0426974817076221
0,00817454508750103
0,0154146627315698
0,0121652678416217
0,000573797770499916
0,0272276597635467
0,0291897974799931
0,0173998670821039
0,0141565839131937
0,0213618624170472
0,0156862875726126
0,0234243606634573
0,0141395652492027
0,0145353784531551
0,0315483425820437
0,00194324743200576
0,0325523833089579
0,00439008067884416
0,028526649514392
0,0156146871093077
0,021399074066595
0,0159938562607288
0,0167054525280931
0,0106983860960736
0,0216312874130265
0,0156716111569145
0,0190770143000032
0,0170822785240225
0,00846855869722518
0,0209872786309499
0,0193782091522864
0,0193580055417845
0,0185759354477412
0,0207050835271575
0,0188563250921173
0,0123689394240689
0,0115924148642949
0,0196505452607008
0,0183440371874639
0,0104725533356178
0,0377544138129224
0,0168501491956212
0,00959437879069558
0,0189956514647922
0,021866948947844
0,0207530109417789
0,0178535916337554
0,0194243018944154
0,0201043954922654
0,0198959022875959
0,0132389177279573
0,0243135520635141
0,0201037048102568
0,0193149262235935
0,0226983766544258
0,0120825560609876
0,0172577243274145
0,0211518817119756
0,0203176456341686
0,0143709665905594
0,0203418979710021
0,0169938309891518
0,0172533286637392
0,0281981774387572
0,00844978158603441
0,0226612112390553
0,0261078338191908
0,0166816520956476
0,0223414180335642
0,0126565032063935
0,025023473598378
0,0145402273929085
0,0221059545665244
0,0220542844720376
0,022601558296055
0,0174678002380046
0,023983991725898
0,0140827849255814
0,0135710872637344
0,0192767154931142
0,0327775336058145
0,0165144883097404
0,0259621575001418
0,010293940534147
0,0295893238888379
0,0265089769504591
0,0215727363304335
0,0374568533152624
0,0170743317364621
0,0225443341192631
0,0238356015887148
0,0208538662110055
0,0194565137904081
0,0238941409023756
0,0239334323020387
0,0241035251736838
0,0206180929073266
0,0229280346914574
0,0189902119089192
0,00889160344020971
0,0332215610108889
0,0314295056982613
0,0246387429374947
0,0273357878125419
0,0229741121278272
0,0278961180288849
0,0278850241525829
0,0390195109001485
0,0357763035709191
0,0121799868399728
0,041191376350682
0,0271447570921511
0,0353172390427112
0,0261461614950385
0,0315129874853892
0,0209370000289407
0,0381863124145317
0,0318686786061044
0,0326488256055611
0,0253290959204032
0,0330542270162922
0,0277870295207545
0,0314770883395599
0,0283119757140697
0,0424924143211615
0,0277019594315106
0,0351203557065198
0,027015566514369
0,0301537690616708
0,024613970482574
0,0469417153720358
0,035014585052303
0,0362037791932846
0,0374676526824074
0,0370780116408141
0,0376394987771761
0,0416211777251537
0,0366797599891975
0,0340504504549359
0,039483843574317
0,0421744182729699
0,0457132105757321
0,0549775835940551
0,0390335983657995
0,0487099610959288
0,0453847989433762
0,0421637274295282
0,0485733362432733
0,0542659197951313
0,0363775614360684
0,0516355904500308
0,0563147385940409
0,0441076540123347
0,056275981200354
0,0465425150688516
0,0472427860412947
0,050151532581432
0,0472878602027533
0,054181443311905
0,0596057743773599
0,0559729077899073
0,0560786195054505
0,060564490884259
0,0479009100774546
0,0558910740796575
0,0586988135278672
0,0627426999054325
0,0537111496766499
0,0729551966282036
0,0555233239070747
0,0654900602194285
0,0604846807191499
0,0616682268634209
0,0642833862411295
0,0695831046860839
0,0735118039560586
0,0648557097945872
0,0608283014739145
0,0703094312514746
0,0735621375144566
0,0739435486554823
0,0728467724898606
0,0803149702305583
0,0735094678171737
0,0763388659478764
0,0816345828667281
0,0809584394657999
0,0782258844914972
0,0838115115445556
0,0778470984017952
0,0879869965054883
0,0766470940475647
0,0863685284208227
0,0856537588747249
0,0996996206799416
0,0890202127707481
0,0806786981850737
0,0989603247340258
0,0917467732993526
0,0999642493670824
0,0986324648821593
0,0896539913988867
0,095312022017315
0,0892269436214746
0,0993091621795837
0,103136722072125
0,104246045774619
0,105297164285223
0,108154187487906
0,103199612401462
0,0998625624196825
0,102107003452869
0,118872890382136
0,114729480562578
0,117476520089554
0,111708730953374
0,121427314300724
0,122717490975514
0,12044061837509
0,117243358040757
0,117883592675325
0,120359657418955
0,126005437942595
0,12458684964917
0,135739322410087
0,117706259710776
0,130103945147826
0,131933031527385
0,130849876262172
0,13017301542595
0,140722182489397
0,13987931727767
0,133648853399669
0,134633443450058
0,156806175945573
0,139293002686962
0,153793398793892
0,150581841597089
0,148895950448611
0,148335910606358
0,147479153149913
0,153611969538846
0,154173702697282
0,154401850246375
0,152645948415201
0,148330455636057
0,168587981403187
0,164344967646359
0,160301450675094
0,16417343593744
0,164135632023371
0,158767133261122
0,171418672499019
0,168820049168203
0,171977290589696
0,16785674704968
0,182656858066489
0,176136870432665
0,192115658611768
0,184137834916188
0,183900703141882
0,191036750747751
0,193147937943564
0,173620933482581
0,18088434257916
0,183342586942084
0,193504362416998
0,192340454042787
0,198858459788988
0,193213099738218
0,194593886477555
0,194535197670543
0,199057937471427
0,194897097021718
0,195284468810797
0,205505560522993
0,207637767456072
0,207134520607335
0,214415431517815
0,20094257603149
0,215500100894644
0,210402647737969
0,216175924795846
0,217479844162254
0,225236217446126
0,220154188456693
0,226011326535517
0,215151982769601
0,2168288405631
0,229566818863522
0,237019636558942
0,226670849660595
0,228957381972321
0,233546362663371
0,246462993777031
0,239123112531859
0,234586167521095
0,229089210652052
0,242688579046798
0,231139384304967
0,238415102209849
0,241070148220998
0,234802520070759
0,236570863567401
0,245911028034579
0,235840261761774
0,241511028629838
0,238266249327562
0,260004694480489
0,253615992934378
0,248692556741092
0,265614019540036
0,27421427101554
0,266039992418413
0,26482230229512
0,255800433557504
0,282217722018872
0,26924685376695
0,276940366427759
0,273135736294153
0,267159481799159
0,277613698131132
0,275508624531659
0,275490698913922
0,276620406695688
0,269693783735404
0,285368999492412
0,27892237677687
0,284720175788004
0,294213587315769
0,283732075180311
0,273713456086935
0,288152464469564
0,284310969971337
0,29023615792293
0,293058629787396
0,292637535533327
0,287353899560514
0,300705905844284
0,296838143322063
0,298889404481773
0,286303989995578
0,298293897308172
0,299493104673528
0,301072713019298
0,297551494179342
0,308119957583531
0,311856233192337
0,309180201150216
0,302316061929369
0,308502236651104
0,316248744909474
0,313719811843377
0,306374919739973
0,319657597206546
0,312639100826369
0,317868548727317
0,313963707619008
0,318111576863338
0,314198334287391
0,315290675855735
0,311526037935028
0,308809952130446
0,318349396862589
0,326300566462694
0,310387230035228
0,330665525858417
0,331337030475638
0,316979022065356
0,31719049991428
0,333060644125849
0,317753319943389
0,316844231516577
0,322350693741065
0,318342218286093
0,323348717990978
0,333553173685107
0,326955293484801
0,335913589382888
0,335981393743271
0,328292671434161
0,331433319556685
0,33315535629259
0,315325182344502
0,329421389362768
0,34398525596208
0,332472501400273
0,331734642958383
0,332889364337281
0,331652875406089
0,340155250814499
0,326752471314631
0,337457416338254
0,32887432356244
0,340371109168154
0,347673481351722
0,340809059894989
0,346716158477532
0,345441857331729
0,343873359945464
0,350575673909672
0,337986319355889
0,338914278560999
0,347703871114603
0,347547045072782
0,344178510523907
0,335133898550578
0,337021012629204
0,344622735708009
0,347153225745202
0,351779170585019
0,346444265045282
0,347028629054551
0,351350998368605
0,345375718111635
0,340445808410087
0,351468841390441
0,353683842953283
0,347254183268041
0,344620910368719
0,343475120251306
0,338054681832326
0,340858099752771
0,346916773335599
0,350339214421699
0,34088946909385
0,336446979037703
0,341264009954612
0,346046196332675
0,3436169476445
0,345788002542939
0,340361489726402
0,343888002161443
0,339793777217449
0,341718315169581
0,341648817801424
0,335666892153134
0,342130883370344
0,357161589670956
0,337966312290833
0,339376169505602
0,345847128653787
0,350513512304413
0,344600865538092
0,33675289566978
0,336462301996407
0,34193878181436
0,35085317423843
0,344738354206938
0,330917252723694
0,347079241701227
0,345156779757453
0,336459602483699
0,342854831842852
0,338690809111152
0,342418095775766
0,347822397639509
0,340636900930368
0,336078997983937
0,333307207679782
0,342834139362938
0,341976792033643
0,346414910432709
0,345628118914128
0,335070614461777
0,340335790823492
0,343498155700311
0,340735187861382
0,340358205359107
0,33221066776424
0,334277751426959
0,329511987613372
0,335903027836169
0,335910072092229
0,333121439912264
0,330976341910743
0,32786583851446
0,335468546012118
0,332666022021894
0,332750640224389
0,334816124960572
0,335991616804828
0,334425703070908
0,33424275687033
0,335643193926013
0,328691861056269
0,327175801357808
0,324681538926022
0,321186666439929
0,321633719224815
0,334419645043549
0,324754327714448
0,317591267162461
0,326517759935897
0,326937269689452
0,319096880078042
0,329030316338673
0,32868707409028
0,324679776535501
0,323861903165814
0,320415681851712
0,315019401428845
0,316582292092398
0,323812719684041
0,321917667651542
0,312948869170063
0,309610052373598
0,312793080318145
0,313562896454423
0,312415827104249
0,314748637303462
0,315143667708535
0,318628662043972
0,310307728467927
0,311361096351494
0,309745786522441
0,309258055669773
0,310277817459501
0,312164043667955
0,308882491356762
0,302971650790174
0,308314492181204
0,307748131981842
0,303468708414713
0,296755474882483
0,299807488080377
0,300592154469951
0,292500143352121
0,297865107129926
0,294763962607254
0,304618329425837
0,297041791461874
0,294337379658395
0,290286344033621
0,293158680882981
0,298338312367471
0,297109073071222
0,283191408021911
0,277664455980589
0,280211478882048
0,297465505891214
0,287822196817503
0,292110131148576
0,281575660460679
0,280979262084458
0,285347102095558
0,283052506084189
0,278157857375162
0,276506423738204
0,275681959124256
0,273778504537261
0,270659379801126
0,272686626090016
0,266692053468698
0,275590636535438
0,271174790550081
0,272195352118014
0,279473300906391
0,272869096181043
0,271847477233909
0,26973369494375
0,273292402977179
0,275169338157443
0,271360050931648
0,267211629148191
0,264131627307788
0,260840155186328
0,257069232902994
0,266426090215969
0,261009980798747
0,255941696707526
0,256305012797524
0,252196598367366
0,256778110258521
0,252219872041803
0,251443079279275
0,25613394729583
0,249417533089542
0,242194086594401
0,246985329982621
0,247369934910866
0,244372474867658
0,247674576921857
0,241738636638569
0,238736301905183
0,242614834473063
0,2417902695075
0,236724899301429
0,234923181965964
0,233148596822628
0,234986569349326
0,236461043007981
0,231386331350712
0,233682390727069
0,227383769025509
0,229712029306596
0,233292964285453
0,23396910215251
0,230294367887208
0,220504322104537
0,22005772759142
0,222934771623656
0,224909629573031
0,209285173363992
0,215947049595305
0,218663160895825
0,221069096966323
0,224640905143157
0,215961048917901
0,216554592883921
0,219336983909829
0,216415653743089
0,212112003388432
0,206366680599652
0,206642466661737
0,206827525584878
0,204100833270552
0,197527107294419
0,20457606008138
0,201716337755275
0,20576415119038
0,200991211168003
0,20113741398897
0,203799249184422
0,199342685518919
0,196731532362026
0,203643793282478
0,193513747641615
0,194672246982838
0,191361740897381
0,194067639345183
0,190681716077691
0,190647284872164
0,189218503947008
0,187166044867999
0,187994771453627
0,183325600504846
0,185582505505785
0,187744040242008
0,182149650661594
0,179886958393094
0,184501916616948
0,180570707314611
0,181169513154459
0,178583728581069
0,177126205083937
0,172625691912519
0,176588276256679
0,174588018518382
0,171981234835614
0,170824109704795
0,177177092554196
0,172407032303805
0,167231448794294
0,167037790125989
0,165750708830771
0,162136974949547
0,167858651410496
0,163000121361271
0,158441438535156
0,163485151061507
0,161358972526381
0,161149139937879
0,15814082591351
0,162016481637002
0,155407829847291
0,159046952043207
0,157775660105404
0,155005174154154
0,151850955562747
0,150048080213984
0,149075969669834
0,148916070347683
0,150274147099657
0,152093924976489
0,146882390471646
0,148009333958418
0,146308694467504
0,149026794091362
0,144835012947525
0,14340714011916
0,14945313584783
0,146758912590387
0,140342206129505
0,138442809515087
0,138798453522511
0,136554074391481
0,137025310093155
0,137471610261467
0,140166456365595
0,141205259549092
0,135124343487108
0,135810597472488
0,138484552109027
0,14116639821252
0,129009029429024
0,134300757543303
0,132521150298346
0,127389513359164
0,129637548729217
0,135322987568972
0,127190115398197
0,126383608937208
0,122794152360458
0,12649093507347
0,127539106916351
0,122560620520181
0,12219850722413
0,126326084424504
0,125168198872985
0,119372242904563
0,121291362115925
0,12478276138646
0,121778776295423
0,12058373607812
0,121985771117725
0,11856271457454
0,115468241257657
0,120142625844551
0,123237096402724
0,115412797930269
0,111346995103837
0,117269179420854
0,113179491477386
0,116806053807538
0,113820568256177
0,111914587245451
0,115823855907361
0,110133519335384
0,108871226806339
0,111193988539625
0,105315653576207
0,105920338546746
0,106852235380284
0,108857583291586
0,106360945866204
0,107731226651379
0,103291075762843
0,105259958866433
0,101303766521466
0,102042545003707
0,102928681414592
0,103851088155561
0,101906487917834
0,10295023858035
0,103682159823223
0,10135566082285
0,101772369532076
0,102237456059192
0,101607491179254
0,0992013057519122
0,0976644746905029
0,0928932373413845
0,0986253577366872
0,0996474047631343
0,0969234811860353
0,0940316348932435
0,0928937700999356
0,0955829847199454
0,0920729307151907
0,0908625454585581
0,0885638019761798
0,0923050810256707
0,0890011728187084
0,0904960564084239
0,0886548306367621
0,092006016058345
0,0946784050739535
0,086926996601717
0,089926069847937
0,0885744932490212
0,0861041798146917
0,0872924882638378
0,0852562718333997
0,0826067852828717
0,0832587535529829
0,0857187406634703
0,0856977237414457
0,0837349012944442
0,0834862304017867
0,0818086055348765
0,0843925179180987
0,083476434907362
0,0815776896132875
0,0800468844427773
0,0846981742238475
0,083456807050267
0,0786335140673197
0,0779544639529186
0,0827053633858362
0,0824969219549631
0,0816650079185269
0,0803266516608226
0,077293227469942
0,0822929656691751
0,0792850511351289
0,0749534518676935
0,0758685841478979
0,0804815711499563
0,0771421577230654
0,0777528293086656
0,0730476739602974
0,0752429642500296
0,0748167949687337
0,0797086112674068
0,0779358885144133
0,0775321902938388
0,0750693311175129
0,0758248150811768
0,0756605494508264
0,0790486281375154
0,0744510314057018
0,0750195141167625
0,0766538010841888
0,078413449153269
0,0745514052783563
0,0762105845796385
0,0795070866406363
0,0793524940877373
0,0809983318392146
0,0759321312051495
0,0761939345412822
0,0802036642184652
0,0783847596017953
0,0810628415639424
0,0819810137825252
0,0789278041946808
0,0746205917085531
0,0779774323214889
0,0845496964986042
0,0824342703454749
0,0773579218492439
0,0839386586917441
0,082959065315096
0,0871105246579877
0,0851318852864109
0,085140127809261
0,0874916887431406
0,087818760670147
0,0848628613294858
0,0855797523998692
0,0858011853777497
0,0864139949731998
0,0868221142284256
0,0868268670848961
0,0880751797234517
0,0878258274873715
0,0847610993072927
0,0883211772850148
0,0898721627098794
0,0895781167418701
0,089345518241947
0,0944722774050347
0,0998104027417947
0,102262956570947
0,0935693584248784
0,0906901776601766
0,098540200214111
0,0930718979569824
0,099486172849334
0,0998300822303789
0,0985404625099271
0,1001048923242
0,0999439357123051
0,104020526373793
0,0979289133154535
0,102432642553789
0,103493194361315
0,102902237775638
0,106401895711194
0,107289477638027
0,106038538860905
0,105647151228145
0,111516817676813
0,105374585203183
0,11031472005685
0,107257273629948
0,107780017757433
0,11029239862848
0,112277794428163
0,108696655971864
0,108980600840915
0,109436508353891
0,112486800268774
0,112405052103217
0,108469781213533
0,11670779743953
0,109243499179998
0,112700915726617
0,10666868155127
0,106760955041134
0,110386839967361
0,107146031287869
0,107914679170254
0,113359641645455
0,109546701862559
0,109543451239138
0,111367022947573
0,112520571768456
0,106702442583475
0,10662888984897
0,110433569418551
0,111572460790713
0,109889209403296
0,11010639803651
0,108116739237589
0,105708521569454
0,110161352440247
0,10790340804888
0,108226383648665
0,108460528165505
0,101309121711197
0,105280199306052
0,112389622951953
0,10858144851408
0,105136945638801
0,109493976899698
0,107103857581999
0,108585019219175
0,108863142738088
0,110613594759045
0,111676151987213
0,110800889846083
0,105857968245778
0,10766721560753
0,108914908123531
0,106886759521187
0,103077994368317
0,11030783001317
0,10919343709781
0,10843078212477
0,104061130989042
0,10865811622914
0,103279873730574
0,10277062829882
0,10309267606875
0,104972383546261
0,105649297691984
0,102122491012556
0,102767643712729
0,104580314700653
0,103342556831815
0,101567643307375
0,100383151919147
0,0996560845582761
0,0998691103333303
0,0982330317090293
0,0945766891956265
0,100013246155598
0,0925044791385007
0,0929154074702306
0,0909781168096645
0,091425160560318
0,0897169553859489
0,0962694237161933
0,093293365563352
0,0894261587938911
0,0914409424024967
0,0882400714140454
0,0889635355149466
0,0886016837699744
0,0799116636112337
0,0856384135635299
0,0817615554904992
0,0833218228059546
0,0839604516605558
0,0839460126895438
0,0864505088479615
0,0812700335211408
0,0796539565983625
0,0794426739900763
0,0786951544982563
0,082709672858777
0,0788855530261887
0,0769323722901416
0,0764265127547704
0,0799234135125832
0,0737142080603546
0,0748922974185214
0,071993801531348
0,0735416630971276
0,0707231613480694
0,0734670538599143
0,0707586959142228
0,0719652987730201
0,0725479460814503
0,0702820989522906
0,0717785121298895
0,0728262876978935
0,0653688583804785
0,0711349067540495
0,0657863877106819
0,0680563472183304
0,0681169379478151
0,0686998951833495
0,064953806621698
0,0698995985652065
0,0695738486017439
0,0679662466014197
0,064824584935355
0,0675289183967996
0,065808807816132
0,0606217391784054
0,066516653571141
0,0638036048558219
0,0649621779505743
0,0663746639756576
0,0643788557166558
0,0621058181560046
0,0599332043973485
0,0653751143946163
0,0645077381269756
0,0638371411145445
0,0610120976929661
0,0629422617508122
0,0628996878111691
0,0607317060246103
0,0581150845685725
0,06463147749546
0,0613764355482396
0,0580262509531427
0,0603073336983134
0,0558860009216961
0,0615527561617109
0,0610316870773972
0,0562993206506607
0,0581962838372076
0,0590690589908547
0,0574545614114844
0,0587686263798681
0,0588048592458586
0,0573169275686314
0,063959254106161
0,0588816944815321
0,0567081066309878
0,055979741903103
0,0549194370673162
0,0572041445332228
0,0534161871912582
0,0545809211312606
0,0557552726095134
0,0545933234279082
0,0566039668979478
0,0572130326767109
0,0576415595250493
0,0508365396648119
0,0552298265142434
0,0534707460801453
0,0580707688801433
0,0541517070921885
0,0546559929534215
0,0547807984205539
0,0511579091423866
0,0521955714446175
0,0521844061503227
0,0515073971708969
0,0560691999412404
0,0487645297660798
0,0493552898795904
0,051572029200194
0,0510600763463149
0,0511425807727866
0,0518168704158037
0,0500161077136262
0,0537982749263667
0,0516086709443315
0,0527501545460341
0,0503383398332817
0,0495812020069498
0,0502632484148766
0,0488857177907645
0,0470311932595349
0,0529851688003182
0,0536795317784137
0,0502523543416667
0,0519795271212526
0,0510061462507648
0,0498288705538757
0,0484553228632273
0,0533008264606837
0,050496717890384
0,0513246982724406
0,0483282910402647
0,0471949733658508
0,0488279850964046
0,0477948799653315
0,0518786783244281
0,0516187514856438
0,0498186315313163
0,0463435003474287
0,048233242653395
0,0451468355858785
0,0468052987276631
0,0488039668936426
0,0469448516546448
0,047099950894393
0,0486062790886419
0,0490772255400085
0,0511208732471445
0,0497937193077994
0,0498456150483262
0,0477759401183379
0,0485498428975501
0,0489016573930225
0,0505768591953308
0,0494294537572748
0,0473521042763237
0,0494027909739206
0,0474693193795955
0,04652662785978
0,0499225418971418
0,046096371409159
0,046878676264839
0,0444487745984718
0,0462341240922805
0,0467063541863764
0,0485515140049911
0,04777818097288
0,0486569400447867
0,0461676120168358
0,0460754787227626
0,0470956616742824
0,04496860721272
0,0480838400448291
0,044780753028415
0,0436230533312552
0,046707979182914
0,0439335284338426
0,0456677485398455
0,0466782346066417
0,0431256369233716
0,0467432637443389
0,0462791098395675
0,0435989631009582
0,0433437444164098
0,0434509268456996
0,0438725285593107
0,043305119981521
0,0478251941999155
0,0438462152529832
0,0437470164282463
0,0422270488880278
0,0450606446349835
0,0449561471411688
0,042927959167771
0,0429277158888663
0,0456170065801754
0,0412237405944076
0,0425318496462648
0,0421269863995328
0,0409041540395444
0,0418314719766696
0,0455210826563046
0,0412612424921986
0,0426468125602904
0,0405126950912709
0,0394882091458555
0,0419835709989566
0,0435250285122808
0,0396422602091005
0,0398247191918785
0,0405484322372612
0,0416830130783616
0,0396012532529332
0,0407577931693308
0,038591820120655
0,0386778970864112
0,0389553584790772
0,0433961950269376
0,0373904892493148
0,0399131455040548
0,0413168886023381
0,0381625060064442
0,0397086878290731
0,0394217741476603
0,0369238601797141
0,03741205741689
0,0388147231308105
0,0415651917671273
0,0376120551723918
0,0374629409375578
0,0354478072437062
0,0370857869065869
0,0358875539533731
0,0408601175743513
0,0391709542044028
0,0362950864600969
0,0364670026347114
0,0364864126009333
0,0346554109161359
0,0384097982056197
0,0342847559873699
0,0366762286769846
0,0346951257362283
0,0355861192845381
0,0336607378063753
0,036457561403359
0,0360270450926801
0,0354444346226091
0,034216625326938
0,0367213876390558
0,0344624747885888
0,0374132400799459
0,0351956195625062
0,0377882306819383
0,0340892981527589
0,0338184823924085
0,0358877176279684
0,0323423061148726
0,0343287026611291
0,0344191923275057
0,032806619723876
0,0325594949154579
0,03038502724973
0,0301153902962067
0,0295618584115162
0,0346242796179837
0,0318031319993905
0,0325357309528031
0,0325508543657123
0,0310291191224109
0,0326566243477611
0,0315781384782971
0,0312693596612652
0,0305710006098389
0,0308457960890483
0,0306399915423535
0,032363052741726
0,03051635414767
0,0312611914231988
0,0311038198152241
0,0312106971689272
0,0318095452410884
0,0287473473452616
0,0277862692209763
0,0286363969688274
0,0297740453716281
0,0279222296348567
0,0320921322072772
0,0319848022842434
0,0307916239328062
0,027977848545002
0,0332667119726557
0,0309284630150118
0,0270121474601912
0,0279236575083409
0,0292271852106539
0,0305885384837561
0,0271278980472764
0,027761420067408
0,0303005515343694
0,0312981454675707
0,0298834760091315
0,0278203794239076
0,0282781491784325
0,024769947438261
0,0282281143455675
0,02991030707822
0,0273431960015766
0,0294191818750394
0,0264144854824044
0,0257849070678192
0,0283568305436195
0,029660454879686
0,0303534521275153
0,0294538111920577
0,0270226161324211
0,0295514962591982
0,0262169058761962
0,0267829232774217
0,0320443436277297
0,0293058705787387
0,0277737690206388
0,028635476330499
0,0264955157310341
0,0277663473507536
0,0271533359375962
0,0261072147028819
0,0267201520524432
0,0279974353638247
0,0265605132312132
0,0226840340105035
0,0278854692438847
0,0309611246411169
0,0270202988952414
0,0284965388412485
0,0295435994664798
0,0268641565464048
0,0280563842494492
0,0270650874092722
0,0287206883541091
0,025901690225028
0,0291818865098894
0,025815565030053
0,0253704875580706
0,0233124113097294
0,0244189567041722
0,026238468603984
0,0243858426131144
0,0279472171594747
0,0285588460725968
0,0249008062491024
0,0283865622845787
0,0264424004656727
0,0241081168554307
0,0258734989499779
0,029237212761835
0,0279696127051081
0,0261784653924697
0,0238688827605812
0,0240957908479195
0,0254767287656651
0,0228969662606136
0,0239357582807336
0,0264009029560403
0,0252106787452329
0,023006343097046
0,0250531136196086
0,0267333499526602
0,0252849187157367
0,0264188504870331
0,0229553401316041
0,0247614698425153
0,0260397061627103
0,0262317492634639
0,0243631713337368
0,0265777979236086
0,0227254316610199
0,0262246265409762
0,0235208238896452
0,0241032604223631
0,0249130708296185
0,0251873466818088
0,0228824725405271
0,0240214379317859
0,0250877518022199
0,0261821101808025
0,0220137611286599
0,0264272378729994
0,0216328021698773
0,0228373262766771
0,0264381091009838
0,0234949203691629
0,0218189066119386
0,0255113783911641
0,0205231813260459
0,0248943796369919
0,0229983257986321
0,0225477194900222
0,0217669350035861
0,023421960813507
0,0225868199365399
0,0223201700648129
0,0250012548834558
0,0256336116848675
0,0256743139262635
0,0225643517751103
0,0231254826818563
0,022294731026059
0,0232691119163064
0,0220530413088203
0,023300443554274
0,0230688720217835
0,0237578405158808
0,0218851821328059
0,0197103312263933
0,0227388807336662
0,0215558592382964
0,0236491122341658
0,0247484444428132
0,0219597876273261
0,0229813487168874
0,0219396952959498
0,0214759876277883
0,020577559383914
0,0236607282649131
0,0204076379206626
0,0214948856714044
0,0200420006771863
0,0204102827636226
0,0202719386877387
0,0206198885802725
0,0226634054636622
0,0205987107593455
0,0217543204404423
0,020310993715126
0,0208737467862993
0,0224012447977306
0,0219256188352825
0,0194024678743746
0,0203568061810135
0,0182629365830102
0,0221955507239758
0,0184810396261923
0,0209249469370918
0,0200103389736852
0,0198078687311969
0,0221717145415381
0,019718257271656
0,0205563752570965
0,0209945811622061
0,0186134001700941
0,0185310750652432
0,0202759556614887
0,0224691228083212
0,0169724491150557
0,0210427346883574
0,0188520026067102
0,0195856230300987
0,0192129825604493
0,0188391054737712
0,0215952849740109
0,0200600199460651
0,0187350592301476
0,0199745851311173
0,0217756734064628
0,0193183941710664
0,017483975195846
0,0216315261801092
0,0170503915300294
0,0207855043161074
0,0177881198752018
0,0205105608749111
0,0205943125787316
0,0185172734481972
0,0171821636329459
0,0199665821913915
0,0160762068910625
0,0169672238379223
0,0176765222853256
0,0186575178189269
0,0158704117579989
0,0172964262219264
0,0184111062728819
0,0169564311797866
0,0185194307133405
0,0183035785382712
0,0181488791815983
0,018799307054681
0,0173097109724452
0,0171490955481973
0,0171425458342241
0,0188077947775873
0,0191037163231703
0,0171432757482411
0,0160565462433295
0,018296100168986
0,017877766372703
0,0180371877925596
0,0154249050844027
0,0168296537423137
0,0178846942818064
0,0170714026681269
0,0194235418639379
0,0172127810580702
0,0179385100871605
0,015991836169876
0,0176691406493459
0,0183399096494326
0,0176385153708833
0,0181722333409506
0,0163179498869505
0,0158471460466207
0,0185533212933591
0,0153355930102784
0,0165529165131299
0,0199430803293751
0,0164448670226355
0,0165122446824177
0,017545821326717
0,0183932159631117
0,0146495018202719
0,0167359004828776
0,0147669534401558
0,0148056006885241
0,0168003333077419
0,0188230589962036
0,0146153128205063
0,016628539412288
0,0131701177053245
0,0180779608020597
0,0136246654575728
0,0192938339954017
0,0165572381180678
0,0181862625265204
0,0137427877163251
0,0140178749345403
0,0145158884035538
0,0178468202191602
0,0143960423626702
0,0176676481328565
0,0199027117236837
0,0207332353588997
0,015497097642911
0,0148730304259011
0,0198880576669113
0,0176871565207979
0,0136004104224034
0,0208461166917159
0,0191368150919182
0,0180445182053099
0,0163501858564231
0,0186309905989892
0,01651629919019
0,0164093652685247
0,0136036083440449
0,0126020263549232
0,0149103759418408
0,019175017406314
0,0159093405620164
0,0191538974136196
0,0118377784366642
0,018848053512022
0,0122254188355842
0,0174266978301042
0,0144885912249447
0,0125628439692129
0,012237241727784
0,0167837604278703
0,018490942809078
0,0171384636583273
0,0202134032585956
0,0142995699369488
0,0153099590255636
0,016319302546792
0,0220339653419636
0,0140643217650272
0,0174194555950508
0,0103931185972884
0,0185903295295775
0,0122989359674312
0,0216199135745174
0,0116879890446955
0,0248513570971779
0,0108597072095722
0,0225480107972514
0,00911246606069435
0,0181607920014065
0,00893442750407075
0,0207073785022693
0,0100202946610565
0,0162568014569277
0,0112456870030387
0,0175633606578374
0,0143779138516617
0,0147211149998712
0,011690501510613
0,0174359249480738
0,0158402757022191
0,0172318100272331
0,0175236233309437
0,0165048358656924
0,0140321352690327
0,0151598562899951
0,012422557321358
0,0139242179357769
0,0135078519652631
0,0167142011728995
0,0132875887614148
0,0125414814487834
0,0149971580885444
0,0137862629984036
0,01468804909209
0,0156498376241088
0,0148894238112558
0,0145213369795742
0,0132272539363116
0,013197002398022
0,0123755386573256
0,0145575136940956
0,0141507770464577
0,0138554709779319
0,0128586761231612
0,0170248131356388
0,0141699478692938
0,0172340557637894
0,0147750482805603
0,0161007755542712
0,013879996443313
0,0144430326068868
0,0129564208908276
0,0152625561172433
0,0152747402095462
0,0147892570749189
0,0140253266637595
0,0132744273253754
0,0141363226926333
0,0125551023190074
0,012085453993509
0,0151186724806414
0,0147211415678642
0,0158270734993002
0,0140830240509266
0,0143940125851983
0,0135692697004878
0,0156929794006288
0,0134188979547489
0,0148505379107475
0,0135559293176736
0,0145893861339356
0,0137750007340778
0,0154067741855132
0,0117989626025688
0,0155931228474057
0,0136378433999205
0,0122383582088083
0,0148013240506996
0,0153712542250678
0,0136822136642778
0,0153389136691955
0,0128834099919732
0,0136272808734907
0,0147492772048291
0,0148505612996356
0,0165257529554107
0,0138923733353922
0,0131599565591278
0,0133754200185356
0,0121930697066966
0,0122546542916882
0,0141871386119512
0,0152296487212075
0,0157146138910713
0,0138070643451052
0,0134917790961395
0,0138840870673195
0,0151713530812974
0,0135280431590566
0,0141993355830118
0,0137579424782433
0,014210503927662
0,0152749488601544
0,0152885901078014
0,0149124403426433
0,0141959975333484
0,013499031447614
0,0122017152210488
0,0142545633863858
0,0134579144047743
0,0139810718887016
0,0143610494429944
0,014454202642423
0,0145879043851932
0,0147338465940922
0,0161934623144911
0,0153337291834377
0,0149658530159982
0,0114330625274671
0,0139891625970612
0,014022939968938
0,0129299836661888
0,0149497235954106
0,0163357617457465
0,0140855022751839
0,0136879070102294
0,0161938697357965
0,0157587386018585
0,0163927726791526
0,0142900889973876
0,0134884292570656
0,0134378614183378
0,015730392234198
0,0153912621981158
0,0150844759250442
0,0147819500143718
0,0148474333521404
0,0158303310996276
0,0154646369050885
0,0137839752652246
0,0137878801943095
0,0142979139406507
0,0153001320939852
0,0110047017375539
0,0128146884710432
0,0130677747382206
0,0153302393501968
0,0133905350974073
0,012952850324189
0,0157252643670867
0,0153950589792758
0,0138124321657707
0,0139569135332443
0,0153529595280742
0,0136617730136667
0,0136583919966771
0,0151802008009183
0,0124404042228459
0,0145139716168921
0,0141352022240836
0,0124556938106026
0,0146839221397181
0,0140193287179451
0,0133343210551519
0,0153341514032931
0,0136369286917148
0,0147048128268637
0,0143302845740638
0,0172621119349858
0,0148188566412693
0,015861538368918
0,0143045446914475
0,012957585908253
0,0144458690374939
0,0143489777483879
0,0140452757199792
0,0147854948495071
0,0142818776727902
0,0137690000585842
0,0140711768722638
0,0143050637751798
0,0144103593851609
0,0152713596468308
0,0149199371278296
0,013857639795494
0,0133543410175945
0,0164391738421812
0,0146337463945171
0,0143392760456452
0,0155977479495055
0,0148841154873888
0,0128611293645903
0,014569894086492
0,0152659127261185
0,0157507557211819
0,0156719416996827
0,0145485140703262
0,0147702658581825
0,0147481854989937
0,013806804217188
0,0136177510865524
0,0129185397557367
0,0134820351216104
0,0134363945810971
0,0148426651108523
0,0135386336722059
0,0135663554417466
0,014078741525821
0,0149016470821047
0,0156513618451088
0,0140201502975273
0,0132538112280632
0,0142013640342677
0,0135041100090071
0,0129076667007384
0,0139621033398537
0,0123082301889575
0,0122795234835704
0,0159423195700152
0,0132150070864446
0,0140074574164718
0,013692535942972
0,0149486119299547
0,0141506073043173
0,0145313441947654
0,0160453646918457
0,0136304538836333
0,013005108669928
0,0171762999140102
0,0140642967441707
0,0138796925558225
0,0142745385814763
0,0153029792015604
0,0112630520458234
0,0126806567923296
0,0129219280015199
0,0126687399788736
0,0139557423682364
0,0142959815462758
0,0114843845141831
0,01308330112881
0,0135576173537312
0,0135716203589471
0,0140696165589136
0,0139565521523795
0,0141793063753884
0,0134317124181838
0,0121741940433833
0,0133862334730637
0,0142902990171345
0,0139349658828127
0,0139153021649286
0,0152789846534871
0,0145965380835181
0,0149259139660395
0,0121635703215967
0,0123437353684548
0,0136380473161403
0,014940019201682
0,0102927492864608
0,0131138423662364
0,0119277901671664
0,0125227646511643
0,0128471858446957
0,0126941909708614
0,0126247400394492
0,0134466316140363
0,0144467563362393
0,0130333168794323
0,0121047110101823
0,0136727069687987
0,0125143063319449
0,0150486679816217
0,0148262212940583
0,0132642357604077
0,0119957592285412
0,0119232564195159
0,0144266906679679
0,014175105490409
0,0124758784532061
0,0131547561752893
0,0131767741517055
0,0132693051758497
0,0140352995670137
0,0143718905542482
0,014858842886686
0,0124213605979073
0,0113303942989432
0,0118304252428712
0,0127904753124135
0,0140582285167764
0,0120701354030229
0,0144181969917005
0,0133998464130147
0,0142602328716605
0,0128454253611548
0,0133479650306399
0,0106377195424491
0,0144223662890662
0,0114945390260343
0,0149275053602807
0,0122886693666479
0,013098950459451
0,0130360464965012
0,0132227715752861
0,0119821140268461
0,014995645425764
0,0129823628693641
0,0142548638971053
0,0140822557517775
0,0127437131558031
0,0128244436469569
0,0121537908510542
0,0123518304699551
0,0119188609459647
0,0139454664036152
0,0109151929163647
0,0131857436879151
0,0118270735274034
0,0128169705934777
0,0116415991429004
0,0123294013235758
0,0123557539367779
0,0121963617043156
0,0127512112699331
0,0100428133297292
0,0148543286164073
0,0128639612938784
0,0125012824484567
0,0127956513412325
0,0117476730280964
0,013314851349721
0,013425750277338
0,00883876023232155
0,0118036779230769
0,0123902966382106
0,011792302215728
0,0101922633940975
0,0121131133008004
0,0145888469563676
0,0107378729007992
0,0120849791658034
0,0119229340973312
0,0118889117093341
0,0123041509224005
0,0110452718592798
0,0119067599581472
0,0122981149909867
0,012369429370287
0,0102319390303463
0,0119854322945524
0,0131432990698321
0,0131892721402895
0,0111337898810519
0,0107047768486527
0,011532784975854
0,0114930599803868
0,0130263078316109
0,0120723435197767
0,0130493937822834
0,00989468312796879
0,0125320991304098
0,0113813923977728
0,0111425356166791
0,0104500765053994
0,0109427465115553
0,0119139040030397
0,00993944114333658
0,0104539181447581
0,0112108128153933
0,0128532016212187
0,0116485996315755
0,0110587896237404
0,0121111591913363
0,0117552999002334
0,0109614905260274
0,0107958910253586
0,0116247959327648
0,00907735724747827
0,0112110297571477
0,0106032408289499
0,0117878885961571
0,0117526860077953
0,0103522082271311
0,0159418935012501
0,013137328823971
0,0114548416296428
0,00958149638080676
0,0103882063469732
0,0109351626945226
0,0129988927601758
0,0117525307203306
0,0122980393047967
0,0104484988021516
0,0115064853135749
0,0107682517158865
0,00911388347291905
0,0100818460270007
0,0120024736048179
0,010075840603533
0,011456724365747
0,0107692007964614
0,0110483921485759
0,00984878744323434
0,0123301771193055
0,00940929798518518
0,01207745420753
0,00609857027840207
0,0109673632950719
0,0115546288152523
0,00923355874971062
0,0116886836929608
0,0115771631164817
0,00901349652615009
0,011610972470484
0,0100079178313784
0,0103433029999015
0,0112360009239542
0,0115117742738423
0,0105154356762692
0,0118955862644771
0,0115070103234437
0,0103649239864019
0,0133506903981139
0,0123006098911568
0,0119217129691257
0,00966428120862968
0,00970082562858765
0,0107597412337269
0,00951315790424622
0,00919349710172226
0,0125184253303466
0,0120738063792
0,0114092592608318
0,0106624911806146
0,00969422566952388
0,00773831864315733
0,0111749366739889
0,0114195529014473
0,0135335596789064
0,00991747149528951
0,0115877219548985
0,0103577239800404
0,00963879082842812
0,0117099415186632
0,0123403139303834
0,0135217353383599
0,0115698426727935
0,00828614514322218
0,00990600009839624
0,011677209347803
0,0114304236232683
0,0120413385977566
0,01092445988486
0,011706740124491
0,00927777794591683
0,0100311715497532
0,0107947515547693
0,00876358362321484
0,0108721273633851
0,00885213668351678
0,0104657414897198
0,0138754837920901
0,00965083629559882
0,0110197766216608
0,0112083185656697
0,0107858861321458
0,0109551130518974
0,0119655636773486
0,00780802417389454
0,0109119048758581
0,00865068681319266
0,00997582321590336
0,0118139232259921
0,0107367843705598
0,0106006759365233
0,0115537544347185
0,0104399988717459
0,00902864804912971
0,0112572127584255
0,0126298020313402
0,0110384182298405
0,0106306209883901
0,0112733628122763
0,0103114401748513
0,0108752800075925
0,0108431240309822
0,0113628430043477
0,00878917558034695
0,0126672063906638
0,0113867515945858
0,00948709841718018
0,0106584661100547
0,0100094011624629
0,00954933376648051
0,00938140852273715
0,0110442752466444
0,0100255695140067
0,0129450446947515
0,00917388480054821
0,00863317192321139
0,0115209760166005
0,0101959220079032
0,00885137758668187
0,0110195847715116
0,0108110922940025
0,0114952614986132
0,0122939883018929
0,011499747175413
0,00922716831810811
0,0118857033390892
0,00804137000412917
0,0117373264327001
0,0082006092972117
0,0135095805572494
0,00584323618312385
0,014148301936386
0,0116046406794875
0,00954724549794799
0,011486992697475
0,00977123438994106
0,0118165148408495
0,0111879858923857
0,0107061754894539
0,0126287982354528
0,0107586834123871
0,00928866875734988
0,00961897746760659
0,011271253213442
0,0101023223208631
0,00877671896908839
0,00993394553745884
0,0172988844411195
0,010535739636135
0,0110216395009402
0,00983827732217546
0,0118052760359286
0,0123976378631252
0,0109524588918337
0,0107066631414959
0,0103148805169146
0,0104499740618137
0,0106166498348045
0,0107337395240327
0,01026107571053
0,0120545627941148
0,0111196023615643
0,0114827110429736
0,0122903447454267
0,0105746328358985
0,0113064334423278
0,0104714561962257
0,0106309209912757
0,0151729247198145
0,0120290759614063
0,0139488803749305
0,010206870677707
0,0102864975242094
0,012390930719225
0,0116209461173743
0,011128526820679
0,0119156943793059
0,0128008283264522
0,0096057857279922
0,0123426719245573
0,0130677893624884
0,0123919049685163
0,013264170326585
0,0112441358442565
0,0138917350419334
0,00916673924145529
0,00946644047089014
0,0141002283458086
0,0116025821992304
0,0125187188650166
0,00949505003873159
0,0140355250372124
0,0102968542191656
0,0146345075333305
0,00916799961652061
0,0170053029171623
0,00680056199567602
0,0146052969017684
0,00953142360583517
0,0137835673516201
0,014413844605543
0,0120552089946909
0,0122131037897438
0,0144173520747688
0,00964027283144377
0,0143886591624428
0,0129531206716322
0,00912520111987212
0,0132081287577904
0,0183298824604017
0,0161562922762649
0,0132764654296999
0,00882211025382553
0,020939293772578
0,0126776803833892
0,013592850573029
0,0120840405114353
0,0168408721824756
0,011758683734001
0,00874305054094178
0,0148515906436626
0,0132187233335637
0,013290027638867
0,0131503349471234
0,00812235920929735
0,0130437574096516
0,0121360857286314
0,0138794482008444
0,0131730093193908
0,0173416373410474
0,0059502237316419
0,0246022701293437
0,00925012521600741
0,0142243256374598
0,0148251098656111
0,0145203958943102
0,0152701601800967
0,012329068521776
0,010327823884991
0,0130081537481778
0,0158882767688759
0,0169402559554262
0,00898181667526183
0,0118889782811846
0,0207353785871879
0,0137009349196057
0,0176773197257559
0,014702622627816
0,00911548888944964
0,0111058403243333
0,0227205670441902
0,023464804641696
0,0178083189142522
0,0126261113799964
0,020888462662077
0,0157362507689587
0,0179982285705676
0,0182224750680924
0,0168053359078385
0,0178754402369101
0,0172109785151524
0,0182841081857741
0,0173289327882617
0,0203352144025544
0,0171836268851593
0,0151135563787034
0,0170922746751027
0,0200984315948935
0,0287948893951911
0,018057631730957
0,0273766729848607
0,0220480968737142
0,024301264615229
0,0218852337851292
0,0210447980654596
0,0224762634831335
0,0224272035468774
0,0231501168702536
0,0205359480798957
0,0257072473331842
0,0206385091367629
0,021164877176811
0,0277885443222359
0,0249476428486258
0,0287088906596041
0,0129211524305522
0,0655561150603177
0,0240582865113352
0,0343702207898661
0,0276169337574948
0,0280961904435799
0,0410086577820458
0,033812353142959
0,0328479821441151
0,0338584215476248
0,033056722496586
0,0359315338164193
0,0366941596784974
0,0422716657688028
0,0435403375659145
0,044889535059367
0,0372295204734227
0,0424354784762942
0,0536637188210048
0,0526753457014132
0,0533934568249412
0,0476849443062905
0,0528951849444024
0,0579081376931261
0,0547636415258955
0,0581624800037332
0,0561685087199724
0,0528203105440242
0,0746126606900247
0,0624432418550756
0,066371744941306
0,0600673434999032
0,0732189814611488
0,0591160321562782
0,0831842247281438
0,0712872971633082
0,0711561007599903
0,0712377071673228
0,0746707371754911
0,0754123580075455
0,0716749985639608
0,0793274183343477
0,0822992761267623
0,0819661208207391
0,0842359540303553
0,0823136839578174
0,0813008332222905
0,0830622442823507
0,087445520805075
0,0833951476574417
0,0908656826145942
0,0746897861608812
0,110877370059642
0,0862953070588125
0,0871372303691403
0,088422995111617
0,0829820722238192
0,0880971474978097
0,0876358614134961
0,0953639589837463
0,0922079342838515
0,085925890947772
0,0857687907650737
0,0845707091639161
0,0878051889370764
0,081515404108369
0,0900560855853768
0,0815450513264393
0,0919913020528908
0,0808713588180174
0,0873201174725251
0,0968334273689665
0,086325467300369
0,084271666161847
0,0852377389505948
0,0822586365929793
0,0823521207930534
0,0781837634840047
0,0771862833238558
0,0879283678135471
0,0807830583096802
0,0894948169518487
0,0779562220856012
0,0789081286092174
0,0876048410439797
0,0782846715577246
0,0833521221088844
0,0745791623032118
0,0786392939902684
0,073410965439996
0,0714710783542325
0,0809111621861974
0,07454071625237
0,0769097542608009
0,0730507519568269
0,0741997956305457
0,0711418592974116
0,0716606744667775
0,073878877885909
0,0738806294335224
0,0698557644361318
0,0717582464920359
0,0701414274423227
0,0729679259809096
0,065309694815435
0,0680567217250951
0,0692536852726172
0,0698456058425855
0,0720296939814807
0,0714269082036969
0,0704540009621755
0,0676748692274452
0,0648924432325317
0,068925926879987
0,0684702419827589
0,0678988399356513
0,0653303753628314
0,0673270341642249
0,0672835576895992
0,0689373216094629
0,0681073465805451
0,0674025650362243
0,0673202663529431
0,0669970081432411
0,0678687416961811
0,0662555988071489
0,0665120192215257
0,0662488937892346
0,0653118547608771
0,0631223100935827
0,0665783304557102
0,0657089830253468
0,0683542239393788
0,0582411660598378
0,0727138514453572
0,0687371138775992
0,0644410314273741
0,0642038841855329
0,0631773052271769
0,0642142501302932
0,058119553318178
0,068380329693909
0,0638162491387259
0,0616170576032415
0,0597211908639586
0,0614112767071796
0,0628681382073278
0,063720948602226
0,059747879970018
0,0603883881319703
0,0513806089244763
0,0661457065424685
0,0613790188572883
0,0596228576870053
0,0650829404230436
0,0575683112774638
0,0569236237227426
0,053032447116396
0,064473932306893
0,0545507890990112
0,0576131420011651
0,0519033309585306
0,0628225817878513
0,0567864074319326
0,0545336246216199
0,0582316460978483
0,0526749407013494
0,0542681723648398
0,0583168389766913
0,05267282541448
0,0514834585719056
0,0573487642919828
0,0461867929997175
0,045596244750829
0,0583090732465102
0,0590785626888037
0,0497188090580329
0,0502204695809032
0,0491928318378668
0,0432285725623249
0,0567972689185898
0,0479954542796585
0,053334788692551
0,0479030015570726
0,0463476218298334
0,0432547590012516
0,0463492613116059
0,0469436433150116
0,04210823879685
0,0586171233761548
0,0420998208184783
0,0479840328747634
0,04524660782922
0,0473800491476948
0,0454984816555752
0,0452957088778475
0,0414688305123578
0,0461449767205647
0,0513199048882327
0,0440812403844421
0,0478379347123285
0,0406253758405682
0,040232984454518
0,0448172824766322
0,0402244889535917
0,0417698861322887
0,0424512930428259
0,0360250254091256
0,0440429693063652
0,0434244522815779
0,0489564240418081
0,0420607929607766
0,0374582364971261
0,0418296753184861
0,0409917483081351
0,0443247123264643
0,0356367014616176
0,0438895474470267
0,0411683162152312
0,0315556007300038
0,0512489140524445
0,0438675350246907
0,0401701302121929
0,0419612139845261
0,0419779728211054
0,040838151572303
0,04053534260177
0,048681404972138
0,0440557695333645
0,0429053536714444
0,0505172321868581
0,0435313128951273
0,0497764470355278
0,0471416631956591
0,0489500588771981
0,0470089594201661
0,0518927730605415
0,050402857436311
0,050898870557525
0,0546965502457059
0,0549293993011232
0,0534341328223309
0,0617354297789435
0,0499516910666795
0,0679677257975269
0,0564291332161202
0,067311011728321
0,0615650867480093
0,061769577504071
0,0652411123424907
0,0655054535158452
0,0679392301990067
0,0656238445199189
0,0636248521347551
0,0801242985016083
0,0702761331079248
0,0759357959981716
0,0706202717269559
0,0747122977325768
0,0703190449365132
0,0808395565134846
0,0719410195999139
0,0808001049173362
0,0807319444078317
0,0757953759836658
0,0793318940429521
0,0744949538463826
0,0797562997893634
0,080416757399083
0,0798989764305147
0,0812605193763582
0,075820258275789
0,0822248937628511
0,0823622835011527
0,0822073999676776
0,082094942208447
0,0807450453266503
0,084337900237414
0,0830541475649863
0,083930976746922
0,0871181589673534
0,08537695667573
0,0865204679868796
0,0799495059996502
0,097881855768793
0,0903066668331575
0,0900467462078441
0,0914169501668804
0,0884687200366546
0,0894797639004275
0,0923439751620792
0,0934011818281324
0,0930945061679766
0,0925064214820073
0,0930577750599377
0,0931245190266934
0,0953371989654761
0,0930140240496214
0,102259810154391
0,0945801802097057
0,101493515324634
0,0933581625509441
0,0984704348649448
0,109485861976392
0,098385776250988
0,103011472841595
0,100101291124
0,102361463264873
0,0982935629312447
0,101087557396249
0,100898585671089
0,101532657328669
0,0999607557939732
0,101086079943869
0,100190589540406
0,0997765486300304
0,101193424606479
0,100536852436045
0,104908949696991
0,101058334354712
0,102047003343618
0,1000558460878
0,10282870920079
0,0985878371449682
0,101951576477148
0,102331776289464
0,0977049219948607
0,100357142940401
0,0980170879244574
0,100724888405081
0,101888190701065
0,0987519416655939
0,100501773916967
0,0981053556809503
0,102471283630686
0,101931017059174
0,100163350721036
0,103614147865961
0,0975124739738188
0,102312614193798
0,101052911137779
0,101003734240695
0,100330143182577
0,102374559725917
0,10152432833743
0,1036918962157
0,101590407728269
0,104207328896258
0,103333885870475
0,104214468848625
0,104050675330279
0,102626949524137
0,105242290022288
0,100926695830779
0,101181878269083
0,102099259915916
0,0992185967957887
0,100242955561586
0,0981078672249214
0,0985983835720597
0,0974303168368698
0,0967649265066196
0,0917436924627817
0,100514502003898
0,0938951335164383
0,0923987231175253
0,0913619085605723
0,0894167322013109
0,090087307728864
0,0913408952810126
0,089601220252394
0,0861654698580775
0,0882538667440667
0,0887548156300484
0,0884422416497503
0,087733519461584
0,0874771214551506
0,0853937165285964
0,0853121734750795
0,0851009413129803
0,0834444258755374
0,0856254901758505
0,0871506549878499
0,0869028845229841
0,0842043975944456
0,0856864505458192
0,0820271942596689
0,0855349348408343
0,0857044050555168
0,0867310882971436
0,0867764577231185
0,0849720648343037
0,0854397030226752
0,0848606286388711
0,0859873441157086
0,0843554101362565
0,086414526286905
0,0821020535126564
0,0845530392757912
0,0849327227749841
0,0840958063978298
0,0839156313375532
0,0849826350813471
0,0833206384643923
0,0822430608514116
0,0828521111072451
0,0851133958904501
0,0822010683183338
0,0816626885761254
0,0816409762746234
0,0828060609046992
0,0838637935587159
0,0826229935922288
0,0831458819529081
0,0834432662075395
0,082765533827574
0,0823954422684823
0,0831677237385386
0,081460841375352
0,083049216027439
0,0848343803348312
0,0827274430206716
0,0809223584066095
0,08198064263224
0,0843178034110497
0,0814963709979265
0,0810401190487802
0,0808912878855594
0,0814817682271251
0,0806908894735781
0,078685521632958
0,0787518717443257
0,0789473832556555
0,0774340208543376
0,0753073314096342
0,0752221905601254
0,0757573834455535
0,0733365967151614
0,0728564320126242
0,0723832945114217
0,0730702851036136
0,0721270264338167
0,0728147727838928
0,0712332886019796
0,0710807821481125
0,0705162731255791
0,0703211220961698
0,0719248597439844
0,0701783249259786
0,0705442905153977
0,0699639315554845
0,0704706203558386
0,0702258157761361
0,0696299685284214
0,0712990929994309
0,0718262590618183
0,0715401820812641
0,0720053363894983
0,0718917925035707
0,0718411161465159
0,0723730300000788
0,0735072089167795
0,0725105036643694
0,0720914552136764
0,0729746424800952
0,0732700691403663
0,0738874405051265
0,0749625395214743
0,0755078011628317
0,076568446777069
0,0763906377131039
0,0754403821473479
0,0766441235763527
0,0767501992795474
0,0762815453080655
0,0763014632571577
0,0769286727307009
0,0748355845790203
0,0765909730184479
0,0763980477900501
0,0742620792559101
0,0752098924585084
0,0747031327945446
0,0757148874055197
0,074918837080627
0,0746176380698487
0,0746705509433897
0,0746017232517433
0,0752703782505709
0,0728451811691382
0,0726746099941341
0,073028088099782
0,0733956125457626
0,0721666180879955
0,071737384432279
0,0716857227585319
0,0705806190229139
0,0718342265648929
0,0711086589681219
0,0719519669175166
0,0716673847082103
0,0698517959838349
0,0702874864867815
0,0711350395931202
0,0711700525341043
0,0701030262565587
0,0714257235226614
0,070250939931154
0,0699302646930482
0,0700894867222355
0,0691551737995076
0,0678712735524446
0,0678806015730368
0,0681779672734679
0,0680556680548964
0,0677968500633145
0,0672084840526883
0,0673984840748271
0,0674670062900381
0,0665191525030059
0,0661699799401211
0,0655545798808957
0,0662890165783013
0,0668847266312697
0,0655861865242355
0,0639999046144034
0,0634154930440164
0,0631494590773232
0,063211432920896
0,0638505402773488
0,0625117290529472
0,0614177975877211
0,061606031166705
0,0615940588495957
0,0623148783530504
0,0615242314933619
0,061469353428118
0,0612898186917614
0,0606707681939154
0,0594616726324893
0,0592581837814086
0,0598934314081531
0,0601419294330398
0,0602552545692445
0,0589265361627776
0,057919000876586
0,0578631412081822
0,0581792790744042
0,0570754623555425
0,0564675133120775
0,0560672148019421
0,0555364787535358
0,0563111567695673
0,0559415368510126
0,055366872269694
0,056702186618668
0,0586064106322637
0,0598736313250578
0,0612121396228272
0,0631923734352029
0,0659057673791776
0,0694317986073976
0,0710417977500381
0,0739591441080762
0,0793583352519854
0,0808530640144062
0,082850503570877
0,0873809056549174
0,0917708105646593
0,0940610317674085
0,0975697116105167
0,102366083072289
0,106366009989095
0,108940685333688
0,111514561938974
0,114506393413142
0,117993856721394
0,12146402853269
0,122932464244276
0,126478472818639
0,128541359983982
0,130026261895281
0,132351582541448
0,132476320004432
0,135687279906567
0,137902403227307
0,138168894556792
0,141393906991444
0,140730638802042
0,140909743956154
0,143099431012644
0,144896954042203
0,144833665702268
0,142598187901193
0,143440119375613
0,144281365544788
0,144682743253713
0,143507436851491
0,143993207979781
0,144383512847513
0,144779698795357
0,145219883255602
0,147324591086242
0,14684971842253
0,146313689529153
0,150710676637393
0,150698526087378
0,149947656334653
0,151305408114786
0,152690850107114
0,154416604174855
0,156155922338892
0,158815540553012
0,160390290122057
0,160997847865015
0,16310417090085
0,165845080789646
0,168195982701714
0,169997312277046
0,171571489600383
0,175878356789949
0,178827181799133
0,180204972653248
0,182767485373682
0,185132041417736
0,186240116769223
0,188057019996143
0,187374191662001
0,186152663766901
0,18832025377314
0,188451810117935
0,186975465074502
0,187183795866028
0,186909193554957
0,184877630338227
0,186356730220241
0,185041796978677
0,185190765180802
0,187143944095464
0,187051062840662
0,190184191635791
0,191193046147604
0,193753941065573
0,197143721731148
0,199402541614376
0,203189715534909
0,208994847541581
0,210191953665093
0,214080873489694
0,219385176532101
0,22250747925686
0,226832108772342
0,230089032311402
0,233819305131657
0,237336180245761
0,241101796222984
0,243627965658667
0,246051874188965
0,24999395304701
0,255344773070107
0,25925675256072
0,261903445829189
0,268145367371069
0,272742690311388
0,275505497853701
0,2793431759317
0,284683487952025
0,287367709112784
0,290445820561142
0,295155918972072
0,296461173853697
0,300581841193376
0,303607819294089
0,302035391914881
0,306257961044269
0,309059871793768
0,306502386111446
0,307244302858397
0,307145619394182
0,306233229822632
0,305518460804174
0,301333290223436
0,300250188223336
0,297475795239923
0,294626781704366
0,294441006190341
0,292106644151213
0,290714977522934
0,2904048877218
0,288047417275726
0,28570356033942
0,288159141933739
0,290387491246455
0,287813098968958
0,290189674150637
0,292546861859337
0,293446287477891
0,29638978585963
0,296478826861306
0,298861180897361
0,304733207510536
0,303158072017514
0,303385438073952
0,304637766049704
0,305363843403595
0,30743529574944
0,307177154530848
0,307576865661928
0,308329709296075
0,30732517528722
0,307297153657697
0,305727913200768
0,306079243817298
0,308004463294951
0,303306886207589
0,300074030161571
0,300413473458203
0,301508335425578
0,29987261404419
0,292930973074987
0,290243227320801
0,290970189683202
0,291489590139617
0,288293530147203
0,285709825663552
0,282255285914743
0,278513235427546
0,276522187695838
0,272434621469886
0,270847393331075
0,267569945634826
0,262656632915728
0,260779980534266
0,256499021181555
0,246574541264162
0,242971061092193
0,235532772396412
0,225699472156973
0,221740457453239
0,214906388755125
0,207687422752354
0,201619212101406
0,190225002117714
0,183246428002342
0,175907096451306
0,168592969698829
0,163535959610443
0,155877427855597
0,152022008851924
0,150786945894505
0,146827845909556
0,146385729745348
0,144884656653508
0,141861020647868
0,142378480388017
0,140700836834966
0,139363533406613
0,137913624577214
0,138875940427464
0,135609634789931
0,134183498973623
0,133565763604095
0,129830562415978
0,129107530982373
0,124889899163861
0,123024741116731
0,123258336189155
0,119580256121204
0,114617859863039
0,112816422794798
0,109509339383746
0,105283815573688
0,102319426620248
0,0989251198411837
0,0943974264095862
0,0899098926127779
0,088083841429989
0,0835250909635728
0,0799128117219734
0,0762217942392843
0,0708736702710705
0,0674437300570714
0,0641739682551586
0,0631235503321632
0,0608097163967774
0,0569229308151129
0,0545633948591908
0,0533121653807512
0,0509578317152027
0,0479230695020873
0,0486302610899272
0,0470587729577516
0,0442858481469177
0,0461972226197924
0,0455584975297173
0,0437960029788542
0,0431238077914823
0,044964606621549
0,0440381086557323
0,0427055830739196
0,0454226355801855
0,0444039184499245
0,0434449853428526
0,0449584931258702
0,0433870335683974
0,0460837081032887
0,046586186905008
0,0442128415294229
0,0450906841227844
0,0447823532313885
0,0451242512556195
0,0464804138002652
0,0456275691399951
0,0439606501417617
0,0419818463013949
0,0446417802082655
0,0473143517352293
0,0431529554277642
0,0428906927346692
0,0432374752811796
0,0433997782776184
0,0441201890827935
0,0415875296304701
0,0421464088506144
0,0432663051071185
0,0431660033737918
0,042673613050378
0,0429973392580192
0,0422813005518962
0,0430684384237148
0,0454675332816709
0,0459384715663883
0,046701516133053
0,0468805284790491
0,0470242681805077
0,0463881042572403
0,0443270527618534
0,0468451991599732
0,0504533262011893
0,0474032708967096
0,0498328171642118
0,0496065244001595
0,0494690441641781
0,0477840281284976
0,0495642366607731
0,0487793961752454
0,0482011681149823
0,0480429189887785
0,0504971797072949
0,0519113900727628
0,052515017998626
0,0535472280726077
0,0539390560635271
0,053983850301635
0,0543381754556393
0,0535007055862179
0,0548679243622063
0,0569967839902428
0,059475129210712
0,0571880385435351
0,0592943904255588
0,0629928718020043
0,0635457654067902
0,0691836371050511
0,0666130268309815
0,0668900621236204
0,0713852505210046
0,0701747516323444
0,0679010557095925
0,0697292710353791
0,0685498076951112
0,0683470370765693
0,0687566892245921
0,0653164721204779
0,0650764022313288
0,0637410854902958
0,0590918695467694
0,0635905999537281
0,0627850014299809
0,0609103961553328
0,0606986420844545
0,0609293140771639
0,0600900862533303
0,0605320324524593
0,0554944528248193
0,0593661153433114
0,0622377110878278
0,0591036903179051
0,0588156628339062
0,0612047882960529
0,0590296233106203
0,0586960967632476
0,0577454448221682
0,0557964183205633
0,0536868686437035
0,0549071365902383
0,0530228100068912
0,0565689878938953
0,0562986523466321
0,0536901885212115
0,0494626271595049
0,0493140428154848
0,051683850849123
0,0521739167329168
0,055306405377837
0,04935556236058
0,0507081948730891
0,0547256308501783
0,0540161843882443
0,054515360781677
0,0492620430160889
0,0496632167181277
0,0499358492883474
0,0473262505153439
0,0477034019043592
0,0502442251692975
0,0501672320373198
0,0504649645154241
0,0473221378837468
0,0448735801290785
0,0421556005469327
0,045650916208226
0,0515516649760308
0,0522907851434539
0,0470088736358068
0,0449481179641147
0,0423302982317129
0,0428053298823535
0,0452892186971982
0,0440544732267874
0,0450827796358016
0,0476963569484483
0,0429796881822865
0,0422584158839283
0,038064618677271
0,0377739724560941
0,0413141907772576
0,0438483856868847
0,0415831411724741
0,0460046458497015
0,0458565710108937
0,0451411793870207
0,0474645392875604
0,0457548649085055
0,0451485467968848
0,0451096912164547
0,0385764470533138
0,0451495638458873
0,0517050982293459
0,0461617081266558
0,0444692101705643
0,045337263387759
0,043985370013636
0,0422956001031606
0,0474886468413378
0,0468047096273952
0,0422407459836487
0,0468382292767554
0,0470725673238205
0,059874806606231
0,0510689229482702
0,0472129419688502
0,0523277523035732
0,0492484905757483
0,0555991297840087
0,054255373505159
0,0494395427049731
0,0570039958918059
0,062623177701754
0,0614339535973696
0,0678832613483589
0,0660534830482034
0,0578351941163019
0,0640820479309621
0,0709636929067513
0,0707082764980729
0,072778378789054
0,0776369079527893
0,0753750892262006
0,0818270435905004
0,0831628652254637
0,0870122006355377
0,0891124988123613
0,0859112323280518
0,0886177089243493
0,0821977686394998
0,0832088957186143
0,0754128015307096
0,0659746151640051
0,0879612956824907
0,085176449811819
0,0825528624533664
0,0875842617158437
0,0815771193954083
0,0856708911141612
0,0832553721753062
0,0872471100295865
0,0794468121664675
0,0820796370028255
0,0851685067063602
0,0739108912675773
0,0758416980566699
0,0735638378279887
0,0797868686344066
0,0753808291350276
0,0682635408821775
0,0759368624349571
0,0754407890396243
0,070594319059918
0,078691776726315
0,079539386506968
0,0734167828310667
0,0546446630674791
0,0694317765639205
0,0711719507818388
0,0659048486030759
0,0681855720187996
0,0688063661556548
0,0734543786038479
0,0788695347780638
0,0789926490916457
0,0675933417890163
0,0737068995369878
0,0709153484157439
0,072818897819791
0,0648165333405663
0,0618413780553569
0,0621345428571427
0,0716722355399864
0,0833031981080023
0,084865411698154
0,0702555310512701
0,0665319253565303
0,0767752359413382
0,0766647679715823
0,0636990303235005
0,071845933870375
0,0845450637145187
0,0814700781498689
0,0623250730758092
0,0764089540804447
0,0675901332199301
0,0655626197176969
0,0746618529295652
0,090839416603499
0,0891881395005631
0,076805479599984
0,0963577266043469
0,0943484717623323
0,0699943377872751
0,0628594554626552
0,0851850826090998
0,0905255330407102
0,0725104953885426
0,0542372823029229
0,0832138632890577
0,0658443850230543
0,0885208961718158
0,104250325453243
0,0748551560962333
0,080835749910775
0,108359479663165
0,0833850881287226
0,0992060001092963
0,0972672242478994
0,101965896023975
0,119447241041704
0,10503944921316
0,110646528401369
0,102055527393935
0,110153843768745
0,100762112319195
0,100803966027508
0,0956254252890449
0,0857889953480179
0,0952189630415357
0,101642554122556
0,101107374753453
0,0896320366678151
0,112748497185643
0,115702174485214
0,105835302596929
0,109020147803753
0,116152784457726
0,131101817165295
0,0963604869119035
0,102821161176329
0,0882745995422218
0,059284877940066
0,0741789847699759
0,119180536769223
0,102931305254847
0,115577635678355
0,111045088419013
0,0740255819832782
0,106195865949046
0,124099453552811
0,103530265441271
0,0918949271866061
0,0907297106225319
0,113647012554989
0,112632847821216
0,151505454741548
0,0592296362176332
0,0688632790064092
0,0993184083764193
0,125815291509588
0,0676359944434162
0,119981766029224
0,123295772028175
0,08796678384015
0,0970547132494853
0,150822905928788
0,0629632197250046
0,0228405117744547
0,181859450766096
0,170431018475306
0,0514014848926081
0,00495564861526477
0,14875472036181
0,105463417738733
0,0165157863705438
0,120750759947944
0,0740883462367017
0,142834836311063
0,112384228376062
0,0855505203523425
0,136522169116642
0,116411005662663
