3596
4000,36533379555
650,420452594757
1
2
2
0,00547621145915765
0,0126238511036947
0,0134098972177781
0,00898508124635061
0,00909204786144725
0,0118850297160736
0,00473727490267201
0,0115677225072641
0,00969461539923788
0,0162138288823685
0,0158977184497973
0,0195816028177668
0,0074092336879356
0,0150049834832075
0,00727155937104335
0,0183056155946528
0,00972747553682527
0,0104990896364918
0,004976880722165
0,0186488839100871
0,0143419341882261
0,0183670021992492
0,00377188302598785
0,00766653110148823
0,00715505748976747
0,0123510539085791
-0,00302300333437304
0,0117457339161634
0,0159004692969175
0,0137174494140355
0,0142177219639814
0,0175997329217092
0,0129683322243713
0,0163546627314414
0,00360551701666924
0,0128470637277814
0,0157193771727169
0,0165236027885929
0,00508656223544725
0,0169668585426197
0,016277961150042
0,0214849025675677
0,0120712426826126
0,0179189491248214
0,00792524896009434
0,0132346797854236
0,0153086125446967
0,020263879695029
0,00806135687942078
0,0145652676438432
0,00503459823287536
0,0138168717193855
0,0158972526268799
0,0104992430378237
0,00708611095489669
0,0249171263173459
0,00738229801697799
0,0141454528589645
0,0044965557953549
0,0130163814665645
0,0158000114300506
0,0136704187970163
0,00811047653577089
0,0041369884221958
0,00297415486044685
0,0205936341694277
0,00302896346837914
0,0155297711862314
0,00232899863498989
0,0133536309324711
0,00288127905375595
0,0201931380380945
0,000770552621766846
0,0180115165409405
0,00623630133658454
0,0194790855954888
0,0059017421119575
0,0186538842876413
0,00993250374411475
0,0174370625238433
0,00643273744434624
0,00827427759112679
0,00284410269928745
0,0123486677115883
0,0165978465025918
0,0134520361569746
-0,000362710576087603
0,0216381178983649
0,00774543780396217
0,0211603112344835
0,00175288544541522
0,0178661135073782
0,00580144432026228
0,0168957685929719
0,00176374967136697
0,0221195278214761
0,000345096668647012
0,0179250733490557
-0,00495431948333744
0,0269616769494975
0,000743288567743593
0,0324724008952828
-0,000308331564100297
-0,000714814917730066
0,0400569007209079
9,23271713213434E-05
0,0160571739149322
0,0113306876699523
0,0123288542683111
0,0201873470350117
0,00985488796226559
0,0178087303894984
0,0044712930108371
0,0241603305692929
-0,00508515266046035
0,0371175475925931
0,00256917030578624
0,017564834053867
0,00193292064721012
0,0268109379914589
0,000266214177552826
0,0467014343826132
0,00510371466089554
0,0182199869809516
0,00921353687454258
0,0116368374872593
-0,00596473986923524
0,0221566642184611
-8,39201480600646E-05
0,0131705210378664
0,00347350938414664
0,0160929203005385
-0,00365392426724183
0,00172486439993872
0,00750422618878838
0,00599440532107573
0,0190119111445594
0,0120084006035369
0,0184432463289171
0,0246691207792741
0,00900221263899954
0,0160562206155749
0,0125014665079815
0,0180528308492398
-0,00785713831068249
0,0157796189121135
0,00322349413722194
0,0196430723368043
0,000231151761772614
0,0177294848798498
0,00838663656923921
0,0090446687429305
0,0143459376196675
0,0185276233461479
-0,010405711090594
0,0709710969529894
-0,00420810803547249
0,0252605534480451
0,0197470241644809
0,00159385579670882
0,0105417061365478
0,00387803323100683
0,0189585952965209
0,00300063935853307
0,0140664453069325
0,00596980257065887
0,0183354894449243
0,0115310354014806
0,0119517134160565
0,0102997396118674
0,00695838055485655
0,0154224591301508
-0,00123960969694082
0,0453411354830762
0,00535046443343775
0,026115006936201
0,0114571861138312
0,0158668729422965
0,000490000097542767
0,0210799102647926
0,00497478108071527
0,0145425050847302
0,0112338517154675
0,0125309505747882
0,00400236678441345
0,0179783888603347
0,000913638707678348
0,00959046724953211
0,00585124665189786
0,00730302567054301
5,14623593409675E-05
0,0165073983467769
0,00549168609187765
0,0100406503917275
0,011656977258573
0,000488036310500603
0,0279668372643866
0,0111544449051644
0,00661207767360178
0,00718962036354231
0,0101276841993614
0,014977614753702
0,0048645487967811
0,0178659491720677
0,0136772259839167
0,016176339364109
0,0251152290143461
-0,000563181752047527
0,00819399300305223
0,00658986940621972
0,00655261421758672
0,0068807341161526
0,0475099514232527
0,00711996178560953
0,00505341436953985
0,0115865590224895
0,00715331137275133
0,0142158629223062
0,00627404271976678
0,00563991657326346
0,00138927081710285
0,00770356498338604
0,00787017136494
0,0113232439542278
0,00461756164609995
0,0094057372605799
-0,000425309653259805
0,00450575483591531
0,00796692597569381
0,0213196392346771
0,0162072286330111
0,00979525000581724
0,0119031020318067
0,0216260889217473
0,00286876817163462
0,0156000980567716
0,0184834062609313
0,00951781193071512
0,00932470879893129
0,00879881098632334
0,00512079029602085
0,0123515675221841
0,0116580907825093
0,00851798404289753
0,00590154870283659
-0,000186654090429529
0,02652035955016
0,00904277880344415
0,0159933630900981
-0,00938985594081912
0,0303780020834136
0,00665431918602841
0,0148825281227051
0,00290580135240602
0,0127235821560641
0,00935614295796136
0,0112578521530419
0,0131307071732054
0,00701609346039615
0,00649687475284736
0,0194442788751085
0,0127572201642085
0,013105384332901
0,0174942520920847
-0,00918463471514715
0,0444791420757593
-0,000755398508525442
0,0155303526485649
0,0344698452466475
0,00810005634834975
0,0180757858007853
0,0128122715099556
0,00334505905277521
0,0523786874278763
-0,000127370072570029
0,012224190499813
0,004609107162056
0,0220463415129316
0,00209328665490295
0,0305091983306489
-1,98128377239111E-05
0,0108124034763941
0,00380733641095837
0,00497737109226106
0,0354549981549863
-0,00676514943929883
0,0368427715086857
0,0108528388669947
0,00857492066167393
0,00754341122927806
0,012916966919957
0,0110937173849853
0,0212580833352055
0,0134813864634514
0,0195620758289367
0,0141457507916273
0,00324647188650762
0,0266933136605534
0,00376450292935153
0,0166535978071717
0,0114825887855851
0,0147891225710777
-0,00205447055709939
0,0197605475898603
0,00411636672728734
0,026547458932107
0,00892946788708632
0,0160192830381539
0,0242603914217378
0,0116852387393461
0,0100059190440955
0,0262471710089679
0,00389910068601971
0,0123039503658476
0,00517820454159372
0,016892736691881
0,00718545836061236
0,024244171542936
0,00113157399227045
0,022952011779667
0,00785397884453765
0,02603055540064
0,00966949277731621
0,0139211013605604
0,00306102446230539
0,0178273581392519
0,00930169709845545
0,0149214510583373
0,0126038755052018
0,012861647641799
0,0171571506561233
0,0318391682638715
-0,00895390365002645
0,0484380409967073
0,00931027893960387
0,0150672873793378
0,0145863872902585
0,0168106260517512
0,0128823301954051
0,0234222451473152
0,0211619076328012
0,0170870101909162
0,00937192268688513
0,0163477705883523
0,0149647236383963
0,0155320577626547
0,017457892485879
0,00900854168211159
0,0320412531705158
0,012594039902957
0,0294143840819092
0,0106964236656178
0,0237568526552991
0,0150727343106059
0,0203582836394387
0,0333678019403324
0,00600823340655905
0,0318166964114868
0,00807075630871265
0,027297551240799
0,00715630921434861
0,0294746478716038
0,0127540964164344
0,0243688478835428
0,0144758649684497
0,0321395099143949
0,0221332444371309
0,0297614401580926
0,0333016668714523
0,028629999037721
0,0209744420675113
0,0345630603996602
0,0149207471654613
0,0408897174204555
0,0220884702071987
0,0473321001007041
0,0276310548242237
0,0295474742581159
0,0287788092946951
0,0189147305504123
0,0361533761098183
0,0260347008507121
0,0352405776633569
0,0281770348243193
0,0329249092554684
0,0372039665466894
0,0328322850775693
0,0335151391406873
0,0380973893085556
0,0312016997798553
0,0388268260501443
0,034855729447944
0,0529651598908145
0,0348960855532416
0,0452431278770581
0,032858731418924
0,0478233164520165
0,0427262738646895
0,0503226899348891
0,0424322272197478
0,0475786639603053
0,0438578098540077
0,0379126007665549
0,0539523904025027
0,0362365584687728
0,0505796051441435
0,038573307035803
0,0631437335452906
0,0475283963699559
0,0559489582310258
0,0557550923641023
0,0435967034582343
0,0586050678851815
0,0631723812768707
0,0579468239700686
0,0702207734115909
0,0548421688817997
0,056035086737248
0,0476775917991256
0,0696358774066625
0,0496553954222134
0,0833989913976616
0,0520201286180468
0,0694185640552253
0,0606309807954081
0,0745693542513204
0,0540238221767853
0,0787735603370277
0,0754513385112306
0,079888229699859
0,0737200751454816
0,0803108063761823
0,0715136503624644
0,0897072964928594
0,0721755771028944
0,0809109002703915
0,0796955335486318
0,0812109592768464
0,0800324457082682
0,0757957268042
0,0839928812010016
0,0960602255731212
0,0793219457194099
0,11560720430193
0,0897331485620918
0,0857984993284182
0,0902384700336508
0,106042007578894
0,0897459298988729
0,111189944918964
0,0898195164327126
0,114805443356643
0,096361997961156
0,105194518766773
0,101599817065694
0,112047941942964
0,0969789209060933
0,122688411043983
0,112714200099434
0,106740835933184
0,108468448994665
0,119245938268849
0,123611638812281
0,134584197503257
0,119303113836519
0,148511846133214
0,103727663678729
0,139684400732459
0,116924637892468
0,141560104183276
0,128796521066045
0,148529442595063
0,125873125931431
0,146239924642882
0,145070613674264
0,152712629690057
0,136933100500053
0,160582119320467
0,142940207931691
0,165228514371102
0,150051506383762
0,157619017531291
0,142357502031767
0,172330668663595
0,153128221100294
0,16849823857369
0,148840477925066
0,177858474800714
0,157145790065647
0,178544262201393
0,166044946182863
0,177084992250189
0,174700115101711
0,17865991418401
0,177070999178807
0,188541868287674
0,173904098301935
0,189673739699399
0,178489557835024
0,19519411732567
0,192406707264735
0,1956713699531
0,18817911133926
0,210033940403609
0,199852664754054
0,207931803452521
0,201247200169863
0,213829889465719
0,198583575553148
0,230725626318079
0,201369318498962
0,230457716104509
0,205497351025228
0,233465361610874
0,212259426432474
0,225921857500992
0,216291292331037
0,236472093477252
0,223092386857205
0,243292787901483
0,235184266581737
0,248192177868406
0,227543561754391
0,250059889464709
0,237878273012899
0,266685221659433
0,246399485068115
0,247230343461031
0,245817761571908
0,263975142894532
0,248043130540213
0,266589521080181
0,25372831297154
0,273697226343095
0,262689417704682
0,287666622449273
0,27300983350124
0,275978550324934
0,28371572345998
0,306208607375327
0,284717250669407
0,304500896639317
0,288796078949198
0,292563399399008
0,279183005810142
0,301381510797206
0,285901708651799
0,305888013855456
0,305917274169303
0,297791235428647
0,296244261021981
0,321820218901811
0,296695997361697
0,321607447084224
0,318057219163387
0,326500858640687
0,303814186136611
0,336281587653833
0,315899572917977
0,327018273502246
0,3181483854298
0,334885644321094
0,333194213528693
0,347673545657572
0,330784470526372
0,360529604444582
0,320508723096898
0,344248507071663
0,345647160304358
0,350415073156912
0,3623388893289
0,373469024722061
0,360038480484582
0,365972129549451
0,345251948994925
0,374724751663875
0,359646438624816
0,37437990311844
0,364601539743498
0,375878972574559
0,380063209551289
0,387013163479581
0,379886736120589
0,394787702750593
0,385974159594112
0,398273524271625
0,384529530482127
0,394928856125209
0,376250676958475
0,395792771878804
0,392039725161627
0,410986228829125
0,381316863362061
0,419520094772452
0,397171101963766
0,419820614906102
0,408040991404825
0,427435300247403
0,396674484805763
0,415871076724576
0,400396363654736
0,41608880500339
0,417058206621642
0,421700104064867
0,418833954059733
0,422112252898259
0,420569041627367
0,433374302837197
0,422992046428438
0,442811897518367
0,434256875419766
0,44347019649637
0,442318752112909
0,447451859370105
0,438139499605688
0,459096928306687
0,445551284358503
0,472610821729856
0,460681131258401
0,462631788289008
0,442051210335212
0,480342874619083
0,449790338343153
0,466428180364496
0,465668149323632
0,472803035597234
0,459872315779142
0,463541681504689
0,438342036706711
0,461644153187117
0,462825828112733
0,471880149207588
0,469156292174017
0,484391697682223
0,468573506057951
0,481216075144305
0,464597557772749
0,476445845853481
0,482209887132015
0,478714535053898
0,462384489092772
0,47614655071381
0,481832380232348
0,497136725481897
0,487055565520587
0,51088790175092
0,494466118437155
0,501368153507759
0,490157376529489
0,506520338158414
0,493865046039171
0,497402089865156
0,494649192422186
0,50615139840871
0,500695361127882
0,500186304162079
0,497008826946433
0,514547233062362
0,517901490265608
0,525295728668378
0,493699449564563
0,522632137259977
0,501783005031593
0,507968536066579
0,50879937443288
0,513633019546676
0,504272768190876
0,511898540127347
0,503477335498578
0,521989888584498
0,516974414771393
0,515556283856551
0,49453550773901
0,503246634007827
0,52458991866194
0,527080994148006
0,502920086528875
0,533240208953034
0,526676970965306
0,536738676609138
0,524898373448596
0,522452825077276
0,513601339458207
0,533301715358628
0,509649587231009
0,523679755656475
0,52451305021425
0,535937758450338
0,533704258146592
0,536566146624891
0,520223191874608
0,530997436319672
0,513696671938844
0,5358447927806
0,532760745483512
0,527493634406889
0,52479170522883
0,541958161914675
0,525637486524824
0,5283872774758
0,527610995563537
0,540527179067205
0,521005319472435
0,543740405417891
0,527833157416562
0,536604525674072
0,511926931559502
0,523839890040812
0,514156781806535
0,546444742170631
0,518547307912058
0,539919284448006
0,538393098629207
0,527026722497891
0,519090820143235
0,517711873944787
0,523569449766033
0,533429683346124
0,515322785456913
0,518625976193249
0,515186227609588
0,519578795786723
0,528494323765094
0,531759436836078
0,518338441843295
0,52195168589902
0,51184792578589
0,521944842204463
0,522986803789607
0,526640203350829
0,522532676500901
0,537202582251204
0,515177903923107
0,521974729420226
0,509326886635661
0,511781512156565
0,519157551939454
0,523715043293057
0,515809559673571
0,514429400493891
0,508258728243339
0,502505709694723
0,492637966393564
0,509488057975395
0,512288240566726
0,516842245917009
0,50323074987731
0,512910909048485
0,520427135200188
0,520644419670357
0,511311068562489
0,514165413692328
0,519543564096959
0,508849778542882
0,504796294439195
0,506572042137331
0,502890113346449
0,512299917969047
0,50187988188986
0,514041311817004
0,506240687973927
0,505413375514909
0,497259359170397
0,521127026909975
0,515675275751933
0,518083141135061
0,493783421349476
0,501872139449792
0,485637272348445
0,483945132887909
0,49251301588812
0,488871979960063
0,490451335848839
0,496792826868663
0,482214270084243
0,489184675848431
0,481766022177315
0,479172600397063
0,488506996866265
0,497194262027795
0,467598955545214
0,488324769465702
0,488404151486321
0,479292390782832
0,485462014766516
0,475935246625457
0,466355957762119
0,477620641434483
0,472841533159618
0,476584758946832
0,477454844332119
0,476388986584762
0,463482699231125
0,466982451614183
0,470770831070774
0,459013613556194
0,452888870067326
0,455912575755178
0,456759299631362
0,480194537031146
0,47095079866141
0,458183807266838
0,454795202862212
0,452585534463083
0,452205159533083
0,444839875756254
0,445299769068986
0,449368349552089
0,439845382836661
0,446987782719383
0,45087517112944
0,44980647552322
0,446016875899049
0,439095313943316
0,440723037417259
0,44573090655634
0,44101708421473
0,443163132128873
0,426618632842188
0,434677194889355
0,422283707523564
0,429741372486966
0,421450075938529
0,43564270339171
0,422610841405205
0,413754219241984
0,419534472424425
0,429713351116384
0,422229962776106
0,420055225125239
0,422321236403492
0,415443738819316
0,410800917665633
0,411128337937679
0,405201866223965
0,410066320026979
0,401305484688951
0,402205165261209
0,4010006479392
0,396503950911029
0,404468667566727
0,401024466795181
0,399964823219541
0,409798992644469
0,394052181736103
0,398025573356333
0,393943795766589
0,388875104722477
0,390277066818173
0,382918616571951
0,383006809394334
0,383176495150585
0,380750413216385
0,3894457781192
0,383743970910513
0,380985736475925
0,379353621939902
0,373776173919039
0,364648450007095
0,364977163169438
0,37051548878561
0,365963593839783
0,36315667212844
0,363916917645173
0,35936256044508
0,363829949847884
0,354151369247903
0,352559446579984
0,347505431175456
0,357041137693384
0,34417237355375
0,347825495079937
0,346775340225579
0,349122166741362
0,344038102054598
0,347444710643061
0,341469127892708
0,345636601331487
0,330596189430338
0,333582643019654
0,333593970196794
0,340829804554781
0,329018224274372
0,329218186268101
0,327736143506395
0,322946552335229
0,319450529963498
0,321001910630667
0,312778098651964
0,323510495801868
0,316648031678451
0,313839388456378
0,313058696479543
0,310096973356553
0,309152041075564
0,308914909321138
0,298357202286288
0,294918917609833
0,299209956677882
0,30167072155929
0,303205415578391
0,298708199817501
0,295368743758852
0,295678846195978
0,294968713313769
0,292973106209507
0,283050911369224
0,290898254573654
0,284005496728182
0,280477022189867
0,278571086014666
0,281763623590755
0,2815360103976
0,280089261339189
0,278379992837857
0,274239414748654
0,27499829697991
0,277768264230746
0,273191059909928
0,267449231594949
0,260325746742046
0,264435792785514
0,263989702930741
0,268762195634178
0,253699354726705
0,253568693314061
0,253486743218992
0,259498499919778
0,256243103672419
0,251189561023484
0,251760723555292
0,246688166380015
0,246801276986403
0,247292613058462
0,242101508232363
0,244209412306991
0,236272358461713
0,246337172626916
0,23762605654551
0,23819985263958
0,235840602530739
0,230280021873626
0,230910878338912
0,23242277581785
0,229801405155002
0,22813133400303
0,22611886021867
0,222710719312265
0,221363193118788
0,228456212880252
0,222506813044347
0,217884542823646
0,214697388186955
0,218576574356933
0,219902235599935
0,213923040153399
0,210379428761168
0,217449634161283
0,210130757426213
0,213524356559368
0,204058854812064
0,210675795953725
0,201407424567396
0,206082198861436
0,201815827634279
0,204768542059538
0,198395679863309
0,200660464462968
0,200089153367585
0,198095211675866
0,197426803366876
0,200735584785657
0,191892003622539
0,19588833246667
0,192341088183323
0,189589825161579
0,188725159533349
0,188065648454945
0,181775285146225
0,185628663226224
0,185321049797871
0,189654852072291
0,184260586124319
0,179255096168904
0,175707477968926
0,177032358125135
0,179400618602695
0,181423328519291
0,176702349560463
0,175606787529382
0,172636378129464
0,174062419873051
0,172534553788359
0,170567861176196
0,165174043928792
0,16735028985677
0,170170100066316
0,173687348543545
0,169022838239091
0,160582263067494
0,164856880217024
0,169109807119888
0,160401361137718
0,160721385101064
0,161373630682913
0,163075700308928
0,161609907894312
0,160522496273767
0,152803558876862
0,154842900757102
0,151098929683429
0,152178324323989
0,158972909871678
0,152780172896343
0,154661622650676
0,148189101847937
0,144394504053283
0,150239322134776
0,147443790295826
0,151182527593177
0,146719943432538
0,146900966676336
0,141519135177817
0,146491405367973
0,138734146168689
0,143380681451174
0,145510671033109
0,139283656858964
0,140128075595691
0,13981891922085
0,13722981609211
0,137113144861384
0,137817470092627
0,13319951558417
0,130726477962809
0,133372204745502
0,127586794691433
0,13306977183304
0,126763168338314
0,12781842119561
0,125692412626489
0,128088779778958
0,127132778500553
0,129022286431271
0,131004593739807
0,125157637913838
0,122759242003165
0,126223876061527
0,128333931035562
0,124711327236526
0,116694043148819
0,121941133684602
0,121805056609844
0,121143944506976
0,115442416589069
0,116551283070768
0,117696169579092
0,120113974073236
0,118104202327452
0,118360949989368
0,116132871924845
0,118540154475768
0,118913412269966
0,117956473674347
0,119306544176604
0,115598937920715
0,115553825175284
0,121188719124298
0,10907155070233
0,114416931890181
0,114432106289091
0,108268109044018
0,110580002880023
0,1098246538556
0,107903978759665
0,115253971853455
0,113395996612148
0,113351975163183
0,110947023660169
0,11213524571486
0,108815932422863
0,116380799443776
0,114813333158383
0,115343947696789
0,109969599139059
0,111434826503414
0,111772912937287
0,109224628718264
0,110522433153016
0,113895290880001
0,115917265059159
0,119988961157247
0,116942646541179
0,116906762234181
0,116796810375373
0,115443003070529
0,120407298831537
0,118702128692128
0,116101287006231
0,118328731601584
0,123643115114252
0,126546337450624
0,125096002821839
0,123628444016086
0,121767116050657
0,119812257189648
0,122617426956108
0,123088748365011
0,124659726568069
0,126284420473158
0,127328018092687
0,130522360293503
0,12958414460477
0,132180014751807
0,128774310699545
0,135541495161965
0,12956494672441
0,13265653682759
0,131979653538696
0,133303629918203
0,137411297601749
0,143223547915612
0,13837306433182
0,142395817982677
0,137641992220209
0,142618766600387
0,146486483042474
0,145974183795883
0,146034839063244
0,147854035592297
0,14742748075807
0,147459706320497
0,147939090234413
0,153354038414212
0,151763655563998
0,1567648884832
0,158022129556803
0,157460673165793
0,160299293879878
0,153955021345002
0,159232264163114
0,161731517510598
0,162538651704092
0,159833780488635
0,161460151741194
0,166851862019038
0,163757443650108
0,161407218805081
0,166326431431432
0,16594435837436
0,166164507858954
0,163556813179419
0,162985856695157
0,173453505470255
0,17189938312247
0,16831365724865
0,161755173994396
0,161508617272198
0,162841126408909
0,161626487158341
0,164530852035876
0,160302372523169
0,16523199515612
0,166328986655654
0,162891332270976
0,164300731727153
0,164653797583356
0,166107918230792
0,163411291652395
0,16578372227339
0,171150752463285
0,158966097235255
0,162465889059416
0,16336600091122
0,161372085289729
0,165690283897284
0,162357968458966
0,168114663715081
0,166702180080034
0,164527767388487
0,164511073046678
0,16316071086923
0,163192931107976
0,159748779611966
0,16312818016238
0,161922989667099
0,160086559934577
0,16800398925543
0,170512490330045
0,167077544829802
0,164471725551053
0,162350228958112
0,164026666890346
0,169524125398074
0,161516507314043
0,165651382647892
0,168481338702924
0,1619692439208
0,160265093591704
0,164114425382733
0,159630748928813
0,160906746545159
0,160903258608565
0,160581546461511
0,158175811767531
0,161335837616038
0,15696711060974
0,1550285869144
0,153644592949732
0,154741616434338
0,152641754998398
0,153359320149494
0,153013561825191
0,148839337316894
0,150193583386214
0,15074603158588
0,149812508498466
0,150098853188064
0,147366992567061
0,146216125436402
0,139408304683831
0,138303537110412
0,138887673240368
0,138716007324214
0,138479481619427
0,138010536992092
0,128971426849574
0,129978067100817
0,136872709384377
0,131860440773428
0,126056651113809
0,126646447517701
0,122533282902643
0,12569989108342
0,128455373202603
0,123587251484262
0,119734707787676
0,121777581425224
0,122433681280777
0,124989054587575
0,119889000367541
0,117271201822707
0,114330673686451
0,11524421656612
0,115166761773682
0,120370566263876
0,111436451019747
0,111150308724374
0,106439418758119
0,109622023929442
0,112160871933112
0,105302792200708
0,10824305077267
0,105363571855326
0,110836637589446
0,107625338696186
0,102295942656263
0,108255754413011
0,106088637187122
0,101150147463117
0,101694023667608
0,0972446182536032
0,097183187099632
0,101624708099249
0,100559971850393
0,100550584850906
0,1006051938977
0,0962269548834081
0,100669751679292
0,095517705180063
0,100157730802344
0,0973703145911976
0,0914868824128729
0,0892885669518681
0,0939953345752021
0,0908648953590923
0,0930313332526483
0,0940092413115934
0,0934043745923195
0,0948718251212942
0,0938913673474727
0,0913972680908506
0,0908839685771494
0,0901595996483802
0,0900656611458558
0,0827330278559748
0,086851619647279
0,0893034476991411
0,0887538629005977
0,0890378540283186
0,0919095999307399
0,0878808848386953
0,0841348780332555
0,0874003366848934
0,0865681365555859
0,0859919701825315
0,0834522722973047
0,0845907035834581
0,0868812572003525
0,0861668727599569
0,0840447766829205
0,0825876338605713
0,0821662729106113
0,0838841827030666
0,0839074451786711
0,0821211019597243
0,0833466813737357
0,0851423093169487
0,0804818479596937
0,0794727826153107
0,0812273126735476
0,0808253964105674
0,078201123888753
0,0827207633898508
0,0849218964757248
0,0782492617673265
0,0767253461562941
0,0742582113612362
0,0787234737108556
0,0749044724041418
0,0788601054711726
0,0784905263868834
0,0742099248311991
0,0719660252175513
0,0740146811638751
0,0764037882829598
0,078041522527833
0,0775039483108314
0,0788230845950593
0,0758505414966867
0,0753606447371984
0,0734500241633942
0,076856787960378
0,0713992707311567
0,0742720171264958
0,076151713449998
0,0722953590037829
0,071018593974273
0,0723176975785411
0,0738136612394833
0,0720697556783388
0,0759022103394315
0,074302286545239
0,0735546199933436
0,0737632824732054
0,0694351106704293
0,0708151571604177
0,0734584709088751
0,0715612221772952
0,0690684684766669
0,0747552696829801
0,0709335429463306
0,074985828797028
0,074947694755006
0,0749955631167389
0,0697878004015486
0,0709019690179154
0,0692582308558119
0,0702977170950899
0,0681400597324981
0,0672993309043998
0,0736985110305223
0,0711164781307325
0,0731439836615316
0,0699223926101611
0,0668796828429806
0,072546175825926
0,0692121516050728
0,0717882752297241
0,0671486576884305
0,0708695549787266
0,0699520430600024
0,066790026749552
0,0683003329432858
0,0678570651142675
0,0688185412294476
0,0666026884507997
0,0709982821133922
0,0707040974747419
0,0678446965411613
0,0726013566308667
0,0696905688835083
0,0645052849296754
0,0677666233263677
0,0671837723422812
0,0634184923371317
0,068367898251905
0,0642968805539327
0,0680879103362347
0,065572983925471
0,0671262794377637
0,0630146413535875
0,0625678801346075
0,0642069823206289
0,0627523850584975
0,0632707587170113
0,0647352696367669
0,0653813717729
0,0676670171125076
0,0643758420143889
0,0641579141706386
0,0650017981468612
0,0642894354469838
0,0646391917580129
0,0625068186825562
0,0619105279626325
0,0648575102804648
0,0614569467088633
0,0588647145184077
0,0613130223468671
0,0616701373898159
0,0618298878204606
0,0602469868078376
0,0599662789677395
0,0649700941443772
0,057694846295684
0,0639799549469329
0,0625396774718293
0,0595188231079628
0,0623700632140313
0,0596668535585203
0,0597305467528367
0,0627576757196541
0,0589968573460538
0,0566478398915507
0,0581226727830391
0,058303507580068
0,0585299609838049
0,059323072303241
0,0575175260254098
0,059323436649524
0,0563944919751014
0,0583806930601472
0,0600325789874165
0,0582348671483802
0,0548725938472923
0,0556744383329668
0,0570316916367402
0,0528534855926181
0,0518594691786724
0,0552811777940697
0,05465125489606
0,0545156331074882
0,0527313778124077
0,0521288404179827
0,052820687633454
0,0542520533400614
0,0538671922169836
0,0558538342448466
0,05495153317752
0,0500053131529354
0,052966940773821
0,0526158582348154
0,0516709403041102
0,0531782800024185
0,0496561399094924
0,049646779063955
0,0516441032080659
0,0515414658858856
0,0462943227864739
0,048101001949236
0,0493153249241219
0,0470091058508082
0,0472441775291893
0,0492573101201134
0,0487839249010434
0,0456142263341619
0,0473945526360796
0,0485232554797133
0,0476579528327184
0,05196225658801
0,0481604230225899
0,0459321716898195
0,0488554461874623
0,0462974544197327
0,0480912991737418
0,0446880898257132
0,0457207731163321
0,0491789814422696
0,045763893795484
0,0458699110889414
0,0444463142689151
0,0454289052591831
0,0450392571265761
0,0422976405923133
0,0432569238850303
0,0474635761520604
0,0420213658292322
0,0480478927149675
0,046348310757918
0,0435983567132761
0,0460595032526947
0,0415605015380805
0,0438576380190387
0,0445360208645274
0,0405426458511407
0,0434077501555497
0,0395512179409999
0,0435713284567819
0,0438619016495645
0,0407319415655753
0,04264742707105
0,0410789999426103
0,0398017288733261
0,0422914307813541
0,0397072053159788
0,0426775246144466
0,0420767298522078
0,0389132858670883
0,0419345080223733
0,0403429939392391
0,0399857233553806
0,0436446296686119
0,0394880526012314
0,0414086279221103
0,0383994531178163
0,0411267766423105
0,0409949204673222
0,0397074006582601
0,0401067638235318
0,04040951736049
0,0383830023495761
0,0374393428298807
0,0364973709936018
0,0400132675316101
0,0387141247839137
0,0374058946733905
0,0393050161021921
0,0361625446766105
0,0357878946179344
0,0368039046148527
0,0358467444750227
0,0370937686238727
0,0360608229626163
0,040367788080107
0,0374965972371788
0,0359702573675752
0,0384654103239107
0,0382990319894237
0,0370056221586457
0,0353710127623841
0,0374025078764227
0,0365642334366234
0,0364980052760421
0,0371909408093034
0,0384559373380967
0,0359479378686777
0,0361251244222905
0,0369108722246743
0,0363118582390541
0,037864308726992
0,0360121836290185
0,0351475624205501
0,0364427869444153
0,0372321392955937
0,0353169276296799
0,0367120229288107
0,0361643521249525
0,036518360469534
0,0338543086880415
0,0347633557480362
0,0339286903934019
0,0347130464056794
0,0350181767574644
0,0360267806938271
0,034282829010283
0,0358575137344321
0,0367473054643304
0,0336054728219983
0,0340280148405575
0,0371135322520938
0,0307766133140372
0,0360130126136359
0,0344121697320751
0,0338215598698917
0,0352251160807363
0,0346592887029994
0,0335038477100453
0,03034422023687
0,0323088103669032
0,0343916049335938
0,0330939495673616
0,0339065373700109
0,0335073084156743
0,0346862449689343
0,0297360346723727
0,0333498974897877
0,0326581572642181
0,0342203485963008
0,0342049981175983
0,0325495217336674
0,033051507825972
0,0291798832317909
0,0319577618441093
0,0331161928126643
0,0331490215322009
0,0335378962039188
0,0359571457461281
0,033530167288624
0,0323877966296572
0,0304351154427173
0,0349523735507888
0,0310980129317133
0,0326303822307651
0,0311406683516916
0,0306993626947955
0,0337554884503705
0,0322433617002422
0,0325856494541797
0,0324216690528964
0,0328757684678928
0,0319512949670796
0,0314004554299481
0,0321774216171654
0,0287342419647554
0,0280498554265696
0,0326176254943009
0,0306009875635451
0,0320910740783931
0,0318749209209248
0,032452568606279
0,0322882728819798
0,0315872915790399
0,0288378792292401
0,0300278289017002
0,0277184429379017
0,0307010180751547
0,0284016722194873
0,0280458135219234
0,0294180836729111
0,0272893563107484
0,0304661134028292
0,029053400394643
0,0276731024938424
0,0307812106715489
0,0273684680118993
0,0312850484130428
0,0293619084321628
0,0273408799570928
0,0281088848148371
0,0298764777448933
0,0269094553238838
0,0278556405455954
0,0276858855138113
0,0276853651567902
0,0287457226981502
0,0280467362016041
0,0271784461351485
0,0253058464619147
0,0264441494435724
0,0278576910562042
0,0274685628612935
0,0252943197968288
0,027521797098009
0,0276024366543412
0,0234482736718406
0,0284281317030405
0,0234882036493897
0,0239449866781731
0,0271155183175383
0,0259417938472999
0,0257392390172
0,0250558504985568
0,0263793799962014
0,0247293446849304
0,0237352482788781
0,0263695612218662
0,0241927964808828
0,0270063185426663
0,0254958586444187
0,0265134138263816
0,0253437963452991
0,0234504723486971
0,0242609827931979
0,0244919090617227
0,0254165203918519
0,0246571606500005
0,02403008015882
0,0242689399698336
0,026251203036601
0,0251545305325888
0,0232297281376525
0,0242804064202412
0,0242017388139836
0,0215444170158371
0,0236439163148649
0,0239499311607125
0,0240876295903484
0,0216099775680982
0,0257170158241107
0,0211534363518198
0,0222693531506458
0,0214566135742934
0,0217094155489096
0,0199527955230785
0,0240376538491665
0,0234756716888029
0,023370814309392
0,0221297483920464
0,0224785740760878
0,0215620182801045
0,02104209434884
0,0202557302030908
0,0211430480982805
0,0220427473633753
0,0235873738838565
0,0244037500862793
0,0226493787609683
0,0209771941527979
0,0222484496562733
0,0195540777020216
0,0221755444366548
0,0198505136296536
0,0199987541162775
0,0195368730730778
0,0214629096502746
0,0217835940353959
0,0231426640364064
0,0208683236816938
0,0237864267948098
0,021887144175118
0,019533571773938
0,0180068328293189
0,0202615701769728
0,0201361086508888
0,0198500410006794
0,0187146589344843
0,0226442911649187
0,0181485528332681
0,0201928028111048
0,0215452969565046
0,0249129907036729
0,0213472180452115
0,0223623307014556
0,0195242859359836
0,0212407156921529
0,0176326228000196
0,0207671289951261
0,0203307170949398
0,0220391839535033
0,0228426677554343
0,0248657890699762
0,0219881949797257
0,0265021536975898
0,0250172191340922
0,0288110790112645
0,0237551864058863
0,0265544130893955
0,0230743140075602
0,0238551812704858
0,0229481137729087
0,0272743836827664
0,0213816452197989
0,0281157082547983
0,0220582229600132
0,0267431257382232
0,0246000676648422
0,0287409829478907
0,0232956307799483
0,0312381084970738
0,0203599807113555
0,0231872201932511
0,0270561789027809
0,026974075615373
0,0237089395779246
0,0243434728162153
0,0199465785752519
0,0271361302906543
0,0192194541917976
0,0270867320948993
0,0183990337913718
0,0274644038341232
0,0137561209424834
0,0259022887811208
0,0159932774933894
0,0272637350514545
0,0164909369617658
0,0321202527245499
0,0127134478868856
0,0290835270222801
0,0141801185907554
0,0340676871842612
0,0152903994219108
0,0360069345346109
0,0144474753796412
0,0385063124209334
0,0097152463131263
0,0361172182051908
0,00822625561740215
0,0392876608533043
0,00850944030983895
0,041969431342495
0,00802539287834728
0,0380719855075749
0,00489418080974364
0,0389523936542036
0,0101404769251882
0,0404999005179252
0,00721467372441705
0,0278189375149041
0,0120130385759704
0,0302204381711059
0,0177998984990925
0,0165705795138535
0,0289955980388889
0,0143340792502057
0,0339963992736172
0,00550321917804791
0,0361271976253205
0,00460076089436227
0,0384834868971473
0,00348450029647628
0,03767645079898
0,00451169633351414
0,0288844060362522
0,0129010304159053
0,0227948961302591
0,0156391934457751
0,0204686777333309
0,0193429816451791
0,0193692473695262
0,0180897126430573
0,019650377457378
0,0171477398060014
0,021730424982416
0,0154260522814678
0,0218899731507446
0,0128495252526145
0,0196741429559087
0,0131612637245575
0,0189208074425153
0,0133524602750373
0,0192041454475389
0,0157807315316089
0,0200261442491508
0,0150695448796167
0,0201200856785767
0,0144994851120043
0,0218518715234766
0,0179506371865495
0,0193440653467722
0,0148545458639758
0,0167763228231734
0,0134749965779502
0,0183297833371196
0,0151979161769732
0,0163999397443081
0,0137310318214322
0,019773040813859
0,0151065307642358
0,0199498434310018
0,0153621810735959
0,0177306158771958
0,0143418300553567
0,0205772432079432
0,0140051773492171
0,0196882757054917
0,0171453194022308
0,0173619617527972
0,0149213156659966
0,0198322459423477
0,0155696381229501
0,0167980545500336
0,012370963291976
0,0186304897637669
0,0155185328445916
0,0184603786963063
0,0159662429110089
0,0194912163281549
0,0133083113660347
0,0171507709340308
0,0154488317211647
0,0181463358361321
0,0133266177157916
0,020014177874744
0,016038440872115
0,0197112983925239
0,0153839744149198
0,0191020309287341
0,0137580988945809
0,0174541169500898
0,0156078831496979
0,0181734203046836
0,0151618874377092
0,0176468976872672
0,0141761093449032
0,0178625020208212
0,0136331723802472
0,0162348050565018
0,0150781990945293
0,0167332115733242
0,0150685119364876
0,0202215547218134
0,0153309822725557
0,0188423173277968
0,0156114609876503
0,0185769227353868
0,0154233408219377
0,0180718260883739
0,0146610200733503
0,0188210025128398
0,0166975811405457
0,0184548546689695
0,015674232834916
0,0171309510448823
0,0142707686656494
0,0195195918979475
0,0165902121121825
0,0157816528578435
0,0147042032272713
0,0186136984151755
0,0176723913637268
0,0182928686633987
0,0144559306301731
0,0195362665289718
0,0153134389690808
0,0159834911657423
0,0156080193786923
0,0172677477862434
0,0165873264716847
0,0206779262570045
0,0172905554057529
0,0196387422516943
0,0171466003748144
0,0173694824467003
0,0143951522663811
0,0186170850313985
0,0160975961999072
0,0194302690958098
0,015758721476118
0,0186615597889763
0,0173516337374487
0,0181581771573732
0,0152099967277637
0,0180213619625178
0,0177206239324697
0,0215354594365279
0,0161904962438273
0,0174953830644593
0,0150951101038664
0,0173212866020965
0,0169500463094915
0,0192773707641912
0,015810323470105
0,0188865058252975
0,0170378585872385
0,0183397143441676
0,0155675108917377
0,0173836139177382
0,016912974529726
0,0195661289319101
0,0173534263660874
0,0183979768048184
0,0155102140206053
0,0181332631482252
0,0163709005378215
0,0180677065571352
0,0167657071674464
0,0197803684572428
0,0179165150849044
0,0173305829311253
0,0155614249494238
0,0205181534264302
0,0176348435615188
0,0183288120505768
0,0189367809809022
0,0207581802495595
0,0165958630414581
0,0182019486376431
0,0166743149843929
0,0189932104811
0,0163419947012638
0,0188835298727469
0,0178424786348884
0,0201881502191739
0,0172215451072012
0,0201467741494768
0,0188862475472689
0,0175689301607501
0,0164966895405846
0,0199927962859219
0,0184769918738743
0,020120466837245
0,0178284619526953
0,0195427160657072
0,018539518094424
0,0216393707333875
0,0184537053962611
0,0190583450400166
0,0171741888897396
0,0189006965780365
0,0185490876705902
0,0213331554975324
0,0170986993986146
0,0166509040131818
0,0189237849674083
0,0188980376887672
0,0161338222972913
0,0187867501911265
0,0168218460911126
0,0193353839172417
0,0179656928514621
0,0199186983468418
0,0178250983991063
0,0158493953617872
0,0141913494078991
0,0185066471060371
0,0188702642285142
0,018342441932225
0,0167100996437289
0,0167938402352896
0,0164954134860732
0,0195616944936726
0,0161215228700364
0,0154705837407676
0,0154255291899933
0,0172857346576333
0,0171893331857765
0,0190944449355073
0,0154793008156687
0,0183835634756396
0,0180580845373821
0,0176981899368921
0,0150763887018419
0,0174305096248867
0,0172451201057105
0,0165723075056738
0,01426753496432
0,0187983236633977
0,0171186136124298
0,0162331537118333
0,0159961151216395
0,0182839436486923
0,016710089712984
0,0180182334488639
0,0169289095007265
0,0185653044700881
0,0156643116812004
0,016544952648787
0,015197133391047
0,0159095993699233
0,0166157618604902
0,0164013730149715
0,0163385417194078
0,0177487999577124
0,0162330078680832
0,0172183201306867
0,0162448502074969
0,0186806928274349
0,0144871905209075
0,0169744944118165
0,01740702789245
0,0160692925021617
0,0141520772701467
0,0177255339727516
0,0160365233343054
0,0159670991156856
0,0137351840136576
0,0171082649824401
0,0162222851478618
0,0170493324048605
0,0155868389353045
0,017984245606474
0,0142282897641116
0,0165468329409127
0,0178471885455242
0,0189467665974916
0,0148252983147835
0,0164506118663426
0,0159391286581759
0,017651036572082
0,0170556498416379
0,0189775642374987
0,0176587781632013
0,0173760250084552
0,0177030357875167
0,0178481895712916
0,0154268682633072
0,0173624924404001
0,015257920676553
0,0161074492764166
0,0152723581319377
0,0150660261418549
0,0157195095370932
0,0154159985757611
0,0145764545863731
0,0191214252830144
0,0157079558805545
0,0190782670247229
0,0163632568410276
0,0160167714746888
0,0139386282308273
0,0168489073296002
0,0173087102437106
0,0177647993583283
0,0146723103167605
0,0179194599502652
0,0153713257662903
0,0176499219664561
0,0149678592639084
0,0162897148529713
0,0146147152275911
0,0173930114724055
0,0155628460287517
0,015678333241784
0,0172705781592225
0,0171065608638549
0,0152084392290451
0,0160193796069766
0,0125248902762504
0,0169071704877792
0,0151820817788475
0,0157725401715067
0,0161743747902052
0,0156643204640227
0,0142951696369078
0,0158826772896181
0,0126012284051945
0,0163431461773075
0,0137973136701981
0,0164901742462612
0,0162689544179358
0,0153991645428596
0,0128810921678436
0,0171954229004664
0,0124378785947423
0,014418205836401
0,0129718981134594
0,013060753873349
0,0145716365730559
0,0148767381194489
0,0137438824073693
0,0152539707489434
0,0153025107965265
0,0144636374265102
0,0144510565332123
0,0155787317921047
0,0150955915295657
0,0143359836221478
0,0154588670231108
0,015778946687394
0,0131623573590006
0,012836583987812
0,0146701474698571
0,0163064880748085
0,0137707795272638
0,0137019806712794
0,0137744639857069
0,0142304974898664
0,0139848548912372
0,0128311913867338
0,013026421729473
0,0136548744349153
0,0136843481019651
0,0118789047317177
0,017544302057128
0,0132430626595642
0,0140484707325016
0,0155733504395441
0,0131732945638599
0,0132930136555017
0,0140086997710928
0,0150165570516044
0,013891983047697
0,014430422048737
0,0133115813465297
0,0141188043880356
0,0116681299110615
0,0131919775830254
0,0124625720583575
0,0136754348587756
0,0125751696838343
0,0142879127408096
0,0139888759561813
0,013362714745765
0,0139448460383521
0,0158497114501992
0,013456223390381
0,0137718409859574
0,011917341892294
0,0139171535708596
0,0119377024543904
0,0151285306388462
0,0130889092309899
0,0145217123689415
0,0138396995487019
0,0154274933838389
0,0108711998163334
0,013152148551597
0,0131005638926189
0,015694400318581
0,0127838215884272
0,0132910021798784
0,00882016682925595
0,0117600201190942
0,0127420465944691
0,0140600609228141
0,0127628358476546
0,0123843615124831
0,0107732906244659
0,0124534231658564
0,0100655397829178
0,0142636584286425
0,0118738892976943
0,0145681545748582
0,0109483282000703
0,0182126438584098
0,0116345987454279
0,0157110530295062
0,0133153070601083
0,0137097201815584
0,0134822971247232
0,0139312372838093
0,0127529982227332
0,0147987675202546
0,0122928965903188
0,0109939642214565
0,0138926319065599
0,0147631192200876
0,0140643317514386
0,0132330695357625
0,0122591826504584
0,0127890119232022
0,0124042833920575
0,0112502147933605
0,0131722204041934
0,0119610594767589
0,011983301485811
0,0121920436513394
0,0141063061464144
0,0138184696138719
0,0107786189128242
0,0147000635214552
0,0134842721621814
0,0105398975002228
0,0177140694086953
0,00779857934939197
0,0168173900985847
0,0102661828007403
0,0133678161059347
0,00959774850631986
0,0127442377261112
0,0115894958451632
0,0158573816835641
0,013672398191872
0,0147449326321017
0,0142674253883601
0,0124589325725751
0,0115776946248384
0,0104354619038756
0,0122785941225581
0,0113082487115631
0,0110175977464289
0,0125952632452426
0,0122248734708653
0,0131204036808869
0,0125334433479993
0,0151640804665818
0,0105451618024363
0,0144054499345293
0,0112951901895449
0,011431940505616
0,0106969172215944
0,0149457045680066
0,0131679003265324
0,0145974177372111
0,014213503126698
0,0111447841969683
0,0161508440354003
0,0112988041806212
0,0143908163542083
0,0103564698235009
0,0129881476202918
0,0115625842319952
0,0148389999453699
0,0148442252619939
0,0137916588764997
0,00903786502883933
0,0124484655248522
0,0126234721506205
0,0147659542500761
0,0121931005782333
0,0136118672004218
0,0108286897193024
0,0119030158376738
0,0160367743660156
0,010064834594204
0,0146194708708267
0,0140795197487441
0,0171675901094371
0,0123054427053407
0,0133389823103399
0,0125079369024043
0,0129192984640925
0,0126281673055311
0,0153688783620218
0,0138300987836453
0,0111676190601375
0,014103417203063
0,0138197276577169
0,0122494667052426
0,00992595752408534
0,0122634465257664
0,0126734837030672
0,0154152148283543
0,0120200191545326
0,0156799842843851
0,0123998384641555
0,0144126164552365
0,0109153972772092
0,019066727614941
0,00869259060857433
0,0212808296685596
-0,00118568393503819
0,0261978537298784
0,00907086009373959
0,0171958666442164
0,0130003933051776
0,0122756683592781
0,013790258735391
0,0121730916342646
0,0116128584237684
0,012415642687545
0,0140624182657738
0,0174851200477231
0,012368278335894
0,0132407471001526
0,014223400685009
0,0170756396511306
0,0165006600695253
0,0184690702271418
0,0103399476529717
0,0163789831880256
0,0122874306417031
0,0178844285197249
0,013849311940799
0,00796584382408053
0,0175756904463347
0,0100127775230246
0,0136995513202914
0,0119700429189182
0,0162586451064224
0,0160761516055486
0,0160016202407568
0,01263362972192
0,0154044362130615
0,0153399441807588
0,0116159115656592
0,0160081188968178
0,0128087352359864
0,0174068453420123
0,0141225849224776
0,0107157962150941
0,0148734009954327
0,0113553134823915
0,0133327792873241
0,0118597730136652
0,0145941955980147
0,0139180253705903
0,0170703682500101
0,0152928101737172
0,013972150099107
0,0177294626288608
0,016313966361328
0,0155816511641168
0,0196105538069241
0,00923140471275367
0,0217184269070182
0,00828310558641175
0,0205439233931959
0,0188880269514503
0,0121515577624259
0,019969204978129
0,00834267985847463
0,0186705360591638
0,00955703846170665
0,0220032299082511
0,00899782454137789
0,0253364606636988
0,00907894546634576
0,024321963057013
0,00653726082318084
0,0233145574936869
0,0109267433680706
0,0180049571812608
0,0132453834349757
0,0199303760983319
0,0139928066544994
0,0191773689121908
0,0143634558395369
0,0154822794744614
0,0255251513196058
0,0163938107253788
0,0191989485712717
0,0175875163092169
0,00790097534191506
0,0252564308465505
0,00725366129362131
0,0212720393898413
0,0111953672947255
0,0208418538324228
0,0137257542625575
0,0201264321166146
0,0211731920510306
0,0164626395546336
0,0147326272812922
0,0197264553097196
0,0110416149864717
0,0222007396060831
0,0126201839964044
0,0220168426426601
0,00949731910127043
0,0255001107983253
0,000746792157874694
0,030851562570817
0,0053958730477515
0,0233987190680499
0,0166553567643339
0,0206200890328575
0,0150883772801996
0,017560699139003
0,0153225852375812
0,0193250202544074
0,0163095377598815
0,0204144207014152
0,0150693553891582
0,0196989500050438
0,0243828006701454
0,0146029729653483
0,0240593938912521
0,0206244741477397
0,02578408255942
0,0321257158940777
0,0212492906276232
0,022407401991414
0,0277695923858048
0,0211592381767397
0,0294366916715848
0,0201726336081492
0,0266946667494787
0,0246787069888496
0,0237872622589492
0,0266420954562824
0,0239876990997562
0,0306469571931245
0,0222735984849529
0,0301305761029167
0,0283578893910071
0,0326226924316901
0,0370345025362343
0,028742418880771
0,0386310622810109
0,0220299725235453
0,0423420650382954
0,0272255488125813
0,0341201588128375
0,0316334849355128
0,0328123371271816
0,0366846093185077
0,0319833221776333
0,0427215874746964
0,0297143628866261
0,0417279668172071
0,0414671783169774
0,0399630342413491
0,0433554173567651
0,0337930119886148
0,0688675369420955
-0,00167205481239972
0,0634760003455841
0,0282280998761576
0,058738347780849
0,041464341294986
0,0525524560481476
0,0525636011944133
0,0461035818471211
0,0482047938980713
0,0556474130616091
0,0524015309129367
0,056331506848005
0,0586190445713362
0,0617892483848415
0,0609979645752403
0,0717831435097255
0,0588431251320266
0,0846704555905557
0,0766810750789817
0,0749577502424952
0,0754628985609767
0,0757979362381061
0,0742478614902414
0,0850511262276394
0,0748961056641815
0,0867148545434868
0,0904514586219695
0,0889825564502951
0,0998854793379941
0,0843798412550015
0,104295760038112
0,087666942900246
0,11739752361176
0,0853902506663819
0,120734819658491
0,0984283559016726
0,109970061487914
0,106236913909944
0,110298493758365
0,12030606175615
0,108633945188948
0,127138860047156
0,11631661478082
0,116641187640679
0,122482039023575
0,124347567455217
0,12199641004856
0,121429855132327
0,129976130533682
0,115068522811064
0,163480850942696
0,106429592003192
0,139344701124539
0,123845337243618
0,129873645975195
0,139250212100304
0,128035492696179
0,141879847460811
0,134084457409418
0,134039175243183
0,130369738895867
0,132277450203708
0,134765581468358
0,130256949980271
0,137958031354561
0,121675816430594
0,143091070597685
0,123147235774299
0,141799292363172
0,133954522986626
0,145098160161575
0,135343367476446
0,119686133167345
0,127906822493968
0,129451164042247
0,129615653504121
0,122807080784672
0,132163488947915
0,120320338784032
0,134135035468455
0,117130956167992
0,131357321351257
0,125069626882885
0,126454393235678
0,127833338116707
0,117428652435381
0,126417429432317
0,114798643153589
0,123277470945656
0,129551363229695
0,113797226875164
0,122638341707606
0,113351266147248
0,120756734746731
0,112430850890818
0,117511711201521
0,114752152780499
0,118416040406723
0,112071894253588
0,114893472490331
0,111385163186218
0,112023251481286
0,108378946907023
0,113633824987935
0,105399259902043
0,114613281723802
0,108281564366737
0,109522939997383
0,111736803339763
0,108982328999873
0,110465668105766
0,109294821915623
0,109540659175052
0,11152362852961
0,107470738603168
0,111019894104977
0,105698333567566
0,110361725012299
0,108277502210454
0,109062951955009
0,10605832187203
0,108731715553612
0,106662314289034
0,106877624683862
0,108011814522548
0,103020634234214
0,10410921756871
0,101024513964272
0,104364767478275
0,100960186157361
0,102551986430369
0,0978375621051953
0,114729913288009
0,106318404275804
0,109656189668494
0,105344227011558
0,0951759129875319
0,104385226229564
0,0938668936973085
0,105280069947181
0,0954197734428549
0,10216485496668
0,0966927605042711
0,0928417795258863
0,09223266553482
0,0974863998457082
0,0919284093816501
0,0971534504671018
0,0777209569777791
0,102868739987234
0,0828999053104818
0,111740140109219
0,118969919672476
0,0895266928150016
0,0914195932023383
0,0836813843779341
0,0986663062693316
0,0773042702075582
0,0940997003910845
0,0772750000357981
0,0869106036470778
0,0791211830284482
0,0853713548570539
0,0867772826974205
0,0766494803517671
0,0800734401095065
0,0869267074810346
0,0849358014291585
0,088359168492845
0,0875509304821161
0,077923786733132
0,0913430285521956
0,0750730773388273
0,0991327784007649
0,0790758506341971
0,0789335137501694
0,0721052731835561
0,0713716949864783
0,08336264049902
0,0714783435531384
0,0847087876388793
0,069886007658198
0,0748200650887059
0,0705210969439622
0,0707672247128534
0,075654692059205
0,0627673203550631
0,0802080482503178
0,0586794038464161
0,0798062559570059
0,0609845845469267
0,0770255720210991
0,0696663896580305
0,0713525264712377
0,0638174694619496
0,0694647225074429
0,074769044027947
0,0635722403020179
0,0753138015792944
0,0592873417574997
0,0624964927652557
0,0701675592482587
0,0586931284464706
0,0678032413640488
0,0616122080251507
0,068553599498612
0,0716391885086187
0,0683669957468071
0,0755689649731885
0,062980132232674
0,0600998659035721
0,0633981868069212
0,056206863048189
0,0661948172602399
0,055618495197186
0,0679665091617395
0,0606163499228326
0,0588041136257277
0,0706964810949329
0,0577979470129077
0,0690139422209331
0,0634283859762101
0,0633207748268584
0,0629299725242786
0,0654733970839991
0,0727960762414997
0,0736338337801102
0,0676638080202176
0,0754608570800742
0,0655550337115616
0,0814709340943016
0,0655604938916519
0,0790715059088376
0,0709539135373994
0,0797913616040337
0,0758188452271975
0,0797256671255717
0,0827220727381774
0,0821988308499336
0,0824018864085787
0,0975951051558692
0,0819698722175428
0,103453562870539
0,0835539464773741
0,109873582061294
0,104277741446798
0,103757367388339
0,100906914929065
0,098765214959133
0,103907278407042
0,104543945468472
0,105366553497194
0,116256634582106
0,111751292686266
0,117630602721361
0,107379101533012
0,118216511951483
0,109479515494153
0,125575291743938
0,118338343886188
0,125272270942531
0,128167564758526
0,112378679431788
0,126135274832609
0,117947950685032
0,12870165814556
0,124518485867603
0,130085266002534
0,128089411652196
0,123744698681302
0,134684726282412
0,131116370923685
0,1286446581642
0,127606063303222
0,126687309370612
0,130445213096335
0,134119721456068
0,137013860753907
0,134677064005355
0,134513079420085
0,140583370726439
0,133036309598025
0,152303539983529
0,137553126654575
0,143193887199721
0,138144533937354
0,141598411161278
0,14742034233875
0,141965632268675
0,150206940188125
0,152685467108321
0,150449402822719
0,149324447856454
0,146246024018454
0,150825069610017
0,148790034497254
0,162233889668538
0,150116351270848
0,160952538061081
0,153561923916651
0,153918368368659
0,182687411704934
0,1568498887655
0,169882772414076
0,154731385217058
0,169589489244476
0,156232108061296
0,166121964396633
0,159314060392756
0,167931231331948
0,161410019877306
0,165967376412135
0,162298280071728
0,161586928678346
0,167146313018429
0,159516081647955
0,165690347005827
0,16464859507958
0,166495560929166
0,160134334878429
0,160606892806898
0,160020936974259
0,156536821582662
0,170948951677322
0,16627570938529
0,167305245421694
0,159016300732083
0,167049188512464
0,167409621148196
0,159141067102158
0,158670196052315
0,157231847146559
0,158345417643939
0,16531365562067
0,15772551115115
0,167911425837028
0,1626684089472
0,167266800924902
0,159350011206952
0,166299478866745
0,160806487953201
0,166395078275363
0,164111089569851
0,16923183858761
0,166245299147144
0,169197242466941
0,165073613854558
0,166468385600509
0,166260758485894
0,167585505288949
0,175140614888758
0,169302049154314
0,163439297126347
0,167384628541115
0,162386856891637
0,167089755586386
0,159457657333998
0,162559834919629
0,155574002708201
0,160555181687143
0,149257988739206
0,161847117031467
0,157777586185771
0,156152633519407
0,155382195053069
0,147645117950365
0,148897183453918
0,147624085586323
0,145818050391836
0,142720973385064
0,144403713484302
0,142218966318919
0,141706622852802
0,141143259429233
0,141858139166079
0,14036747237856
0,141030316721578
0,139472606491918
0,138087419014608
0,13915593075068
0,139593375111422
0,139798665367665
0,137889738320197
0,138843156379004
0,136207003226415
0,140299940009882
0,14553977747229
0,141266993459038
0,142370970817881
0,13470130504041
0,139612136700146
0,132578572613228
0,135950116243221
0,135412563840711
0,136562153117723
0,135300788247349
0,136120726173719
0,137458959949341
0,135374753308713
0,134953097031808
0,137067072422301
0,138007495871002
0,135403266191605
0,132654185158088
0,134750492523739
0,136847049661656
0,136422992809629
0,135452677337564
0,133794414428543
0,136904329360558
0,13597133133254
0,138951717084844
0,133351001296887
0,1359154105643
0,133872039227435
0,136590119755471
0,135881072425707
0,136074207349096
0,132594508242908
0,135922298707124
0,133546708132814
0,135201494632122
0,135207818380771
0,13559694876548
0,133051853978049
0,132905197815501
0,131728052139917
0,132108154231527
0,130399695164108
0,128099886962149
0,126331479135724
0,128445993917415
0,1258814598131
0,125619626052412
0,123322538009217
0,1215050131213
0,1218685225865
0,119647061799985
0,118248316810024
0,117993472644856
0,116842326675994
0,114478512430112
0,117188671664246
0,116618726421876
0,116258493431431
0,115178191941148
0,115426141532756
0,113584796245875
0,114302197624679
0,114800601505127
0,113167951701348
0,114108402247764
0,113817016577703
0,118066611951256
0,115247906273858
0,115152136719643
0,114334714968326
0,116726517657886
0,113994585742701
0,11773756805822
0,117855264028789
0,11958567826676
0,117835650103217
0,118673496442996
0,120395875343334
0,119901958970433
0,121250878315295
0,121789983002834
0,121054750762503
0,123099812948897
0,12329539028424
0,122687433115767
0,126052035358317
0,123535726337507
0,123852985987526
0,12455070578126
0,124026492155852
0,123687805505155
0,124123025608217
0,12325386749007
0,122416765599203
0,123215041895505
0,121904054835509
0,122095943764064
0,122810310762206
0,120826634028067
0,118651728670494
0,12055678483723
0,119660297250797
0,119679457335445
0,117906924251252
0,119230595407335
0,117939310843938
0,118855359090184
0,118018776711233
0,118588666572564
0,115741756809508
0,115724245799591
0,115174375678443
0,116961280002796
0,114066757429775
0,115555189953129
0,114705711467231
0,114138915036154
0,113032867238139
0,113080059920972
0,113516953850029
0,11209075737228
0,112224627449395
0,112585117222496
0,110712268605421
0,112278932647095
0,111215577346081
0,112210569146001
0,110212330844907
0,109902016744401
0,10948737458782
0,109079290460732
0,106055769456809
0,107450818899514
0,105891978940153
0,106794589517504
0,10333739084626
0,104507098556644
0,105582027922548
0,104466843978406
0,102011548521693
0,101483999657246
0,101123301841691
0,100885107812214
0,100994810938969
0,100865507615616
0,0994468040910502
0,099488990510484
0,0990305377179692
0,0983150464800269
0,0981107700412087
0,0994727165461554
0,0980432565940313
0,0982277842786172
0,0956002443107037
0,0983063539543101
0,0967071374314387
0,0957073938059663
0,0920455010046047
0,0932994189296156
0,0931261745092414
0,0916338591154709
0,090207163749734
0,0915041697211502
0,0902782202251643
0,0897940598893069
0,0886995574054091
0,0895686696217104
0,0920327166276981
0,0935860341717405
0,0920549170994644
0,0961987986786415
0,0981690971110851
0,103860134569942
0,107510395769162
0,109564345291735
0,11676552620875
0,119899553864563
0,126430108535555
0,132294750057291
0,139260556372887
0,142933066317376
0,146701532430306
0,155007716613386
0,158286413056799
0,164422532635655
0,169644115138439
0,174412005044076
0,180431698564709
0,186527886031592
0,18822829684613
0,193633002251328
0,197861863657284
0,203483123021758
0,206980883306358
0,207781798110606
0,211429085371587
0,214652984667544
0,216822633023829
0,221483776349419
0,222813208559993
0,224925563077534
0,227239142652045
0,226384675755698
0,228135734810933
0,230881381346138
0,22965517146218
0,229205586044361
0,230583554166114
0,229460493210849
0,231391127939192
0,2299788254217
0,229959054435786
0,231659898493441
0,233795030362002
0,232686605084053
0,2343415439113
0,232826752608367
0,235153522808972
0,238864169341621
0,239589943596781
0,242884975697669
0,244864823660707
0,247258050196769
0,248940723732932
0,253425406843892
0,253138600352446
0,258509346221314
0,261675373599396
0,264958871264104
0,267448487037715
0,272882845680401
0,27485592463608
0,281609680117758
0,283855272845706
0,288911793644102
0,291068669744473
0,293183378510898
0,295102171781502
0,29823108256843
0,300618277109857
0,302830164363509
0,299924426282903
0,302058740437493
0,301931723690862
0,302134558742208
0,296246640175234
0,29709835879197
0,29518144450176
0,294676283250694
0,291750519292951
0,29520374468597
0,299343512726798
0,300552946052774
0,306201144785122
0,311583995118781
0,311833602735653
0,319525662593937
0,325177942837439
0,331866710682375
0,334538392022558
0,342411975928981
0,344920446043785
0,352753671703841
0,355496573136624
0,362374360224287
0,366960471216139
0,374199718480297
0,37771630828145
0,386047449932209
0,392545163095843
0,401543293349453
0,403872710662097
0,413165658447998
0,419929029179256
0,426914533351361
0,432409273175355
0,439740109309538
0,444461964948593
0,452694412969606
0,457262424578864
0,463611129810407
0,469103685870171
0,47630198003666
0,480036412052893
0,481767146336245
0,491794740563838
0,489898615913353
0,495594508893656
0,500068863026193
0,494815418920404
0,505052719683975
0,500644004427497
0,501277469224299
0,500537180964318
0,494380628771012
0,490053192949803
0,485930841209995
0,486600093979684
0,483368260594339
0,480497973437659
0,480093098846241
0,473310514702245
0,478120737715412
0,473230046388408
0,474790207333251
0,47430962952324
0,476318485366429
0,479808313409096
0,489094541306527
0,493054092680257
0,488959047168666
0,494055033247885
0,499464623030247
0,501368885923058
0,503825810829401
0,50897763892613
0,509342042995639
0,507665205805018
0,509426315138188
0,513508421562688
0,515358533259118
0,514150646328521
0,515647731648838
0,516790048449187
0,514939154024767
0,518710962426331
0,512644905396878
0,506513039882258
0,511022473439495
0,51073132167345
0,507362079066159
0,507532441658957
0,506290358647297
0,500845344119913
0,499596101481749
0,496364121288142
0,492799935620841
0,495401197274894
0,484772377661193
0,47831357509022
0,478274607161929
0,472794492141109
0,465432121705415
0,462363946168281
0,45774133535258
0,445407756064929
0,445323599669399
0,432450927495895
0,419972124064214
0,408429713382792
0,395787619421726
0,38304469723345
0,37209357413211
0,362070417052645
0,345044607311428
0,330796427978664
0,319136874076698
0,30542344825538
0,294450221019176
0,283446922008289
0,272197412437971
0,27076377079371
0,264514535705773
0,259640618369539
0,258926978730437
0,253151481280532
0,253790655423859
0,248905655603295
0,248061084196422
0,248412780967791
0,243121554151402
0,244367060065828
0,238722340961954
0,235205485133261
0,231313416297293
0,227918796043338
0,224612263768789
0,223100020017222
0,214524873147266
0,210726695396429
0,208462995806448
0,198765842443539
0,197324925786862
0,187340023063373
0,180147994737349
0,173780694025591
0,16771858611897
0,161016507075564
0,154045166107006
0,145698458707289
0,14018346243418
0,130347367902515
0,127679552441804
0,122244370037964
0,114609447404052
0,110475614363024
0,105892180639046
0,101264509473849
0,0998730287446733
0,0942422681340875
0,0889948316601281
0,087041596770982
0,0839755485592932
0,0822754500610062
0,0803535756092739
0,0792140536069077
0,0775249995054737
0,0761967521945294
0,0781353113016532
0,0765574748559559
0,0775283125684114
0,0748153236873132
0,0738000233257818
0,0735557186978329
0,0728992688321154
0,0745487254718658
0,0730100774838169
0,0740675009302898
0,0743191571192776
0,0770932436024289
0,0779853562409469
0,0761282534807966
0,0783567474330082
0,0771983684418373
0,0764515495958114
0,0783811035307639
0,0748515123723071
0,0775395732521208
0,0769994677114555
0,0766346390944231
0,0760256182858187
0,0763711866896218
0,0744769931367898
0,0728607708651679
0,0758220249584421
0,0744582875613882
0,0709288828720582
0,0737628641657213
0,0743775428562866
0,0733894968122305
0,0781896643547617
0,0758155049377864
0,0762428404608521
0,0781160607248952
0,0800478852726735
0,0781075298663525
0,0771912078886202
0,0776326259650878
0,0780455433300915
0,0844223580626505
0,0837598048880605
0,0812393163183156
0,0814307173622416
0,0860989808281636
0,0857712952209644
0,0856388691300991
0,0858555587347765
0,0828436539168491
0,0849410352757832
0,0864316075560255
0,0835578774094273
0,0828929024761055
0,0886506479492624
0,0894337973548043
0,0885695289509311
0,0906968708067821
0,0917660808352528
0,091481042456861
0,095985087065525
0,0983843147028623
0,101645158532267
0,103278720023504
0,106222001582188
0,107773854861443
0,107227401109759
0,110419711617131
0,118239089911543
0,121186925767375
0,118093793043711
0,11441582369794
0,120073687293106
0,123264376115977
0,118488955743302
0,115623957589224
0,116177068255301
0,111115444915693
0,108251571549541
0,107353487991582
0,104298919330355
0,105923799320671
0,106671003537742
0,101997782620076
0,106366315020779
0,105031931482565
0,104185421261728
0,104765088370648
0,104812593247244
0,105676827730738
0,100692014572012
0,101598283253658
0,0988422149667505
0,100050192384276
0,0986134059792557
0,101475127768045
0,103723782309182
0,0974684314313238
0,0947881299409343
0,096012365585344
0,0939815893940384
0,0937549664538834
0,0935881478770998
0,092067568943734
0,0932955976941682
0,0949028756866796
0,0915756513634805
0,0880782302852355
0,0908851544358546
0,0871434267394507
0,0873722706543707
0,0839248391089624
0,0858408261846713
0,0892178413319691
0,0882010269436828
0,0907601272326548
0,0892786297550548
0,0889070304460774
0,0847260726011585
0,0848733060105912
0,0832757657832049
0,0866774033574143
0,0832867096496505
0,0853081387552294
0,0848659730623161
0,0824067107348039
0,082464610752037
0,0785758837421814
0,0752169823444627
0,0768342999559747
0,0772710236618538
0,0760053860321131
0,0754314648878062
0,0765469077515661
0,075767299640332
0,0764558461412606
0,0694841925760824
0,080642147689454
0,0754201683705246
0,0777859427101519
0,0769499597923552
0,0727234458605104
0,0773135774177279
0,0814391797180276
0,0777360293335675
0,0774591369110591
0,0792179873793054
0,0762253977471916
0,0803492047581938
0,079824350542269
0,0791209426509691
0,0817690475878431
0,0830997463370374
0,0775552192334504
0,0730075480640271
0,0762164937630501
0,0837091351058488
0,0864972091487864
0,0831154609075177
0,082684682356697
0,0774268662957159
0,0811416297194187
0,0870884710205562
0,0872084963886029
0,0810979739251911
0,0904399667571876
0,0927607833899191
0,0964441908105059
0,0932853722320648
0,0965862997870567
0,101753801013378
0,100884648558138
0,106062011721809
0,10294812769731
0,108992070693423
0,11151159896808
0,112515289850077
0,11971603995177
0,118100335467528
0,121923901160317
0,120126523048147
0,123417936116567
0,131507059087167
0,141831645016236
0,132350664727806
0,143924055109358
0,151332058231512
0,150857923464265
0,149629575737426
0,14921181924255
0,139805260936807
0,141851379237512
0,144567018253278
0,148058783316365
0,146952419572151
0,143207912126835
0,140679681930734
0,140251278321397
0,142170748622692
0,138260597979199
0,131809295610388
0,147137483376451
0,139392863340627
0,145058469866141
0,141407554995909
0,13327999672913
0,140056118671429
0,135692653211862
0,132349706440747
0,139466323673337
0,138554934438922
0,134515888564915
0,126200717494245
0,134487714795649
0,125510142894518
0,119374618900589
0,126061353799461
0,133072890362758
0,109479744895368
0,118248627977658
0,119592142741656
0,1255833158683
0,115783082563076
0,129928985021886
0,131100592686753
0,120044766934905
0,12292533360364
0,116232779050042
0,110824460038532
0,127338437107387
0,136916113216912
0,127812827030002
0,120418991671043
0,123355803475727
0,115917737856473
0,146612089056954
0,12949957150911
0,098605790173571
0,121671394551654
0,128860882713027
0,12561685418649
0,120012840118378
0,130145277598145
0,1290204007376
0,146718459542855
0,155595250871658
0,120962359909641
0,12517197519353
0,131825168792086
0,15379309899473
0,136659841318529
0,119794614392501
0,123797478287314
0,121954841966356
0,127907170760551
0,160538189801281
0,155888118725931
0,162926669640079
0,16336088452357
0,144205003543314
0,145957271813937
0,141413147297877
0,137376910738104
0,160243283734337
0,159230883273546
0,167501386099847
0,173973593704618
0,169602645988336
0,157436575238436
0,142940247259786
0,153512130475094
0,188067604535615
0,175161909506292
0,185633391911556
0,178369303734697
0,147596309757652
0,168236094517991
0,167863106560714
0,167257437876955
0,201459165304898
0,167507059151999
0,164651580427373
0,180365147029206
0,184302897661057
0,167063066722523
0,150026593963388
0,13419779776138
0,171924449622129
0,142419431477812
0,180154759166635
0,179835902389709
0,168813474110713
0,175539038869161
0,16318564118676
0,159445303120665
0,162611537018006
0,184775462761829
0,150173933530541
0,145720130687725
0,166090249515318
0,148325457771838
0,175748413237209
0,182374580286855
0,192872085142593
0,185262384624961
0,198611214587007
0,175262491614978
0,195460725723419
0,166505274728783
0,146153614897626
0,170413501759331
0,132787990833481
0,18496003564576
0,181410702928573
0,123120123717999
0,164971531299947
0,162501423857086
0,220762875719213
0,200528358709163
0,165195961025355
0,140301209222843
0,196723496940503
0,1553629943921
0,0817746833974057
0,1408349225867
0,154825492292309
0,299234258644857
0,257789769511195
0,0725775225440996
0,18533129877944
0,229978113159121
0,201096101102264
0,163476745370749
