3596
4000,36533379555
650,420452594757
1
2
2
0,00996954088174907
0,0149294683294347
0,0132115081596149
0,0162806296480717
0,0119158779017881
0,0135168456495057
0,0127663179716927
0,00914981161848527
0,0121810219456683
0,0250025599350851
0,0171016684773781
0,0145442168094622
0,00939420501534227
0,0176650537240056
0,00155880408730907
0,0142913000040538
0,0168152274405889
0,00962276759149754
0,0101670037843578
0,027342669895806
0,0161364723760142
0,0125947768923067
0,00968322089176645
0,0154033706569659
0,0108757929164232
0,00909599288637697
0,00894955189011524
0,0147672464453147
0,0140148665690559
0,0136461771947888
0,013320671108974
0,0238865439974318
0,0147874858731137
0,0157581111179707
0,00810680399558614
0,0156706926583602
0,0123541125550955
0,0164173968009169
0,00781257852185151
0,0173151995570689
0,0143340599945942
0,0183594281547033
0,0108784163859487
0,0177281399848128
0,0101664134801977
0,0229614469393281
0,0200959585800887
0,0189918918324019
0,0131166833596387
0,0200880266914941
0,0126597713897819
0,00944975489108628
0,0216896515167943
0,0143108921860313
0,0106444852815443
0,023630719535395
0,0135760302213919
0,0119251094377578
0,00544333227855647
0,0111757872846047
0,0160467397384419
0,00855340230936124
0,0131471992267404
0,0106506275537921
0,00850528157499058
0,0219004605758898
0,00811076311928788
0,0129388554522102
0,00772662303827469
0,0173267094479568
0,0012499504120687
0,024286436168544
0,00198654435616865
0,0216101861602662
0,00959473382811003
0,0126341855488875
0,00763631291176176
0,0146405913229638
0,00653525886468365
0,0251754748480189
0,000862104991137262
0,0124149945108043
0,00894765246701303
0,00971293533156702
0,017419807657937
0,0243113400560723
0,00268915915624664
0,0329592241616139
0,000947382150341302
0,0250321200964186
0,00719631587208982
0,0203674953428853
0,00458471466511244
0,0196330873710487
-0,00321077140014352
0,0168187191073413
0,0014052485907406
0,0158601545167569
0,000753552981609335
0,0266692561435979
0,00182474209785934
0,0361660533314687
-0,00329129261717664
0,00588483394484168
0,0368917590777518
0,0114250855717
0,0266766634616884
0,0256009904322834
0,0151097588935218
0,021422858607277
0,00976662721537745
0,0123455806758716
0,00172776003472633
0,0192601679359726
-0,0106485164292217
0,039391010976585
-0,00057506180666824
0,0207343577198671
0,00447651857918055
0,0290479589866216
-0,00132461074143049
0,0457740501933627
-0,0023693032339705
0,0193304173467474
0,00970324825360741
0,0180756412724602
-0,0023444279985329
0,0206727233667131
0,00158510789682873
0,0259467818189854
0,00217989176744723
0,0131360587328147
0,00138160310749731
0,0228207836331452
0,00807420029864576
0,00866115351507801
0,00971516390444449
0,00556166284923657
0,0264071891545379
0,0264181215434766
0,00785636328530629
0,0161864708761815
0,00494173004711793
0,0200593236216592
-0,00234512927920421
0,0251364574449159
0,0121661597284717
0,0185209477367484
0,00357823508546593
0,0170723454232903
0,010990259851013
0,0132714337100743
0,0144822000211359
0,0197719113239889
-0,0225261416635266
0,0659052433030196
-0,023097120485923
0,0274955512132245
0,0122266866255845
0,00216378143248464
0,00945958876159506
0,00463535310612289
0,0160255754607709
0,00722002871173054
0,0179482770475275
0,00706870439077756
0,0194111070499868
0,0149883754182347
0,0136910358118615
0,011961887050703
0,0182586085058174
0,0139235906344116
-0,00110500869569834
0,0446013012731639
0,00164728117060914
0,0243790210393752
0,00845529455230059
0,0126402324865079
-0,00184006196483774
0,0260906570399953
0,00695813162799905
0,0162116095294679
0,0138535682130788
0,0150417060442884
0,0131469657667125
0,0198679523644555
0,00561607031002711
0,0154000892421977
0,00374882545178814
0,0109031452377468
-0,00149683731543196
0,0211515347596864
0,00330671842740183
0,0121213127886006
0,0101543242738673
0,00560908598681024
0,0240286267643178
0,00661636887793892
0,0125284184889748
0,0118845572819569
0,00784270075621214
0,0134344299518703
0,00473967591390882
0,0183984746325006
0,00876209064044522
0,0205612795588449
0,0124638698885768
0,00646752583290223
0,0171928624188326
0,0103247630876784
0,014338942695316
0,00537068904064909
0,0318666229213975
0,0118493671031011
0,010931197403876
0,012064370330139
0,0110689784549298
0,018496101306856
0,0108729217453872
0,0116384182178319
0,00464043815346206
0,0118114172306467
0,010294854991485
0,0110569486489742
0,00768325102166139
0,0118251631677572
0,0030068073380065
0,00982960850183927
0,00688683190518178
0,0164177296422565
0,012030579764779
0,0160310175638673
0,00945872072732666
0,0199291869685715
0,0050034703631143
0,0281318519093306
0,0136772755060481
0,0136958024853523
0,0107959664055836
0,0157545756338544
-0,000120413402556333
0,00958075285037215
0,0103481186815516
0,00849570203926913
0,00976229454560788
0,0036897363644941
0,0296719365124927
0,00640880399844091
0,0204206977890191
-0,00407076260785787
0,0319261453448068
-0,00200654588288367
0,0234354636844469
0,0076202026267369
0,0143144890280218
0,00760234772356669
0,0135726409981801
0,0145676866280911
0,0161242377300434
0,00961490624714265
0,0222454745912994
0,0117372750490563
0,0108274619914874
0,0173897978318457
-0,00316914954163161
0,0576750213160206
-0,000101293448560032
0,00237417213013809
0,0213862286807374
0,0052615895676347
0,019586827379699
0,0115514816395874
0,0050673950101856
0,0387767352395228
0,0102710574447748
0,0148241156082028
0,015778507471406
0,0258956312265892
-0,00426486863007973
0,0256788232908273
0,000914400651588237
0,0216630510402233
-0,00127510827507042
0,0133253395771436
0,029649482300358
-0,00475227602740902
0,0447783096827452
0,0143923510655964
0,0136807003094674
0,01337715129207
0,0180957839875195
0,0175146855731975
0,0281229690919923
0,0130828935859322
0,0178649294059517
0,0177054964226075
0,00701429628452014
0,0329771115918138
0,00488464924556377
0,0188942823338968
0,013438977445245
0,0154175565978723
-0,0015067740733198
0,0181762529474432
0,00488218112640605
0,0289686922759213
0,00716422095462204
0,0176909982611266
0,0219644929539367
0,0137534486051185
0,00960326016737798
0,0197795112780089
0,0134228429263805
0,0201742451591932
0,00195430549335102
0,0213455327391181
0,0123544987981305
0,0205029235834489
-7,99856729944199E-05
0,0285471933917424
0,00839401758112233
0,023737903843945
0,00930223762533652
0,0130534173043369
0,00557329489142272
0,0190169093729775
0,00980836841654459
0,0125497916684118
0,0146888564557322
0,020247002148579
0,019680385886505
0,0310734518441523
-0,0048698536734236
0,0479198087083404
0,0183360171637791
0,0234152547680661
0,0129949304612597
0,0152649107952816
0,0203046144608272
0,0187180857615415
0,0188074786464907
0,020262929405657
0,0181962439371477
0,0222833065098248
0,017938222017596
0,0176222150123711
0,0191378255954588
0,0258059345942437
0,0401900772153279
0,0179453044891009
0,0332923864986307
0,00944065624628859
0,0353637923739383
0,0123959768281415
0,0244366102427336
0,039734966377919
0,0132533475364654
0,0384413688842303
0,0142951078812359
0,0348477940004926
0,0113915041521864
0,0369916669421224
0,015424023047703
0,0318517928938506
0,0186545879609659
0,0359336390573185
0,0245878691607388
0,0360834802592712
0,0413177384577203
0,0344628099850044
0,0272629267800892
0,0456898443396404
0,02206312014751
0,0555955928045994
0,0261601645068227
0,0807643367758851
0,0307395380579862
0,0412033708175095
0,0436618542288171
0,0280360040643164
0,05181508749145
0,0293936957093607
0,0346495157168516
0,0370338241280476
0,0436940275353224
0,0433468477081098
0,0440339218642207
0,0468652526436996
0,0545613422889162
0,0475639261012478
0,0488111476982384
0,0429049191833857
0,0611988695126564
0,0516496639677516
0,0588480207032332
0,0517237817518847
0,0756286565073406
0,0676411314511826
0,0585520792327445
0,0601834424178692
0,064888591617557
0,0650909291712611
0,0582160817983201
0,0740385381319563
0,0588847870557643
0,0669402741249778
0,0523568153799254
0,0852706502876798
0,0759608793677593
0,0814526590806578
0,0732360418296777
0,0577577826217315
0,0796218378745619
0,0807324220107888
0,0823954853520011
0,0865390759444202
0,0759931397198104
0,0769361459501677
0,0751705711422754
0,0952389999106057
0,0675130486559924
0,107327562355275
0,0783581050869456
0,103965600567304
0,0799155161070464
0,105127732470737
0,084835207974801
0,105839904454319
0,0950539736958872
0,105061123186374
0,0931764133904616
0,105127820605001
0,0986433794424226
0,11983718488449
0,106869279595976
0,114899798897448
0,117882123174818
0,11193358330591
0,122964209329634
0,113823744290144
0,116653625210757
0,124253293937329
0,113575752777786
0,150129382089429
0,108978918607913
0,12653820141836
0,12108056001657
0,141188613443895
0,136850455581221
0,143800499344272
0,130002987183324
0,150652717530055
0,136362342571312
0,145941077850919
0,139577173997462
0,153844360713835
0,142024011160427
0,158881508911045
0,145208099902267
0,155792430139916
0,161863034917889
0,16437234758367
0,171412573013706
0,183624520430063
0,170308927845324
0,21434749913236
0,156610864284225
0,190409847536384
0,155025123327027
0,185441169380403
0,176417315663888
0,1976926655216
0,17547885533884
0,196215540026058
0,195077008509916
0,208362390319332
0,186081983017488
0,22652053880834
0,196094479412928
0,226592006284259
0,20587669377175
0,221219871603945
0,21311261691512
0,218674775504491
0,210951995423535
0,228866190254904
0,214774466605029
0,239817844381841
0,217209445238839
0,248269606484674
0,232555923868364
0,239424782681086
0,239170529838273
0,249399089529951
0,242342051039304
0,267093515575064
0,253819100456808
0,272686997860603
0,24833566840185
0,268882256803969
0,262883704803056
0,261204853426299
0,262020701101453
0,283507003483623
0,260624079775881
0,2802151389499
0,275699790175214
0,302218838939515
0,266801010043554
0,303013068409354
0,282986736622497
0,304178431647946
0,287423485731681
0,297803055640936
0,27554878050268
0,312584093697139
0,300981125364394
0,329308980903358
0,315565103207684
0,332853490396411
0,319328361878692
0,353690297247353
0,307559074066629
0,346355689328737
0,317501990320799
0,349546609461795
0,335339083829747
0,346328968762103
0,332025371019478
0,352140367083923
0,352665365093368
0,360072474057865
0,337168609404828
0,369926924164638
0,343338678079723
0,395564247805762
0,37015825591821
0,400712371342657
0,382280567442771
0,395510952715925
0,380644634846779
0,387308972572741
0,391230049648721
0,399460325181039
0,3940999702878
0,424244310835449
0,387843018898847
0,412477350627413
0,396833808471734
0,420303648873429
0,414614767613136
0,450981091421317
0,410032153949605
0,433296191986268
0,42300747671434
0,449455215003209
0,433054933003432
0,459909566910339
0,435223820665952
0,447318620660213
0,446475027156844
0,478537895398
0,461743169104301
0,474448278926499
0,459786652972754
0,474622212966613
0,469850884501057
0,471665876292794
0,457361887883864
0,471163579083168
0,4658631061998
0,489344744654995
0,485599127460643
0,530414711179436
0,478083584281542
0,514956457615158
0,498330768264031
0,505577810047753
0,476057682089769
0,550841071813103
0,541098195889071
0,520261036305129
0,518592241784829
0,540954435680136
0,513595041967927
0,534260493097376
0,535770700725774
0,545112016722514
0,532955277143624
0,54353396686951
0,524769910425433
0,572255965519245
0,535045916484484
0,552896269116906
0,557757618785977
0,590772558594196
0,546681248168274
0,579735487621378
0,539174213661827
0,574093037358692
0,542050703887366
0,564683135594003
0,561340646529411
0,565936575245967
0,57402087014503
0,585156155030694
0,576106058302135
0,597424872873281
0,571975113054359
0,596719459138714
0,55737968141511
0,591083260410866
0,607638405057023
0,632428461237246
0,614242757226147
0,645294892657258
0,618720555966818
0,642073039786935
0,610753181589224
0,647367541960778
0,627390305151556
0,658558221324674
0,630480827465155
0,653554902298293
0,608288117006415
0,63886848975896
0,616712790020426
0,638038258435371
0,616693601289048
0,645242400565435
0,666095651206515
0,651974945366145
0,629050626936584
0,663160833753134
0,644450125201005
0,698814703643074
0,651636249303897
0,659849549738847
0,645218015720408
0,677081700099412
0,647707551376374
0,666950418540647
0,660827643040348
0,695114821721752
0,684299840986166
0,708700856230025
0,705866559263104
0,696534818800488
0,664723598960866
0,695810767954744
0,71369417114369
0,691613720421056
0,671800000755136
0,709333442995647
0,678563647720001
0,708021706513472
0,697359204067479
0,727409527340067
0,731593582959307
0,724043724942551
0,712286928131082
0,725786749573704
0,718112841300436
0,75295148303767
0,723852799498595
0,718474972097653
0,718375646305662
0,727803743354402
0,698741040540343
0,751142971041769
0,735956636968138
0,727919649094411
0,727938555762952
0,726744169212695
0,702544878391724
0,737158024860909
0,710988317325783
0,746095801089488
0,744108018270598
0,74019062633163
0,752799926755912
0,761566949684014
0,735313748978578
0,771638226466239
0,732184571656416
0,761173702047115
0,748374483316275
0,739384567159565
0,724103326138248
0,789563215091186
0,778712270960702
0,777625313643946
0,734911239564851
0,735034280527045
0,736480441027713
0,743820933759623
0,736142807430375
0,789727186723838
0,751730917598464
0,768217030250188
0,774076344571753
0,754523625263054
0,74890656698721
0,778217065982972
0,726711419022131
0,776501286108567
0,757751336994842
0,7704218947554
0,768036786673642
0,756705634554349
0,760060578387102
0,772933773658842
0,763488928297007
0,77553394072817
0,755055865603242
0,792950656506288
0,740960878611286
0,747733540862296
0,75260139454174
0,767688385961049
0,742424074393738
0,778161031416627
0,737684877727985
0,777358834152918
0,78251365226496
0,766004084070947
0,772156532596673
0,772396368686145
0,754252781993135
0,790915693815651
0,771246163507545
0,787638365960727
0,759716320564602
0,772684948189015
0,769627505156329
0,767278001495402
0,736952360864334
0,742353853974519
0,743365303921973
0,760902904033915
0,752690095152021
0,766161096009727
0,732713886597452
0,756887434205974
0,761243242553281
0,768703586249664
0,752613865994944
0,763876389406991
0,768560824785837
0,762964671449454
0,743732536663402
0,75240395859557
0,757054345285368
0,765088442926374
0,738281507291676
0,734157110737101
0,732663527484888
0,771073264092265
0,734024656222354
0,735057361010344
0,751797926062856
0,771081744348222
0,741852143152504
0,759323296529617
0,743921979675137
0,76949731781284
0,758649025090622
0,737942204897021
0,725271298694016
0,744168470955408
0,751639591083484
0,757385660436672
0,737604736919313
0,728306913102043
0,713278234429072
0,744638090537536
0,746104023424823
0,730242749029124
0,732517971542247
0,741564948838092
0,734296876452844
0,714308426783571
0,711383362065557
0,734697690753806
0,726005800286978
0,72298220782634
0,724677132893559
0,718798706815954
0,700399796363534
0,725905503639997
0,703926911210632
0,71633809907342
0,729551930860586
0,717042212505179
0,725894138067831
0,740198994278627
0,690700723218476
0,689106997173516
0,687474402199452
0,720022753961584
0,713359044521104
0,707547668660603
0,692797347433162
0,687171053464259
0,692867478341475
0,69601164928562
0,696759162535635
0,695021171949713
0,679708362528499
0,687502048042025
0,678152042451552
0,679534543187594
0,661504239406906
0,685504472425785
0,691848234520443
0,675483831190782
0,659643937473881
0,665262246105599
0,660920364025656
0,669117587349573
0,663581608190544
0,667598305909629
0,65080338866531
0,663025431582032
0,659933247625087
0,659144526234928
0,651506434531926
0,643910555963167
0,657462185660865
0,650984066712861
0,64015996412085
0,650620346766519
0,636415993467256
0,631355405103818
0,646744239466638
0,644321493495854
0,612646911318703
0,627453027598313
0,612655451726786
0,610343278997866
0,603106810648635
0,614360182214283
0,620549538619376
0,603070576887791
0,598217967232131
0,615910739737725
0,619051861901522
0,608633060460997
0,594119202057744
0,605691276239015
0,611826627254373
0,601829517865009
0,60171966441109
0,593326600650115
0,581799293335294
0,585587261686491
0,592404135082814
0,585929978626503
0,569438397110886
0,568486181313172
0,566103193114411
0,574565211730184
0,55847407687558
0,562817911883798
0,559215929044703
0,570331611620739
0,567145586152124
0,54884530890491
0,555956069400313
0,562722545396878
0,54655649164928
0,553180484815777
0,538812835844435
0,542344473652081
0,525064251159267
0,530948052347323
0,540608272708592
0,542866672600717
0,523517081821076
0,526262670052558
0,529853745946893
0,529075415326543
0,51813626909512
0,518475850554744
0,506293047868756
0,498937041112074
0,498880747537911
0,496422648990059
0,501050828058393
0,499655244687229
0,482857931354248
0,49645957037998
0,485707026477381
0,483190541535945
0,483006002476474
0,485833873628174
0,484829944645346
0,477651321498805
0,472631414145045
0,475515435805542
0,470269017122835
0,467579852617913
0,47491535192114
0,461932016845297
0,450915962999919
0,457359758035161
0,452382621534403
0,447327129030518
0,440169254754729
0,440826764025788
0,447156708545231
0,450492327170362
0,443627603357889
0,436853217650194
0,431219261267995
0,43147217168366
0,425523224421197
0,437138904842155
0,426866186342958
0,415903978658664
0,416644948415942
0,413437471245763
0,404075932167549
0,418007280547715
0,416778648052574
0,40884199398982
0,404714237663388
0,405660205035439
0,40090483648802
0,402451700978258
0,38959401833794
0,385175922426713
0,397095121260551
0,391077154390905
0,380077008479413
0,387486750149865
0,377862024327184
0,381876762116158
0,37844757578584
0,37567477241482
0,383283576938282
0,374684497290508
0,361582468078484
0,365394036497425
0,365991961660751
0,364414072132239
0,367562374647714
0,360469486537689
0,355725456479877
0,367073493475147
0,359253764474735
0,353058483412199
0,342694393271188
0,347022290345777
0,345083874380078
0,351196828929753
0,345877323802446
0,341557838920669
0,340960831677323
0,338623605838296
0,32926500531851
0,32980480698792
0,33002005589528
0,330654463826731
0,32560242586702
0,327081346653558
0,321516943231481
0,316471558337006
0,316876296757403
0,324089966231833
0,319135217064179
0,318576424269482
0,314205731880353
0,307363852222472
0,306576637856737
0,304535919688552
0,296093862271047
0,303103771623092
0,297472298636969
0,298085716613883
0,301523480503826
0,299876369757763
0,299814603314199
0,285986116294377
0,291812141824418
0,295991159579431
0,287291923854595
0,289922276501042
0,284080060769697
0,283071792619381
0,280111127206705
0,280557192729567
0,275907101427017
0,276232038723132
0,275012066856361
0,275227504801167
0,278932597948838
0,276193857059444
0,267689538280748
0,263732193529136
0,266758261599209
0,271790586072272
0,262710621687112
0,260679437141119
0,261582304071547
0,262737148123851
0,25809784972672
0,256211509428394
0,25086624814721
0,2499470729025
0,249307435898353
0,249833998417778
0,25140097197049
0,245095391019225
0,243209448421014
0,246015488464265
0,241745704180365
0,24369614263414
0,241394944768173
0,237003099833995
0,228832111087342
0,233507266543862
0,229169458018739
0,232963926889875
0,225981776771548
0,226174770839634
0,228251163696259
0,227077087190664
0,224649480267679
0,220544676334304
0,224710242932615
0,222936581426953
0,216837888530022
0,214016644831029
0,214175252734847
0,217981953620357
0,210406039648914
0,215058759231829
0,211407178578411
0,208448102405289
0,207602260135048
0,213024168963199
0,210083628311875
0,208636841753764
0,206325304268895
0,206176633501747
0,203166771758349
0,201167635308293
0,197358846457062
0,197531631455791
0,196013030955416
0,199838467021379
0,197529755278162
0,196266423593713
0,190908782443149
0,19100568142799
0,19357593706031
0,194603796533213
0,192133549254751
0,188020013304487
0,191491570933579
0,190103913516348
0,19027284457814
0,186114808853746
0,184909988545377
0,188995847676925
0,191384697956968
0,189960168466143
0,181127834976098
0,180766183979442
0,185094774213539
0,182468296838246
0,180768524649954
0,185480153080725
0,178746379764257
0,184523452282042
0,18366431609786
0,182516496829517
0,183263874624351
0,182790656703407
0,179989641961498
0,187565340307846
0,176050045514938
0,180579488837373
0,182909386479125
0,174842376020146
0,17937186919664
0,177940978025862
0,183757983258058
0,19059426753079
0,185226442523692
0,185234554103342
0,183133268010314
0,184431444827448
0,189456189255681
0,191017495279313
0,195020710820011
0,194733008317664
0,197723951748133
0,193346052756096
0,186722676167899
0,195942267997094
0,202833743146385
0,198384778552523
0,196032764482294
0,197932748383138
0,201976603370881
0,203735129776938
0,203594983120152
0,204031890522842
0,207062269781064
0,212982586442772
0,211720009115518
0,214981128069149
0,217359531687196
0,217719342957497
0,211875260877109
0,217309589778272
0,217409246077165
0,217528715958539
0,222632046386029
0,224574940361813
0,22478976543411
0,226342134869004
0,227926378023933
0,232258689764625
0,235775210362887
0,233470014244822
0,235301058029052
0,238710156361234
0,238406312939033
0,23974105208693
0,242374634760209
0,24609739974637
0,249794743816192
0,250759236523879
0,246590881119668
0,250023068079496
0,253042911241282
0,248310493761496
0,25606616459643
0,25983089733049
0,254303649391721
0,257779171317998
0,256980729920782
0,267726847960571
0,263430499019883
0,266218377755422
0,264065364213419
0,269808744164415
0,26971444820089
0,258798666033738
0,262624214579843
0,268771421751791
0,27139819659949
0,268338882106367
0,264971053982693
0,267805446621573
0,264331603948955
0,264110728043644
0,263402306416107
0,265724466115937
0,265573223713738
0,258783951065143
0,266399632032647
0,266399403793251
0,266990542863232
0,265373468080918
0,266137643942302
0,265397286255266
0,262489685025341
0,26275510847761
0,265798737617162
0,265920256666931
0,26354454095911
0,256395931278931
0,261226611606277
0,260802343338997
0,257259564205837
0,263664535687075
0,264691924850511
0,265181539745089
0,268027892832506
0,264491917103883
0,263908746555219
0,263721748337992
0,263233057293626
0,270185284520131
0,270166630176903
0,26267114854325
0,27056124557335
0,261934121037332
0,260161410737122
0,269054268366152
0,263144982046406
0,265166997342871
0,270788750277748
0,261174934146665
0,256313584869819
0,267058827428994
0,261067993694861
0,254982628751036
0,258817447728765
0,257403655718011
0,255085285413099
0,258101653233095
0,24985272921568
0,251963100443367
0,254267636744393
0,250892353074136
0,248182103775942
0,248533626160982
0,253560540819118
0,244847961678965
0,24648972646346
0,242076376090166
0,236789771353919
0,23941238787428
0,23303987994689
0,236995519369874
0,230428161954342
0,226512339569421
0,228902882187178
0,222572663198024
0,225436058911793
0,22398454174373
0,215408773889918
0,212543487833855
0,214936022254495
0,214522449575902
0,211301105071382
0,206927400686221
0,204200956744707
0,202430101435229
0,198960115541366
0,19706594757648
0,195232617719063
0,193375576386144
0,197684951996165
0,196725813605963
0,192146206703142
0,18697242881607
0,18369022852219
0,184646361174955
0,18182476294476
0,185461843595414
0,180189014558334
0,177028614290245
0,179326789233136
0,179319641862215
0,177260555588587
0,175605950245699
0,175373219089464
0,169413606098512
0,173834320662582
0,169620136708341
0,169230144517157
0,172613955051632
0,166614524244113
0,165685264397898
0,165874151673479
0,162154760009663
0,163706643209449
0,160206993026128
0,161870236155044
0,156711011032365
0,156404218990108
0,153782444057401
0,157038150536836
0,153674339014938
0,15466816181523
0,158575270348837
0,155721381681483
0,151261355645145
0,152471454978384
0,150435396395646
0,156356359622442
0,149238217521751
0,149431142275254
0,149583259316
0,147085181691761
0,145486433453963
0,144668926702937
0,142787986835491
0,145907091566619
0,143283999768774
0,141742144894051
0,143508230312604
0,143325329233964
0,13985369512711
0,141693568046714
0,141843644591818
0,138051473191109
0,140659346321936
0,136176339972788
0,132982283239326
0,135862536568522
0,135240107763138
0,139571871981212
0,135792033441653
0,138860742920749
0,132916790099394
0,132911668803984
0,131011158976587
0,132333433157297
0,132784880249647
0,127678190742275
0,131299673863802
0,129450175150413
0,130898975293187
0,125670372146782
0,128567298275527
0,124295618006856
0,130553545451727
0,130872691579877
0,1308682505394
0,126850458192507
0,126060388626696
0,128785504402264
0,124629090593331
0,12206610862292
0,125221895637073
0,128665632858198
0,119688640795079
0,120644530610043
0,12538459279604
0,122712365019159
0,119292177076535
0,124533050577231
0,122638756723201
0,122365385582699
0,12183014389904
0,120719834549638
0,120972625495473
0,118389680667055
0,117782625770324
0,120874699685461
0,114896283685447
0,116550080385979
0,116296148041421
0,11864987693346
0,118268121677903
0,118248099702608
0,118588854239387
0,115148953094568
0,110602437388456
0,116422513369767
0,116859714431274
0,113196463521358
0,11763493216759
0,112703414084672
0,116217043628175
0,116391911256795
0,113562465528724
0,11403107117412
0,113254962625453
0,115647321785954
0,114318386507744
0,112538120433103
0,112715838110164
0,114254095252675
0,11437386293911
0,112450341306377
0,115171290096423
0,111060812436787
0,110988854177122
0,113733110366453
0,111090593016839
0,112816709045571
0,110000175345107
0,109872570023983
0,109832471205417
0,105700540039657
0,10747276809579
0,108326710396986
0,110294992541171
0,110076314109193
0,112320097412121
0,110199581050452
0,105765340888815
0,111239998099813
0,1102587288418
0,104925179664594
0,105441186020431
0,109759889217217
0,107899719278391
0,105086214574063
0,102962002119181
0,108028797391975
0,106648307149552
0,102275994857723
0,10156119943956
0,104343691440397
0,100931280590983
0,105152272071904
0,10126230697156
0,106016744689375
0,102428002354339
0,102061930150746
0,102354329692429
0,100446704575832
0,0985184293973668
0,100636808159352
0,0990635829341672
0,100305165999136
0,101417765981695
0,101696450553167
0,0986352383739939
0,096500414419207
0,0992846554097832
0,0981993831173766
0,0971494120753697
0,0990528878246119
0,0987228842784891
0,0991384568044031
0,0958081283517235
0,0990415646031649
0,0964876361829758
0,0951385816379445
0,0975141096496458
0,0924719858898202
0,0960782312334904
0,0943548135001164
0,0922594255265024
0,0896982594318327
0,0920816952753686
0,0911957232934692
0,0904945332100108
0,0959661013657804
0,0892773028886742
0,0939342496408456
0,0901998164539458
0,0911581233697702
0,0897757512578514
0,0894659475241844
0,0885927143516214
0,0915989551838705
0,0867655455091058
0,0860324057296272
0,0859225541049913
0,0879871273999872
0,0863880665028273
0,0860454689456997
0,0862627769507449
0,081458642786248
0,0831105647000775
0,0838496787121
0,083099852189231
0,0860598492395089
0,0796166166933337
0,0813927593050479
0,0824973767324278
0,0849613339829574
0,0823279582069374
0,0799210752403916
0,0742426870884883
0,0773762643641085
0,075935152049318
0,0820526317224104
0,0769916275521201
0,077558027144678
0,0805407392550568
0,078503417516521
0,07862676311151
0,0798510971302858
0,0774044957024847
0,0758692493353384
0,0756185565479259
0,0779772004685517
0,075103546036583
0,0778676321906559
0,0731026176188599
0,071808265632188
0,0777385014971577
0,0733409347130553
0,0725373206502131
0,0730105175576168
0,070543167360139
0,0768619453887235
0,0706004476668512
0,0710905488217773
0,0675926553182452
0,0720921359798892
0,0689662314430552
0,068934188976858
0,0691714498407383
0,0732569461523239
0,0692586086378173
0,070622498836026
0,0710746144281027
0,0725741986550962
0,0677202161370663
0,0650292029702299
0,0651153342198083
0,0682091812756883
0,0646633625836007
0,0711147149034769
0,0658007973753697
0,0705229122411723
0,0665258828141261
0,0656363065465048
0,0649494185143832
0,0637376317349671
0,0622616374398063
0,0653537585452228
0,061088825240523
0,0663470664814811
0,0649166911467419
0,0633270737613792
0,0636971390872709
0,0645288636477289
0,0617747506949234
0,0623773821333098
0,0589104067598683
0,0631125334509602
0,0621646355834907
0,0625463986951459
0,0607934332948858
0,0619797721805711
0,0611879195554704
0,0637662810276998
0,0602131570691266
0,0599744596847291
0,0571056523091602
0,0605785582702175
0,0597388426221576
0,0587018484617714
0,0601569841548777
0,0594872974176835
0,0586688867792338
0,0579138963211098
0,0569546439990411
0,0576292070676609
0,0592251765518072
0,060205667694604
0,0603567554228708
0,062908398555328
0,0594598646278363
0,0594459022530177
0,0580636859652566
0,0577174758150167
0,0570261904975164
0,0587737440943048
0,0570714555513421
0,0588419315420868
0,0575083424471054
0,0562976954360993
0,0531020434031199
0,054550755252008
0,056932912038594
0,0577425686438103
0,0575704461446601
0,0565824426565291
0,0545049669472383
0,057685443430596
0,0551900938262523
0,0569382805457605
0,0519749143120348
0,0524030121925179
0,0549870081219121
0,0544211416016096
0,0529152131219039
0,056550106407031
0,0559539587060425
0,0557895342332096
0,0524530246234218
0,0557438635525942
0,0555712649324805
0,0531732185204693
0,0550524503721313
0,0539395031386982
0,0505925264230197
0,0566110024010083
0,054062917084163
0,0529675834260809
0,0534258288734214
0,0525875307831497
0,0526745629919223
0,0486957886700283
0,0495553221289534
0,0531672161375917
0,0507704779602868
0,0519002154715036
0,0539369358693676
0,051695973961017
0,0500864255531971
0,0535730541680869
0,0510505330445389
0,0524997838160652
0,0536059760945712
0,0514165994787109
0,051171327946012
0,0480889616985319
0,0492335973952287
0,0506534082193118
0,0475559109811099
0,0513803508974577
0,048383024158345
0,0502803710611466
0,0528170269537139
0,0503741174732222
0,0513772873366937
0,046946161685008
0,0503488891359308
0,0504230834983451
0,0470747898702594
0,0523364991854642
0,0508230196536222
0,0498315314995651
0,049515796905547
0,050258458749301
0,0491998372825134
0,0477416491740512
0,0456594382412165
0,0472010201235758
0,0458394067404207
0,0484832221196241
0,0456485020749316
0,048574197394112
0,0488440084146229
0,0456351450231751
0,0465940790061825
0,0458945351150403
0,0459269811348982
0,0458350995017915
0,0484869079307191
0,0473605862708508
0,0434579373980853
0,0456090364902588
0,043028616390096
0,0444083862162692
0,0459699493920856
0,0441438726478984
0,0443068591643384
0,0437622816447152
0,0420892568059532
0,043242194926907
0,0461779119932792
0,0457174620305177
0,041922791435662
0,0447417395201681
0,0417833320642717
0,0434646560195599
0,0422093224933364
0,0394654764028745
0,0423009235638674
0,0426808947459748
0,0409055672034153
0,0395359345632896
0,0408321755469668
0,0425423830906759
0,0398514359809236
0,0398030069474491
0,0415476630907811
0,0409143553167727
0,0380392646832003
0,0405583051555158
0,0401586703927568
0,0399674303283861
0,0406633677521948
0,0425418344096891
0,0405254512317749
0,0375083675820864
0,0391026349876917
0,0352906087008492
0,0372243147390924
0,0396612974444607
0,0386586104493066
0,0400601816313592
0,0403283648728322
0,0407864512372162
0,0374311554920351
0,0378517194582675
0,0387209694308568
0,0370923589355135
0,0358410254877035
0,0381060559086487
0,037409835765698
0,0385707081489606
0,0368007295120704
0,0357895845294016
0,0361813934862098
0,0352502932018888
0,0342417121471528
0,0329963887784761
0,036027597051926
0,0365593302042093
0,0369640872741486
0,0362122960026837
0,0346950413757913
0,0336411695375867
0,0343432590857426
0,0331999481400134
0,0344890411311808
0,0301936866848842
0,0334792754524997
0,0342617806818323
0,0325266860801568
0,0330855348243346
0,0344753825363118
0,0297469408838996
0,0320376110509154
0,0329279384388964
0,0345529929612742
0,0334642289557928
0,0338126523477613
0,0326390063566298
0,0335058101883654
0,0340098643350171
0,0327756975505719
0,0310275704709423
0,0319181742418335
0,0328914282186533
0,0306790212696187
0,0298559742359447
0,0329880569803681
0,0305781161891917
0,0300293208987127
0,0320854186152231
0,0314956127074372
0,0326762385686055
0,0295816991101974
0,0310100753323581
0,0293475241931433
0,0286689915875779
0,029301700656819
0,0296812253934855
0,0303081651653755
0,028611110723942
0,0303453417160743
0,0309027407776408
0,0340840174449917
0,0330702453903401
0,0321219495664104
0,0291317583743053
0,0310656091383343
0,0289280159888457
0,0308268088807527
0,0296662658738248
0,0294746537839131
0,0288014346713039
0,0325571920801013
0,0310533263379827
0,035374620097658
0,0307548045913741
0,0383122368652657
0,0281349455706793
0,0319570888192231
0,0304690326172996
0,0319957893241973
0,0324774549375399
0,0340540353876605
0,0332047046894411
0,0352044968143807
0,0265487257895872
0,0340453747022375
0,0320728987946958
0,0356747932194302
0,0295245484520409
0,0380797497871893
0,026732013301334
0,033273093020928
0,0380843282721762
0,0327268100177882
0,0291883039066465
0,0330578802193448
0,025163851723581
0,0385406666520027
0,0262909261687661
0,033296213493674
0,0283348743907353
0,0347519314491265
0,0227651618038021
0,0354087900321294
0,0202292229232708
0,0357465216875063
0,0243940189201433
0,0396773561161968
0,0204982484453305
0,0396176834217391
0,0209015376574538
0,0448357239989657
0,0232841099272747
0,0443431690813638
0,0150958812418934
0,0445496795509587
0,0159182304742034
0,043401495758936
0,00975632999660234
0,0461204048853599
0,0132645381851597
0,0515708371489751
0,0145634418346752
0,049572092451467
0,00913167755912403
0,0483208248548722
0,0151549484021618
0,0464095256022919
0,0121200793780414
0,0391604909720059
0,0156241426523117
0,0377133616782456
0,0219714295548162
0,0288809101748155
0,0338759056985426
0,0229668453511039
0,039282900150572
0,0150160784001999
0,0441804187192157
0,0098415721816506
0,04795932881374
0,0108718562138713
0,0449172344931343
0,011471483550759
0,0380072067357146
0,0191381407860324
0,0327373066630662
0,0230400667179318
0,0288789012750324
0,0266614300379922
0,0277305162317445
0,0251684033222321
0,0278682996470769
0,0249308978534652
0,028854827523556
0,020872795845728
0,031847053459255
0,021262578177545
0,0281991609876345
0,0221209182553354
0,0291773643213816
0,0222222750270277
0,0244104573958851
0,0217085713756131
0,0275408241800823
0,0229947299741434
0,0270544407577576
0,0211659079920992
0,0295005391733074
0,0253077826377392
0,0269340821165912
0,0225495985262513
0,0245320967023843
0,0233431226826331
0,0262637017646723
0,0247581769634169
0,0263478341782335
0,021886875284107
0,0280202208234966
0,0219039774350775
0,0265341773039107
0,0237172395974132
0,0278368616216451
0,0227955430089237
0,0276365143044964
0,0236492711322492
0,0264613686347388
0,024376153581472
0,0261844114334333
0,0218203348973801
0,0278742343366629
0,0238048132562328
0,0252256750775776
0,0209380897732082
0,0276796522096698
0,0224584386444541
0,0262003984141284
0,0234769077875189
0,0275695016284301
0,0204303193279338
0,0259210195719747
0,0230970145522613
0,0261718579322932
0,0221259528965547
0,0273918777628273
0,0219543272609588
0,0286486052889183
0,023744269208264
0,0279288111202703
0,0238827486607764
0,0258924102206487
0,0200238788387874
0,0249151546413622
0,0210485515740021
0,0245046658237189
0,022228933050718
0,0263451412778486
0,0225724239533818
0,0246111427310558
0,0220276203600453
0,0239923590048956
0,0226417562605663
0,0275938466659807
0,022834679423585
0,0255146502512777
0,0246342859875919
0,0262006688083501
0,0230697294132202
0,0273519382872787
0,0211584133762261
0,0238152756234479
0,0232285277952799
0,0264369604520069
0,0246500157399077
0,0264125720616634
0,0227487623153495
0,0258542383060374
0,0239680679884288
0,0240695093105726
0,0227422084673584
0,0255584419480835
0,0248135885608496
0,0268000597030311
0,0238866558243597
0,0252777778726245
0,0215715309929852
0,0236447118277075
0,0243663011333338
0,0273085164907101
0,0254573932691179
0,0298746687009671
0,0256439514155456
0,0266685433612629
0,0259813892994169
0,0270172921574344
0,0234426291049777
0,0263016901836452
0,0238999255814009
0,028341662562845
0,0248350165616412
0,0260890117596203
0,0251709105246518
0,0248742489159462
0,0230938425023234
0,0271878592124207
0,0250312096498346
0,0288613392846029
0,025247587511497
0,0243620696873216
0,024564686172235
0,0260759296789416
0,0253002751968718
0,0285379831154495
0,0238142438357912
0,0248065009524244
0,0232451840178859
0,0266467644255686
0,0252691091091851
0,0272424239104068
0,0234635146011047
0,0267907140890559
0,0263680634343538
0,027175641631684
0,0239509475064788
0,0266201806920837
0,025511872114618
0,0265935179908099
0,025571717656148
0,0289318837220577
0,026018339241393
0,0257159904285675
0,0259539658253819
0,0271433632401155
0,0248385659069287
0,0265235157647747
0,0259966155622466
0,0278109680289379
0,0243716468797655
0,0263889052313851
0,0258771569967653
0,0268694306707722
0,0245462570162585
0,0277915733060014
0,0248618678783709
0,0292018376077097
0,027565645667168
0,0279304963268474
0,028639436941159
0,027023694066179
0,0250082271933424
0,0295572925352839
0,0262558726671591
0,0270096712802409
0,0259296789365795
0,0294714714925829
0,0270905449839082
0,027702525014149
0,0267212839677317
0,0280188330316523
0,0251730137104804
0,0272358814360447
0,0253787334866819
0,0278876788479576
0,0256960936187245
0,0273070857904282
0,0246398935028396
0,026501952071394
0,0239906209129205
0,0273568031388075
0,0248130755471209
0,0266182812514868
0,0258557175586427
0,0279266331946701
0,0258019208687786
0,0265702023834687
0,0241753452271762
0,0276653520913753
0,0264676301080094
0,0256622681841505
0,0250707746038269
0,0271539374107918
0,0251858433726259
0,0269246219215361
0,025088911413871
0,0252091363121721
0,0233030665514304
0,0260740630145444
0,0249343198544584
0,0275441323029467
0,0224899770680415
0,0258218614070566
0,0238347487989487
0,0265999055853083
0,0239944300756396
0,0256284214777677
0,0261238044986637
0,027960170509857
0,0230568056333627
0,0258805677986933
0,0247531854327978
0,0250227060425519
0,0245869432479614
0,0273759397095633
0,0239043505106929
0,0253671547106362
0,0233822891147128
0,0245260225126096
0,0230658692612058
0,0261926763900167
0,023429332520415
0,0249001867071807
0,0249380071082554
0,0236823508618835
0,0239730359441637
0,0257324522032598
0,0231127254461367
0,0242413445727247
0,0237271681529949
0,0271147420257183
0,0215188798666316
0,0239846749165435
0,024200231084821
0,0258515640376949
0,0226577355725035
0,0237508346455842
0,0230189546922954
0,0242521799427143
0,0212904074219649
0,0251247074568474
0,0249200071804725
0,0260918920194705
0,0238266142062681
0,0255823387241596
0,023919159885693
0,0245349048922594
0,0238531469406914
0,0249702836322774
0,0232808933883481
0,0237546413813491
0,0216525955800794
0,0240981784513079
0,0233416984428174
0,0247022804621088
0,0220697510400591
0,0261674287065843
0,0259102480090661
0,0243939917994365
0,0227584129004952
0,0231761706769937
0,022351871834951
0,0236834161422915
0,0224526008612043
0,0232834621514192
0,0223416805098103
0,0233953065495387
0,0221068069971865
0,0259906640607125
0,0226438767920941
0,0260861870682166
0,0231046576055673
0,0223186743278215
0,023151974876289
0,0256217507047937
0,0240653972672876
0,0242507751007343
0,0223355636412953
0,0253696976539839
0,0222487651239597
0,0244963344855617
0,0204762818393131
0,0233497997450104
0,0225381146332781
0,0266663632165095
0,0227905198981499
0,0242700891192661
0,0224500156965973
0,0237428851098948
0,021401244788178
0,0212588663424611
0,0202977679148982
0,0238776623226893
0,0211770955596596
0,0239543247801721
0,0227370624954464
0,0215707762081525
0,0200867807187062
0,0217556102299703
0,020298180758729
0,0226406312163123
0,0209238286671023
0,0234447134829456
0,0211815697776794
0,0226827583717297
0,0183004947633581
0,0225342464980802
0,0201148644270691
0,0213200696740336
0,0201995693443225
0,0235704839578287
0,0215671555593419
0,0195686560686736
0,0205671990938911
0,0223178280488281
0,0211671202125386
0,0206317499716225
0,0200567545850961
0,0198582258607606
0,0191396764567087
0,0198587221446637
0,0228358608408757
0,0212271756490838
0,0190053600236313
0,0207108040868701
0,0196633436678543
0,0210611031846835
0,0198176235502879
0,0197383246740334
0,0194368713410505
0,020324349284166
0,0188681899590721
0,0183586572544217
0,0206070968259711
0,019332652593409
0,0209505649641444
0,0184178188200595
0,0230484470366718
0,0205226385297779
0,0191241021498477
0,0210141299332651
0,0194176457589691
0,0190811845918652
0,0201383980297812
0,0214133376315025
0,0190120344116794
0,0184944785482642
0,0177145080833264
0,0198310760183106
0,0186344092084073
0,0190788444237074
0,0177759916320266
0,0195200769332773
0,0179999663343217
0,0191855166001196
0,0199947858194577
0,0201892187938572
0,0195378036366437
0,0207781766732115
0,0180244037824534
0,0187815863800691
0,0182082995659357
0,0207892821699186
0,0185586662354484
0,019093760049136
0,0178940201577984
0,0199272841584093
0,0165547975489488
0,0204601460785745
0,0168569201922601
0,0202561222619436
0,0190934141092484
0,0195395311481885
0,0170984049312478
0,0195286602272885
0,0152281531516728
0,0179206579222375
0,0186222025457285
0,0193143628421103
0,0190380769960904
0,0193280166658429
0,0164251921811369
0,0192437220891467
0,0168085966793379
0,0203967429676127
0,0183822436364723
0,0205104948284769
0,0153268751057311
0,022927344748789
0,0166331977541067
0,0215609741167296
0,0183648119016603
0,0205028469589834
0,0180199965140776
0,0173188875357461
0,0169629560655974
0,0185592763277129
0,0177488442314973
0,0169790848298191
0,0187290736183804
0,0185896192164077
0,0185562053838455
0,0183046961088955
0,0166595950223022
0,0183523151465246
0,0191075053627347
0,0172034977959601
0,0171859820409919
0,0171446121147632
0,0188483483456906
0,0166924473272422
0,0189296939935433
0,0198098388907826
0,015476484584634
0,019865593407578
0,0180906968481589
0,0156756801472377
0,021981817897506
0,0131316943789675
0,0210259619945387
0,0144495497103572
0,0193545740831161
0,0133753092692996
0,0185821422385641
0,0182027558434149
0,0220583206059032
0,0176355142282186
0,0193527444508084
0,0190580398780495
0,0173090018382593
0,017449023175928
0,0173211606902492
0,0180548043947712
0,0160879203724445
0,0170302710494796
0,0175284471999164
0,0163882657211802
0,0183068156019272
0,0177685686392394
0,02019393230463
0,017459416540178
0,0199025095282939
0,0148120118067961
0,0177654433600481
0,0164202078877053
0,0191188394750357
0,0175715425283284
0,0195216206391876
0,0181585466894304
0,0141063842004991
0,0203584881427211
0,01580003815462
0,0192989186256999
0,016426006775001
0,0182469744889208
0,016334261680817
0,0179207606868309
0,0186350276507097
0,0198998097385731
0,0147286941890258
0,0181095904602188
0,017583471296682
0,0204568808683796
0,0185327477873834
0,0188032153984738
0,0158614971158842
0,016174391716934
0,020039520733741
0,0180581190450545
0,0215904424457552
0,0186063976693386
0,0215581483501113
0,0166451089301622
0,0194113841531898
0,0175028232639991
0,0184027430374542
0,0179535243794655
0,0184779211184467
0,0180378754737917
0,0183157455534976
0,0189042653565947
0,0178496234063873
0,0189357144310274
0,0156514330897707
0,0184644861074124
0,017018504353075
0,0201044205497497
0,0177411294157004
0,0168326185277841
0,0154765288180705
0,0208360181076099
0,0164868253418329
0,0245005915882534
0,0132801792570361
0,0266708435237918
0,00585903329020533
0,0312743480372695
0,0140435859091651
0,023246414832514
0,0184687511918987
0,0175219412752795
0,0194920646305656
0,0201772266602736
0,0172807287210677
0,018897882660402
0,0189391428478731
0,0219031683235673
0,017374636911946
0,0181019652007511
0,0196729770122405
0,0239932704542229
0,02402710619585
0,0235473493002667
0,0156461476942977
0,0243226606745365
0,0185971253221924
0,0220350558996618
0,021103301360999
0,015586359795832
0,0229299325922848
0,0153895007359802
0,0209864092721677
0,0199158415844726
0,0226779266200324
0,0201602651697807
0,0220615235202688
0,0190329744753313
0,0221320012010009
0,020726457969658
0,0178495404857588
0,024665649781689
0,0181162268022299
0,0221818526793022
0,0221410872287164
0,0177524333260379
0,021785161600766
0,0190385435372529
0,0206160117110371
0,0177407858463824
0,0207736223396869
0,0213062482878546
0,0237656115841046
0,0202489683129984
0,0208503577291354
0,0251244535147858
0,0221842340169262
0,0205079878021556
0,0237702329350415
0,0147532687301334
0,0301266158411208
0,0130366773620213
0,0266448977787168
0,0258844528582847
0,019381356692414
0,0262280550079146
0,0166085375855705
0,025891119622579
0,0167947242934702
0,0311807176765408
0,0181730296963311
0,0330948106419732
0,0150288027203464
0,0315254989810819
0,0109933639052929
0,0305644088324327
0,0186467193114382
0,0251017411243431
0,0207209075013731
0,027733394164933
0,0202726688384465
0,0275532509610888
0,0219852531904206
0,023840364657982
0,0320178370008857
0,0235453716695169
0,0272530594895192
0,0264411417654709
0,0183954340424905
0,0333966714661624
0,0148017638683008
0,0289810896489818
0,0198420211142838
0,0307814824716801
0,0227888751115336
0,0264738920284241
0,0282254455648429
0,0232096747454064
0,0234021573631123
0,0290704668672131
0,0209477077659414
0,0315929809618225
0,0203033345831435
0,0303239913436411
0,0189992587139472
0,0377272930544933
0,0086700371302919
0,0421668089826927
0,015500879012919
0,0372363054959511
0,0271970546412834
0,0300499160920612
0,0259617043598359
0,0289596750627356
0,0248415953914623
0,0291602929938599
0,0266313510913967
0,0329468370994458
0,0289193068289673
0,034920790618433
0,0348319049368769
0,0281116668348574
0,0352572514362811
0,0293490014153404
0,0327137251159863
0,0433353471713558
0,0371861288105968
0,0351424914023206
0,0364033502699274
0,0351693517284607
0,0416349584614754
0,0333081878726515
0,0414193588746777
0,038372578360378
0,0390381569189329
0,0441536470451329
0,0400578688031202
0,0455385054025601
0,0385131979886656
0,0441395141081286
0,0412576734933652
0,0513552079461425
0,0527169959141768
0,044861417275363
0,0546761163202086
0,0373170147090613
0,0596250546719034
0,0445491136016459
0,0505264345133981
0,0498082097712289
0,0515982990685015
0,0545693857672093
0,0512557256473029
0,060748766058994
0,0526798283097932
0,0655225653797259
0,0625961355556572
0,0630539993963128
0,0664613597138995
0,055768514516699
0,0962994746009387
0,0288391695524878
0,0926108766734465
0,0563329840263729
0,0876687034162721
0,0672830663086199
0,0855842646650611
0,087455429332757
0,085114519114143
0,0859914926691686
0,0960221179436111
0,0941496165234768
0,100277948897307
0,103156473394872
0,110617844003476
0,110442742304187
0,118840166450626
0,107992662565267
0,149869841457783
0,133315799107114
0,137221889280266
0,135480079045027
0,139918489868677
0,144135068120567
0,151792544972423
0,143055540649659
0,161399304610419
0,161066387935809
0,165738923606468
0,178662190986311
0,165937749657805
0,183725560403877
0,171008364838618
0,204922783314507
0,170985844782343
0,212652440277235
0,192059062302139
0,204406969555994
0,20319987845627
0,208496118014713
0,216708965321742
0,206553277244338
0,23013941017765
0,223517479616828
0,22559822436633
0,228604560124907
0,233408608231735
0,233375351262792
0,233612220736535
0,239541852362928
0,2372768144186
0,296261200649317
0,239275315320103
0,257003928701638
0,238930598193578
0,241764717798088
0,246095725080245
0,245951706431668
0,257201517373225
0,242942240123766
0,247967026641585
0,239157452526678
0,242021084335406
0,247688434338374
0,236487079777135
0,245806395741998
0,232069565844718
0,24662958457949
0,230126011398653
0,257715170759822
0,251052621051902
0,258039816643546
0,242524911956248
0,226449327625636
0,237095166076105
0,232327345626528
0,234541808220087
0,220912682026706
0,235385480178955
0,224842506968872
0,234446443050281
0,215141493079787
0,234770425050618
0,221047298140042
0,225054762061783
0,218554093155628
0,211420920563055
0,214517683850613
0,201504537525627
0,210068008918479
0,214322945867069
0,204450994410022
0,208860088726603
0,191479777199145
0,206055457397952
0,19468150418266
0,198041326884943
0,193739016921858
0,197976653525805
0,194582623145496
0,199237258283051
0,18850997536915
0,187868802463391
0,180682520262995
0,186946353789962
0,185750628120197
0,191349081143914
0,179335966081989
0,183297573268011
0,182985677504627
0,181359270881913
0,182269826134941
0,180033538429238
0,180582708195498
0,184443867850849
0,17775505695302
0,181322902265452
0,176421185732305
0,183696054055949
0,180428593268233
0,178027294144504
0,178483639588069
0,176571085396839
0,177248258222245
0,174013619248731
0,177548939942977
0,176440352110151
0,176276087438703
0,177162638395319
0,177331668954269
0,172616254274333
0,176010092056615
0,169614152002898
0,180932536585716
0,168441962517661
0,177944520006869
0,178474251405129
0,167817964416905
0,17502116584251
0,163346679106448
0,179825425159903
0,166983893306212
0,176053775464568
0,165776657051712
0,168075494846204
0,164196159961978
0,167175612995499
0,164444429795621
0,173318467645904
0,151235262149226
0,175971526429679
0,155774140238401
0,183247305340891
0,184876584576977
0,167660394703388
0,164398628662279
0,157987114109849
0,173008854108133
0,150957183426049
0,166883044980493
0,149557000542156
0,164796315256484
0,15102690363884
0,162395585809336
0,158708258953618
0,148201229429972
0,157978195569455
0,163987281980793
0,157250985300659
0,162682008235638
0,158948994936232
0,148290721172004
0,161032121604147
0,145841786874736
0,167089555757701
0,148724857040043
0,14921101922335
0,139640015460589
0,140820720048809
0,153838432696652
0,135484151899242
0,149624102103619
0,136057826642568
0,138139064831225
0,134413164787556
0,130739055417684
0,141724329080089
0,125666173542878
0,143166837497711
0,115979134512894
0,139568906492793
0,119066238001078
0,144541882622885
0,126981419013856
0,132867745095087
0,12041525214434
0,125955922852371
0,132641224761627
0,120389797526252
0,13485173744118
0,114345442844845
0,116042670639299
0,124138552425324
0,108643326139723
0,118565241747326
0,112688557997163
0,11898211592023
0,120949873990944
0,117823799050191
0,11735699253969
0,107445195691187
0,105727322916823
0,10708562084079
0,0995375281092064
0,109469170762431
0,097918259876404
0,111346939151089
0,102583285408042
0,102157368677975
0,113872164037278
0,0985548656920724
0,111223753087727
0,104902945016106
0,106314570837317
0,108240071957177
0,105547798611559
0,117106071648347
0,118721847479327
0,109838443902409
0,118640280148643
0,113101703998914
0,126359841047048
0,114505285978398
0,123220392479264
0,116659065746559
0,12944612844101
0,125518740305317
0,130871535687656
0,130956585092803
0,136310637767467
0,134737372304846
0,152333897826187
0,136445583974543
0,157703829441647
0,137474000660711
0,1709665138601
0,162157850705716
0,165156148534651
0,163492675933638
0,162438560464393
0,173530844867805
0,168557447591743
0,173979279035756
0,184388028709322
0,177514612463881
0,189052036684648
0,174735841812272
0,191820511925629
0,182559538695664
0,199578897720657
0,189946083361288
0,196134214739795
0,20598056768083
0,195330233019134
0,211037670493335
0,19462632230243
0,20691799501652
0,202104881908507
0,209830990768606
0,2044735721022
0,204579500330655
0,215963547040416
0,218849329711997
0,213357998479141
0,210174820547495
0,213715176370385
0,214978137888017
0,21668837436281
0,219022851965183
0,217504022271448
0,220302094624044
0,223173846902393
0,218428554526374
0,237567560867144
0,23054111987389
0,231811446560619
0,228459174315846
0,226483484343582
0,23729596110965
0,22926851669468
0,238694409300245
0,243291721520206
0,242981393320317
0,239735707613681
0,237189521872455
0,244260849231199
0,244614321817551
0,255027569161022
0,247623742677096
0,252152375940333
0,245870246821551
0,250163062308733
0,271445427975178
0,248690188453745
0,265012955059481
0,253375225291611
0,266912412077774
0,251015340942504
0,265770482605612
0,257887155732783
0,264908469196069
0,258671743589063
0,268744471340772
0,260389335885588
0,26395553121881
0,265087730342754
0,265487248246138
0,268207775046261
0,266422503646185
0,260844207955862
0,259437136650506
0,257086875587563
0,261968453338324
0,253500670854137
0,268434553867144
0,26003820646894
0,262307818085659
0,255881759288159
0,267346900970431
0,266565937768215
0,25786617091831
0,253925773400119
0,254912967148746
0,256509561675661
0,262122061877568
0,25523685815602
0,268771720412673
0,257901209789344
0,268468294867192
0,255979320985192
0,269810750299338
0,260681322600799
0,266888057601559
0,263958275444975
0,271470590998672
0,266874801869884
0,274970482075425
0,265681540770977
0,265688338869703
0,267756216299322
0,266798074928306
0,27071913504311
0,268106976821215
0,263534428284145
0,272304368215868
0,261142724748505
0,264680465708523
0,258465051176167
0,262041135165358
0,252271778305509
0,256486559417556
0,245841832407645
0,25580599501106
0,249361354459433
0,248720748298593
0,24434703453155
0,239475765262757
0,239594671460145
0,235591531145131
0,23579190387714
0,229030272951166
0,231010739049154
0,231472442188026
0,225800343144341
0,227889432736973
0,227072564948562
0,222739966885183
0,223633621731158
0,224355940426585
0,224863698960869
0,222546372728589
0,223746996127734
0,223862277160942
0,219327159027597
0,222480022783326
0,221092953827335
0,223050348071578
0,228276249106706
0,224738753027955
0,226491709911635
0,219585360942345
0,222287471648917
0,217250415464884
0,220439017535365
0,217045602357138
0,217491118208123
0,217460464054654
0,218872618717646
0,219236678469463
0,216884590834612
0,217161809467227
0,219735401792967
0,21706009466773
0,222308299990583
0,217352921558052
0,22025644140058
0,2179171308039
0,217315821043879
0,215657189234382
0,215062461267004
0,221172441640078
0,219013951959378
0,221555194036673
0,212738367530564
0,215195890992167
0,212349508745275
0,220245070749545
0,218944015963736
0,216741344693687
0,217359109370269
0,2134524998104
0,217296134622121
0,216197963893209
0,218276297977569
0,214399128408714
0,212247592700379
0,214623079775967
0,212734186975438
0,212137612471604
0,208843870535161
0,208326392758856
0,203780169809182
0,205777074842273
0,200941739187463
0,202338728105483
0,197376422869885
0,196740870806849
0,195855879865639
0,192236565927553
0,191874164589071
0,190157828859164
0,190712255770147
0,186229672363061
0,187281665766125
0,186124704864891
0,186073454206597
0,186159146012314
0,1835431836808
0,184443696317069
0,184130365060233
0,187169944195122
0,182913365340748
0,18223713527628
0,185520901472281
0,186714445140771
0,184734399157703
0,185397007104192
0,186871796420336
0,189141015834343
0,185049576495263
0,190055266279493
0,186300939033639
0,193577478788653
0,190180836669924
0,193054220676386
0,193319231818499
0,19532435010628
0,195570837315964
0,195534863356937
0,195989934093268
0,196489020979493
0,19789666006089
0,19707172263357
0,200848627464825
0,198556323806564
0,198053611577858
0,198443298496599
0,202048598485568
0,199758741784678
0,198967038754685
0,199910796531763
0,19707916969428
0,198902298625066
0,196267697276602
0,200196968500203
0,197434256484929
0,194648815012089
0,193221232736192
0,194989332383792
0,19485004414304
0,19209469593034
0,190386903983278
0,193391365818121
0,191287010416955
0,188507654308392
0,190652059016223
0,190038497452441
0,187320860692817
0,188365490918264
0,186312116101246
0,187521432274762
0,184878273408963
0,184736288435558
0,186328225275563
0,183394123967359
0,182260114603495
0,181759388623594
0,180664259629687
0,182232411544788
0,182955617950244
0,181370715692474
0,179079168651494
0,178986461004254
0,178802145446536
0,179029994381118
0,176692609533125
0,175816909298449
0,175276399118088
0,173789150553047
0,17224961096947
0,171871129942457
0,169987745951661
0,170838839705601
0,165606303374199
0,16639882208087
0,166700235591747
0,164278684366638
0,162184060368052
0,162214750798468
0,159506454237546
0,161631806015945
0,158657400223881
0,160279448552689
0,158764188546268
0,157465387472508
0,156273069650273
0,157790704301528
0,158397923517861
0,157289288072391
0,156367631758843
0,1558926734173
0,155585992994484
0,155305982371733
0,154146691436955
0,151705238614994
0,148544084914219
0,147782191402182
0,145166612911387
0,144103691206026
0,143723064962114
0,141745685833675
0,140953682229675
0,141308225355383
0,140073633975488
0,142809647887162
0,144953726625473
0,146226680001946
0,147889785262151
0,152782461801022
0,157296919752427
0,162648081491063
0,166324004848233
0,175285392125592
0,184839121362162
0,191263255479474
0,198091735860508
0,206622747456006
0,216098138625614
0,225073253759666
0,232686108728009
0,24106812798674
0,24710566659908
0,256024084583585
0,265744317021377
0,275970271409979
0,280495219197339
0,287716240345802
0,291294889547568
0,302294908066415
0,307388552940382
0,314365384459858
0,318912865195541
0,324364000812999
0,330173167039443
0,33447911638363
0,338715760942355
0,346114090770625
0,344520466671544
0,347757429664434
0,350906714344018
0,352142244719702
0,350577539377935
0,357194048791614
0,357255405045413
0,355798772137565
0,358204861584944
0,359646132830336
0,358561249366772
0,357554077516159
0,357302273410776
0,362593674284078
0,359497810823869
0,360198042308507
0,364384073866978
0,365328775713303
0,365847030514725
0,371746810067356
0,372798704214826
0,378474223865624
0,378826110237924
0,382629144753164
0,385670771708267
0,391802647969975
0,393292116410534
0,399668815597919
0,404565469718928
0,408097569057464
0,414469568551244
0,420794860584645
0,427659443811762
0,434130294285873
0,43871315614847
0,447083466340877
0,449374558160281
0,453627070005085
0,45661533423312
0,462135740470838
0,465119839002513
0,467247498828746
0,46924628285941
0,470085204499362
0,466774725289591
0,466835352382717
0,460224234122608
0,459625185048394
0,459450078982905
0,458496057785924
0,457823513453434
0,459621980992396
0,460485967000405
0,469122778680582
0,470034173645242
0,481880545457273
0,485358762768543
0,494051584920909
0,505567582731285
0,511972217452329
0,518517329913428
0,526592393209322
0,534538443845269
0,550281731627835
0,554127568571619
0,561719374941072
0,568582352767861
0,58282500128466
0,591082013494479
0,599024614189137
0,603638219029008
0,614410056303994
0,623773873761221
0,631887531447589
0,649904061440966
0,655258225620521
0,672420895033188
0,682865712745886
0,691957572381728
0,702453186315306
0,716194349182482
0,726166163987644
0,735978820943907
0,742433290774166
0,754189922580672
0,757059661829889
0,76605733524096
0,773719540097755
0,78538711284257
0,786243249098476
0,784721753311313
0,780693702053003
0,794002089432033
0,782487865114438
0,780154966710762
0,784308952567486
0,778517512574817
0,766723293134817
0,760497628989624
0,767191199618679
0,756673770596163
0,763272358055545
0,747739388067393
0,754862287659885
0,751191760500458
0,747549883778356
0,750229350814143
0,760844057478912
0,756580580543851
0,765600650967203
0,77958886654493
0,77911029348847
0,787687056649255
0,796619940363654
0,795899655518442
0,801611925265229
0,809132466494182
0,811675210471946
0,823163012779894
0,824064727334115
0,821517338849339
0,823651621725221
0,832950890699116
0,837674011733394
0,822864555283177
0,825130355046234
0,82421429641318
0,825442202690655
0,826146521570722
0,811300118264722
0,815704250337128
0,814577226013011
0,814967252773207
0,810487851947266
0,806715096439957
0,809509884744845
0,794850011386276
0,790211822477622
0,780851122052326
0,785203517175277
0,770884502305737
0,766013862685458
0,761788886032169
0,757644344129746
0,738487687574891
0,74022924448333
0,722785990189203
0,717304404665497
0,698331497145459
0,681788174369171
0,655580895972439
0,641666030054163
0,623589568578799
0,594673707492714
0,5750482294368
0,55076391096714
0,524053077867186
0,508122497055414
0,496157666061492
0,475595404795626
0,457471363133728
0,440867766234931
0,430704482477929
0,422915775736424
0,420385566393214
0,412183189133897
0,406508675434505
0,404143586084383
0,405097587813939
0,398971887528963
0,397526717724874
0,390588251729496
0,388136664243521
0,38220318095187
0,374750893105393
0,374300493221411
0,366062323474014
0,363663290968148
0,357085983635824
0,347008383986628
0,339578840748106
0,329031547348939
0,323896677626303
0,31482346496009
0,302304501676708
0,294559765669993
0,282390496861395
0,26927269847436
0,260359361475215
0,246574056720303
0,237162327671026
0,225825724020619
0,212916468281742
0,204449369228684
0,199971979811398
0,188358359691226
0,178350965465084
0,169146270267059
0,163126588925518
0,155362008369063
0,151695836126642
0,145812976057316
0,140955180307587
0,134734238211127
0,132932670201248
0,131378475779328
0,126471547525939
0,126811703253778
0,123377594471131
0,121458363734444
0,120082875690103
0,119151563203272
0,119818293701944
0,120011576987685
0,11730935463167
0,121011352670131
0,120884587525946
0,118332458764928
0,122480727245093
0,122963117126934
0,122077895692418
0,125416908747216
0,123443561606248
0,123369648074937
0,125836516890475
0,122715432470257
0,126029979858994
0,122405963139095
0,121475836232873
0,121184178884361
0,118111855696053
0,117872432799827
0,118537193495526
0,118428174416808
0,117653968991174
0,117913706600325
0,116812383925248
0,114607736085496
0,118762238035276
0,119349087902578
0,118967534278667
0,119983191507461
0,12106890758844
0,122158336114302
0,123495449554468
0,120978370295899
0,12271954357775
0,125494389255082
0,12848030163242
0,127391948138026
0,131386023327898
0,132204510263829
0,133375650410011
0,133007153976526
0,132337164429453
0,135963795826707
0,135573341708196
0,134091423326179
0,130291831789289
0,133763266613377
0,138993913524712
0,13533259902788
0,137777820466868
0,138857166854388
0,140679238240959
0,139490837137386
0,142760541275954
0,145149975145168
0,148641739255952
0,151319374853234
0,155690638748511
0,161808448024462
0,161616793560842
0,16600574393994
0,172934242300628
0,173594094694645
0,180110274740974
0,190050421733174
0,187189975429685
0,190713930142662
0,191337145488935
0,191701374253462
0,187236223136697
0,188597283676431
0,187415301650328
0,181719215421464
0,179629494588497
0,175132542960943
0,17175318250279
0,16497943606795
0,161043907057933
0,165220181453321
0,163348008003833
0,16736850214795
0,164997028462048
0,166699382198117
0,169169507441078
0,164186113624154
0,166056702897231
0,163333699324851
0,163359112985481
0,16012357028481
0,15932561532998
0,161031000350167
0,160875363264336
0,158949500656707
0,154468268710514
0,151279869912061
0,153952191782139
0,147466649771459
0,15308258986067
0,14703730664506
0,142908467963186
0,144601144765662
0,144471454206175
0,14045229523442
0,145167915387112
0,142624622916238
0,140197072203674
0,139301036136908
0,137327543296641
0,137211323301388
0,140591059323119
0,136404416751029
0,14059807970853
0,138695990161067
0,139193116585914
0,131106836864235
0,131554934750401
0,131836346866829
0,127550022585857
0,124534247279626
0,12872579159319
0,129277986494866
0,131170702340617
0,127616768595655
0,126749451446717
0,123062613904566
0,121690356811149
0,127662613219045
0,128458021920959
0,119516708113771
0,126493934215485
0,126423286373299
0,120739538751796
0,119261275093316
0,120581404438012
0,114520876032612
0,113868258361174
0,119987882703093
0,118038243587755
0,115296464015154
0,125852955199016
0,128246536453474
0,123272327453376
0,120503706547151
0,124960485980797
0,124661329022421
0,126572119525302
0,122529470526238
0,12098916172269
0,12710131625966
0,132865302069671
0,125829244972689
0,128330356765511
0,133335865645545
0,128716232246308
0,128134596427683
0,133173330546439
0,135161133591127
0,133971622607494
0,147669913637346
0,151907165837607
0,135221291708038
0,137509144404571
0,14073378648422
0,143854128249298
0,147205406614677
0,151889737618276
0,151578709034287
0,159591806900012
0,159757010540163
0,161201770281542
0,168481963803488
0,171071801610132
0,173567891112
0,187249681476277
0,192532622539722
0,197135594687336
0,203801883224028
0,206790282677922
0,216423171949692
0,231266689623745
0,224135348265036
0,229980431638114
0,2371476946365
0,238878183795457
0,242803359410974
0,232719611643363
0,231529742606317
0,2273553502816
0,233115138230568
0,237603994869979
0,22190137985562
0,218224488072373
0,226776436159711
0,214639408457437
0,214940391431776
0,23148132627427
0,220492806920314
0,222406865815023
0,226201756110913
0,231290757735641
0,216743403957127
0,220820818384914
0,230769228829875
0,21653704984785
0,205045892203455
0,214287689101024
0,203889276693514
0,212410575881783
0,200724131072787
0,200537413993735
0,201421799657025
0,200469760582841
0,197960764005935
0,181468204926801
0,185682632049609
0,209576272013976
0,199149422991374
0,189388942053558
0,188970541398689
0,190942559366438
0,185995296549784
0,203607361249249
0,190795178495235
0,183987404307859
0,188450747985522
0,192635120902484
0,200945749355557
0,209512439600199
0,213424747507441
0,185773592998275
0,190131325824848
0,226124212418906
0,209836216575093
0,186766206438384
0,203174706719156
0,207959472036434
0,189972386065594
0,182087967838913
0,202606557157836
0,223358837812545
0,225310452407924
0,228127669078551
0,227080264396991
0,216312072546318
0,207866610175999
0,21476258781846
0,202201987137067
0,217998224055551
0,215877616240584
0,206195069975959
0,201412104038193
0,226071861819713
0,236946928469123
0,242932679837343
0,260558915742056
0,234281493530781
0,205134557143437
0,242599221651877
0,249443100317468
0,267615179901946
0,253060593583889
0,248496732835691
0,263900637700057
0,277027738757304
0,271308599465392
0,275834376594304
0,269213245010356
0,279818221791774
0,260143852704189
0,296701771898802
0,329168602036766
0,26250076178218
0,267296246527225
0,296025575426525
0,308490074856338
0,320770966746916
0,253525503689572
0,289640498291747
0,256180447763389
0,269195419413594
0,315168424990078
0,250004724759465
0,269986454271939
0,250203802289362
0,197937810967806
0,259146590568229
0,241604704462547
0,265704956598615
0,272587148472961
0,237142300134941
0,220727286879033
0,245470638207069
0,224821988771672
0,279026616193856
0,308756741305807
0,275153423416756
0,221132372335399
0,257118938261342
0,310011037152528
0,260437553270844
0,243199557678992
0,309749198737692
0,283861330551524
0,287354659880507
0,243932309233168
0,279156318915809
0,349063688097776
0,282326167456926
0,249915212140884
0,45821031301977
0,302724858170976
0,225614374223153
0,239548208764207
0,326744692538129
0,294611132194972
0,295645587676408
0,299231863088609
0,213903498488194
0,298884279231508
0,294092542691325
0,29000421549779
0,384210882632837
0,303121697688769
0,223795077701029
0,212632181448222
0,333966104036528
0,285440545969483
0,378183754333212
0,342539321229391
