3596
4000,36533379555
650,420452594757
1
2
2
0,0114781471806527
0,0283684044715509
0,0288814919574924
0,0216385804148662
0,0203055846637149
0,0331199822245319
0,0185230771699645
0,0198340805437628
0,0252669011015229
0,028897329985509
0,0259204600193129
0,0289182269627047
0,0199102778589419
0,0216351249815194
0,0138796600543651
0,0264766428648734
0,0220281660611345
0,0260624764309338
0,0176066499652577
0,0324985882964653
0,0240978981911739
0,0277819898140336
0,0169367180748593
0,0173167391564613
0,0187307019034518
0,0255564800774484
0,0161241212741566
0,0398397575103472
0,0234936879060283
0,0200224010363737
0,0170588493593446
0,0301090335552048
0,022180139928291
0,0287036137690198
0,0162850236466161
0,0235728573341133
0,0309802955888461
0,0292540788917508
0,0162218464022801
0,0254285306948192
0,019868634091752
0,0291193914237496
0,0227213850559703
0,0258498977179169
0,0188732133561905
0,0279976888908838
0,0298454009637361
0,02958184111334
0,0178364727168152
0,0267644509914478
0,0190087764173171
0,0228054761106951
0,0175759329829016
0,0222111836733208
0,0233211813265279
0,0255105470322055
0,0200546995305459
0,0241824490511246
0,0170703627368024
0,0209075601837408
0,026951016284285
0,0269215230375682
0,0185437238634405
0,0202031465047463
0,0210672835333167
0,030671576408044
0,0179695748564001
0,0201711023327804
0,0158009138321727
0,0249013587758881
0,0155012437340743
0,0281512353658255
0,00906020176688918
0,0244909488958588
0,0169763810004458
0,0263527336890277
0,022804224582583
0,0244316220648906
0,0124448379797802
0,0350849830990941
0,00848775951033585
0,0266620097992623
0,0135791945412303
0,0179149387006146
0,0229232518563217
0,0271022662288859
0,00984058759294548
0,0316849868054053
0,00218427926390012
0,0328688073363552
0,0120926829854953
0,0239535099764117
0,0158524353558999
0,0281726614868679
0,00366751954393726
0,0349064855540974
0,00848471679208626
0,0291769855176763
0,0106648866377845
0,038547899052649
0,00166493400082477
0,0385792236045899
0,00319925035974511
0,0176922264495272
0,0477874210168238
0,0120098916730841
0,0282084014842887
0,021326464251716
0,0178648707571908
0,0304719213061711
0,0169524268233545
0,0239283532379784
0,0172124158549334
0,0208863048705067
0,00685294015857225
0,045283794524769
0,00503277109790236
0,0337652232555047
0,0132628222833581
0,0374802347231171
0,00271178270124033
0,0539021661444261
0,00431735279393521
0,0299300552378621
0,00969434025518849
0,028648648733022
0,00175070773208315
0,035973426367517
0,00624390515646216
0,0283761176394633
0,0104388965366906
0,0281378403889749
0,00428838879733244
0,0256940365932353
0,00673943880380705
0,0178982631836002
0,0191151781161305
0,0107266266812475
0,0282620869866745
0,0395782753327105
0,0143890258270679
0,0265613513968555
0,0160792739708522
0,0175788666480039
-0,000962884019983079
0,0257192405275073
0,018260619951089
0,0245943020437265
0,00914020464635111
0,0268525147651476
0,0100219827357085
0,0209352170615285
0,0205032384364441
0,0253393592340699
-0,013122462472854
0,0787527940025657
-0,00882965217377541
0,0375702324931489
0,0184447248642081
0,0135514538731479
0,0145764991193083
0,0133680000993642
0,0241158155265466
0,00794735650085556
0,0185763490692117
0,014424271330456
0,0274333653687569
0,019158616359135
0,0178187673834518
0,0231163464963172
0,0140177523982059
0,0207871137747978
0,00543761862424973
0,0547230249406189
-0,00287447583054963
0,0292913688193503
0,00958684410527679
0,0257688200129105
0,0041178735548318
0,0305863846778279
0,0156028770736694
0,0222041848533214
0,0140493042551847
0,0237693700029857
0,0139261220740737
0,0251956950517846
0,0054771005497999
0,0218365275807076
0,0117300822623924
0,016890298186882
0,00169082539116242
0,0305829323033411
0,00430696215262086
0,0205030010996754
0,0198917251198571
0,0111081282699731
0,0291414090908456
0,0163408809932618
0,0163429351312427
0,0168416907343335
0,0143123384895558
0,0208209901038044
0,0164154599405446
0,0276410031133318
0,0155170493320171
0,0210716551264664
0,0193995023792366
0,0146038333046446
0,0201988631955163
0,017521940464224
0,0130805780160517
0,0100003510624732
0,0446629198023481
0,0127874677077613
0,0224152220757694
0,0195911308175099
0,0114694810523614
0,0219666087463711
0,0193441589625213
0,0143764915343455
0,00904374250869239
0,0231358161147382
0,0161032043838794
0,0196825204695833
0,0140065094372276
0,0234017075342904
0,0113070858132376
0,0173345705643576
0,018694562782577
0,0250056345701556
0,0191992157033426
0,0212777663953549
0,0169874376303785
0,0263285244814034
0,0111757794935888
0,0355668945509515
0,015045679401638
0,0192156041059088
0,0144163500841605
0,0229590845571353
0,0154532725034166
0,0228811347104269
0,0211573609985923
0,0169990393697677
0,0199570638825288
0,0164639511405969
0,0302910574079252
0,0116718283690687
0,0219222347564201
0,00702917115748981
0,041838430313679
0,01721234270316
0,0274343133526495
0,0143917846306723
0,0219293146430536
0,0123314624830172
0,0230641990633561
0,0184941371013175
0,0156254310069241
0,0118551950018294
0,0245226497582964
0,0239670488654884
0,0210823367709757
0,0215039406149255
-0,00266727419411761
0,0536341206131367
0,00629977232166435
0,00870295744045876
0,033050406087123
0,0150969980158176
0,0271145733877032
0,0220008631636137
0,0100497936511192
0,0683658959958761
0,0219551995651017
0,021290531464739
0,0152510715774722
0,0384006525470873
0,00873671219100376
0,0368326583145903
0,0148519375128627
0,0252086980745205
0,00855471012285449
0,0245781401065645
0,0512871067363319
-0,00264712242782256
0,0387021817623256
0,0167055944916
0,019593025709208
0,0177354890955774
0,0268528222135468
0,0173092897525555
0,0426891681335985
0,0269856980892429
0,0248515959819014
0,0224973920923776
0,0196137792713646
0,029417145393185
0,018217210206218
0,0274113139921445
0,0229308885270597
0,0250813988478997
0,0100764224537752
0,0334250229589816
0,01884563960846
0,0410541817160643
0,0126273120141462
0,0262498309857918
0,0334921006289504
0,0271905094779124
0,0154398146872409
0,035086860760651
0,0200419665862819
0,0300765748823764
0,0124865269855646
0,0310239293405387
0,0254523735684576
0,0338639642250039
0,0104560660092126
0,0466984388946723
0,0136600922540724
0,0336615716414679
0,0218145723298761
0,0283341662595572
0,0197267426172864
0,032735302680271
0,024883686838951
0,0319840408926637
0,0304886776248349
0,0267175979557368
0,0341355718815048
0,04999234790019
0,00400994645665109
0,0522740906239703
0,023538685717028
0,0381465526695947
0,0282117935851947
0,0329866745491783
0,0280691314900702
0,0369986863821645
0,0340273453080511
0,0370438603851143
0,0268379910594256
0,0362996831655602
0,0292237134617653
0,0428700877319702
0,0249143403759677
0,0554014010835881
0,0564310468169833
0,0372058442170339
0,0538688588395673
0,0260850991177565
0,0490527512663151
0,0379367597505086
0,0474491365714793
0,0616767978461092
0,031576147737157
0,0543754592294515
0,0315475977489784
0,0579293109601804
0,0310172449674531
0,0543457087471865
0,0400075490786818
0,0535985213568385
0,0344260688404576
0,0631376071586442
0,044662888080203
0,0612538122785424
0,0634001597689059
0,0580810639937042
0,0554551360743233
0,0714601727148728
0,0458180433240051
0,0849146014775613
0,0493264922383327
0,104835917092242
0,0593903033631725
0,0829419528703615
0,0686779861725407
0,0559233746371014
0,0806315731067506
0,0656439221957646
0,0685415629232085
0,0783565379146839
0,0748050898493874
0,0748150074555595
0,0776422626409187
0,0799730227283419
0,0889239515679181
0,0786650188469849
0,0915366186362534
0,0869494513394641
0,104455231603227
0,0863147282477526
0,0975346323344922
0,0884450722646046
0,110387011273727
0,0963935587571332
0,111691835757506
0,10067860498732
0,102496988834225
0,0994374961902982
0,111034373588125
0,117095569181958
0,0983325021348479
0,11852027759782
0,0978604702063337
0,126290219714425
0,107051344859603
0,127318818442858
0,120905252096394
0,11371387017458
0,123785662251633
0,132874933752654
0,133085728403031
0,141891932136738
0,128309184631406
0,133786264100137
0,138881305301284
0,147475426625978
0,133601246238873
0,162545700444669
0,13186466518
0,155513582417924
0,139708658079034
0,159033787154527
0,14038592211508
0,16826360446097
0,155573557123176
0,173399906062265
0,160732620074108
0,16730397265677
0,169166904274159
0,195029869270881
0,163255062637796
0,185579984871856
0,176680547586382
0,168725099522152
0,177221750231472
0,169823257106199
0,182768185186175
0,195880977719737
0,185781366067418
0,20961183875594
0,176826775585659
0,201657789397717
0,196512855535159
0,213459210624006
0,201493513928585
0,222982398007632
0,20640517856963
0,229928386553003
0,219569891267794
0,2402913842918
0,215366652783245
0,240321293678229
0,221835559892022
0,253725390421362
0,224892726596894
0,24199152421783
0,240125076041701
0,249267561688515
0,255529927327448
0,26471676184033
0,25018956109122
0,27649998402727
0,251381288741775
0,28738220707447
0,256679971600228
0,275606662919209
0,255638029537301
0,305448534879217
0,264650388894196
0,297297152058353
0,285225792516091
0,30350864255757
0,273599441310947
0,325067482714481
0,309078224905895
0,320185116401586
0,293001946081855
0,315868904553515
0,291311582284792
0,31885834553011
0,308089103046045
0,334721828945617
0,329595365009317
0,344013895789044
0,32874689885347
0,342325792342071
0,33042229129824
0,355928217955349
0,337710545674102
0,368901857057872
0,363783526541939
0,375018749635378
0,356359233044714
0,383594438184426
0,375266637254961
0,391230988589603
0,369414518385364
0,393081255876066
0,38424929183367
0,400624413287434
0,395056869124982
0,409721391947648
0,403943742713766
0,404350571999725
0,38985864209295
0,426398404172002
0,407662071533192
0,428347344805549
0,430092966935311
0,439327869228641
0,404416532874756
0,429330129047894
0,421952141120085
0,472676675298496
0,431000612075368
0,457714888321903
0,451687811435546
0,48146063365314
0,456067291597209
0,489913211934234
0,474479546052676
0,500097054273024
0,471841917121203
0,483375436637255
0,4602898513192
0,497160308533583
0,481984918825442
0,503010791661877
0,49123255552864
0,554900480895259
0,496359486878072
0,518740825218113
0,507837838482841
0,530518922254586
0,525424112198493
0,546965881693496
0,547477161678389
0,580996614567676
0,542400937512546
0,563173496792141
0,540752749377378
0,572612314419847
0,568492758476928
0,601316794858984
0,569410918807936
0,591049894986822
0,571255861053611
0,601471301547161
0,567392506996219
0,596432435014239
0,577499438632765
0,643668769619138
0,582338177623472
0,630435676199541
0,595396063465727
0,628571365455762
0,59026970807332
0,647386513738368
0,591104551449328
0,64406990854713
0,61434488694658
0,640859991829493
0,615293140873857
0,634751160854751
0,64112536767624
0,647931218999459
0,651337975114625
0,70248240613128
0,657801751962075
0,690166794146809
0,680639498497587
0,744658518195731
0,673761823604148
0,698329105034441
0,6688263800401
0,714239453933535
0,687416247741844
0,722521156459614
0,698316048092327
0,742145660589696
0,708828293573931
0,772066802549379
0,735373620149465
0,748054948807045
0,760127675675908
0,752540272620447
0,746486140924065
0,762798979813393
0,730475905976431
0,792767950250217
0,767158044380265
0,802973446497527
0,734086873834006
0,75437066549753
0,75369013104274
0,810926799894104
0,74664583995818
0,770968244876486
0,757873485668664
0,841756039016139
0,801906938192643
0,793270547983979
0,812156619028234
0,847025107002267
0,799293671973046
0,811963003795354
0,815388686241722
0,845951225038513
0,79462320640901
0,870366706467578
0,82812994437153
0,869260040064579
0,845672846280402
0,844482920427165
0,841188640129832
0,871419463697958
0,85332615423507
0,933022678602482
0,833754319205518
0,887225468987183
0,832561342830453
0,907872629718134
0,877093437895702
0,91811933544376
0,841856529849136
0,830414064488021
0,868603999294264
0,908797110571571
0,867646277797842
0,894895282557834
0,902772868321918
0,948972420895296
0,892353482503883
0,894599557137749
0,898764436775774
0,956949409901352
0,901583804040456
0,940873153200306
0,885399782477913
0,939037201196228
0,982486245193717
1,05540783308867
1,00058181877886
0,996651111251389
0,937619216870891
0,967054878124161
0,951789359812806
0,984815779493168
0,934026411579021
1,01548746286643
0,965195431198172
1,01560261088719
0,949109321361887
0,952110836421017
0,916521439042685
1,040002860249
0,966839796900318
0,995628778872404
1,00628028731186
0,977096401077672
0,944057454169684
1,08745105310979
0,975581235142392
1,02733715524431
1,07214979245796
1,04899888423009
1,00509320750532
1,0310297118716
0,956046196596999
1,02820214107213
1,00311389935872
0,98262317424518
0,963902583678995
1,04412362507365
1,01478664905831
1,06575870419247
1,01457716097722
1,11109732347178
1,03119903584313
1,04298959679858
1,08603306578925
1,13021343810544
1,0207412533881
1,09847864864516
1,03507325605768
1,0499299486295
1,07181794407527
1,07385131030152
1,04999993564003
1,05294021941795
0,987184154882418
1,05038889148356
1,072478623161
1,08644403289829
1,01926151137731
1,10447797751004
1,02082560116381
1,06000621061831
1,08394852794432
1,05919672528458
1,02400372620175
1,14504301543948
1,09900662991919
1,09189371500884
1,05379909082239
1,06872455034988
1,05382411504884
1,12295188150691
1,07763795707068
1,1321688400409
1,11136910776377
1,06740073074843
1,02236448881153
1,07186679071422
1,11082868036048
1,07228833354078
1,0714494398027
1,09130966490743
1,06703323742619
1,12120199457725
1,10876708586309
1,10231860807806
1,05919565367636
1,13470108545169
1,05096440918465
1,05947157529165
1,04890981690249
1,07649106233231
1,10659389457838
1,11939926742222
1,04941203061917
1,07302348986786
1,02711725533614
1,0384782917656
1,05103216910447
1,11548294986266
1,08976703656859
1,07070560536677
1,0333401879316
1,03213059649782
1,06195346476551
1,08270765106532
1,08440137064159
1,11611132619759
1,10198696076244
1,08562005978999
1,07746495847467
1,11640672514204
1,05704024758945
1,0762982890704
1,06528973817949
1,10930899706042
1,09034508035939
1,09955838526828
1,02444298870033
1,06068383633256
1,05805373710973
1,06249984030586
1,07532344714056
1,10095154407536
1,10931915051834
1,12085697281226
1,07473383925915
1,07356786472266
1,02195947007684
1,07325538496838
1,04540655599407
1,08878719669132
1,05654536451544
1,05967334096959
1,08548766519822
1,06862115337194
1,06685794528124
1,04998742901449
0,997678859705071
1,06920118682471
1,11137561919644
1,01112684504742
1,02857137776121
1,09525207399944
1,06254616812345
1,06272683569499
1,06145543561981
1,0653927568362
1,04665692644104
1,07360866226261
1,05861678236787
1,0595854675593
1,0501682042476
1,05900516092069
1,03747958696124
1,03550779296551
1,02119703029159
1,06865950658808
1,02612971388773
1,02933707606354
1,04488220434555
1,03701323799917
1,03608570986518
1,02668494674639
1,04249541328147
1,06736757612754
1,0069418062644
1,00143654315124
1,01267564332588
1,04611372641073
1,01110753331112
1,01118439965804
0,975529064711626
1,02417287479597
1,0227925054111
1,00754008721628
1,01457158718829
0,995579113537064
0,987360439260391
1,0298465587603
0,987916789581421
0,967165997130279
0,951108075884678
0,980990216915982
1,02454097345053
1,04544796313372
0,998154515890785
0,979717773985812
0,954160709311122
0,991656797080795
0,985979150983968
0,958128186679915
0,96085131873284
0,967845563880289
0,959590443916428
0,95808670471607
0,948437624023677
0,972672818937494
0,948056093735368
0,937651931909076
0,933892880924283
0,978730354040599
0,937226103957466
0,941170014816709
0,965185852483702
0,94118212980153
0,956506755564302
0,955157877410977
0,908701948043285
0,925742638481836
0,956732259894618
0,943583408513546
0,871817187248924
0,898239115181039
0,932557551351617
0,896696992931641
0,869329773361136
0,888201817729178
0,908712864623062
0,901034471644948
0,884621856419164
0,878554125088714
0,869309711532727
0,879038141505119
0,869292281380634
0,854914503264504
0,845148197782026
0,860320424052297
0,851705067813852
0,856159095177247
0,840271330200447
0,838887947374735
0,841247118157984
0,853343054356922
0,848198712698029
0,843465121118044
0,822675473377911
0,826272286771899
0,812909596421467
0,801915813632276
0,804087253710268
0,816008226858188
0,808101075188423
0,81166417773627
0,798770510850137
0,789063902294664
0,794550980147371
0,794118401658645
0,781821353475858
0,797977321545636
0,759666320883708
0,763086860254316
0,770179770872764
0,766466533704978
0,781566751917696
0,779793366584682
0,772660024586304
0,765161674237584
0,750313457799717
0,756361026074072
0,747842917068537
0,747471602580653
0,732488779831081
0,724071597416747
0,738008638796955
0,739161180790027
0,713878026921459
0,709191338390855
0,71670448024459
0,717517531559006
0,707145618034357
0,71239611488941
0,686211909444087
0,695381365411626
0,70035172391761
0,688410624099416
0,693568422251964
0,696796429019738
0,689760734358692
0,690059219084779
0,679547343434408
0,656161892822495
0,661152882078956
0,666887976633319
0,648544041632829
0,660464604862508
0,671039413413272
0,658763763083394
0,631702609142061
0,658832409389964
0,656606935260696
0,626738159364991
0,629659595124138
0,63908600781495
0,628525235227766
0,625755349897797
0,623920081412046
0,627575930716583
0,62248724915061
0,625311357494992
0,617799348982954
0,61349609315644
0,596992211519059
0,603414626856227
0,59426537981382
0,573225313493418
0,579933341572347
0,600128915917724
0,585749029738709
0,580645503367553
0,585703090067524
0,573374722424202
0,566125910425628
0,572132895968273
0,566461384728098
0,564888430975571
0,556808736105077
0,550695751515145
0,544904927323513
0,55605887160005
0,545780484743978
0,552381155716957
0,547075976864853
0,546580957310442
0,542005913461008
0,534107000922952
0,532651499347102
0,534321609013763
0,528173397764599
0,526875532879574
0,529685566285722
0,526201536436918
0,513304770549298
0,514400492572459
0,51470167788076
0,504599499530856
0,503988490743009
0,506689238632318
0,490201967304811
0,493871111538923
0,500215718331397
0,48957568632424
0,49745157178075
0,490194096470586
0,474366437392546
0,480118086593976
0,486185252857574
0,473288614927788
0,472319983442423
0,484322433304806
0,46129178287254
0,474472005764204
0,480015376075131
0,465921744093554
0,454959159519246
0,456625593681283
0,458045616434705
0,458416154672575
0,455449114654779
0,45763687140504
0,444981936849396
0,437166641272683
0,447319693397864
0,445279520843165
0,438377059620382
0,440044392316858
0,436419129129393
0,430964508765051
0,419885637600155
0,423846848317509
0,421172074425152
0,428451809592096
0,424816536195885
0,417930378401062
0,415590805745828
0,418859344123707
0,414454370978866
0,405040467116669
0,401145945665057
0,407860071991452
0,400096867637082
0,396302547766215
0,392974237379072
0,400004953929073
0,390196253672091
0,388108881744597
0,388537872376648
0,384707995747392
0,390827023475269
0,38893182080499
0,378869862058372
0,379228208568156
0,379192153251417
0,376309449904319
0,368077334867622
0,375605804203666
0,371595563434712
0,366233070523103
0,362069715390045
0,364532173653244
0,35616332854175
0,360433447176109
0,359039635957874
0,360620660003087
0,361867307382193
0,344425090354585
0,343909920510572
0,340195949398881
0,34125554335111
0,344747429723405
0,340509595861175
0,338240833955865
0,336680115843254
0,33154207396057
0,332715809247753
0,331608733296846
0,335588825553048
0,33291415447556
0,337959639000651
0,330715867370745
0,325888902858028
0,332296889683751
0,331285643621256
0,315381593471334
0,320613686077812
0,326853905747511
0,32104291437052
0,320769818921842
0,318222616418155
0,317088242206543
0,312034108566002
0,313983971195142
0,310969490876248
0,311760036629653
0,310930724172078
0,31775793379853
0,312190645685647
0,31369702129712
0,311706111221714
0,313508212660099
0,308694927086675
0,308640361276194
0,309461306424853
0,313715165389905
0,313203189629876
0,31538992137777
0,311577077516357
0,30762765623985
0,312252741487518
0,314529071197231
0,318656531447309
0,317798170453595
0,317734242917621
0,315723810568994
0,325804386978043
0,324346069979807
0,32032796715627
0,323482675943022
0,325051976600445
0,323987304572816
0,327189288898094
0,327469747335156
0,329501531740857
0,33070902964969
0,329585209450305
0,332180107440512
0,33948261324023
0,336345339456589
0,33938812450475
0,334588002775421
0,335172813657746
0,345523440920275
0,351777092444605
0,349802741309183
0,342769614621964
0,356675404963621
0,359648213938152
0,357015577138478
0,352397928179582
0,358121054221697
0,363172432520201
0,363171155077278
0,368883556785275
0,364489331157717
0,364496955919689
0,372144400607846
0,374900431217383
0,381186695394815
0,372867995565568
0,378976469860587
0,385627510434078
0,392129624708078
0,392488321906765
0,396458076813041
0,404162657522051
0,40179922186299
0,40538881715552
0,398238321071845
0,405597959543203
0,417318088618908
0,410438083823295
0,412996406270461
0,419907815592179
0,420854084406032
0,420894889041744
0,422135458165857
0,423470478852765
0,422059937727823
0,427843742181653
0,429044628012069
0,435950696585836
0,430324011640223
0,423679776065058
0,429245080474728
0,427515626190993
0,422061019533944
0,427381102679084
0,430733134712036
0,421719504834702
0,421721621401351
0,43405979394996
0,424171267049492
0,430757749330373
0,431315790914816
0,429594667767143
0,429311957405601
0,432867854730446
0,428161718675833
0,421135457731811
0,434264388821277
0,429074910367911
0,430764091329601
0,433510289921346
0,430872999783505
0,423381867846809
0,418959143271094
0,432027193970825
0,432157754011223
0,426327591858159
0,428835235469987
0,426593665387575
0,422600651615244
0,429664079776057
0,423547214101585
0,4336997722174
0,430869265564051
0,432062107521931
0,43905482388686
0,439117174913715
0,429977216935761
0,434299468150346
0,43375433535258
0,4319672050646
0,430938907769463
0,431410694979701
0,43337625759194
0,43115820678816
0,431226959664223
0,427614438484448
0,428003716188557
0,435583247618309
0,431877382100198
0,430069610693947
0,434729852200273
0,428560496989174
0,423902499456462
0,422421754067623
0,418634580818088
0,426049050040344
0,414496302185184
0,407816409429734
0,409743467004695
0,415448811085472
0,407200234135731
0,408735241592523
0,404182220436837
0,399577423137606
0,395305806638209
0,396567448291009
0,394298174426836
0,393051884547541
0,381293669990409
0,391297473894424
0,378813496492232
0,377027224159241
0,36802962555928
0,367366046342616
0,365804165441857
0,368981514426459
0,361803736872657
0,354055950408569
0,349516263541128
0,344000870378636
0,34994930527156
0,348974471520272
0,342431051099415
0,341591488699547
0,339880526463271
0,338456072574196
0,341413314594528
0,335425976246077
0,33245332933945
0,327919754847111
0,322191641808767
0,319803610825314
0,324058541543647
0,319750400272185
0,31861993174792
0,316252840760241
0,307284371115944
0,307252007019013
0,300631752016751
0,302725581460513
0,3038963868607
0,29858204329919
0,302290203870008
0,300230304607886
0,304445170639185
0,296819996977841
0,29023358863672
0,294839724343346
0,287842543722245
0,290213391961017
0,288154182534881
0,286962900397874
0,281917959954262
0,285256961576609
0,279933763326356
0,284199904859343
0,278541234511816
0,275626075662259
0,269919545904979
0,275529012160304
0,266023504838853
0,270684736282484
0,267090444263632
0,274056118916415
0,26256793709849
0,263911350146287
0,269433292465344
0,264274617115793
0,261315458117067
0,265789296059644
0,257607574423118
0,262281176477103
0,256468258078743
0,258908238308884
0,255328583856838
0,261175850032385
0,252111105246203
0,257473463049857
0,249204793566536
0,24523409428453
0,24926059524836
0,250436843526551
0,248804269434139
0,245627996980961
0,24642532888043
0,24983630636002
0,242683116931182
0,245361812584086
0,236662398718296
0,242013693497866
0,238403603241568
0,236790960016686
0,240876013891361
0,237391346927767
0,243211303428751
0,237266760335149
0,235235260607618
0,234096166390888
0,2281410902175
0,231266011829301
0,236815165161747
0,236844694604779
0,23215636171921
0,230331145180451
0,227855093672872
0,231181424777985
0,225114320937283
0,227255270065151
0,227085994321779
0,226249303249977
0,219669744054541
0,226457777629417
0,225713601827371
0,227452500862537
0,21912702642907
0,221178342677615
0,225443027720945
0,222205687579574
0,222004491904587
0,225750222310544
0,217901383184122
0,21777741269663
0,218658310581538
0,213847092411641
0,215863407675976
0,218771232216723
0,211638542424966
0,212613613171952
0,218701492381693
0,215726617798022
0,2124362316136
0,214054734979544
0,211275415933075
0,211936080715695
0,214542317060666
0,211897589485835
0,209648580207838
0,216062625316596
0,213757264885945
0,211056273460578
0,208915045080478
0,208678727570797
0,211399030501508
0,208531052664638
0,20668320642604
0,207558459400879
0,20811246409921
0,204199852093411
0,205142812384447
0,203947499208393
0,208257744838461
0,20903891567704
0,202556310057792
0,212198035697309
0,200606892839889
0,208504820595772
0,206513607055238
0,206673942710295
0,207450726505869
0,202551741716672
0,201270158311806
0,203455804562374
0,20109956274221
0,204691201762771
0,203416642860372
0,202922285842825
0,198810270805264
0,201313309646639
0,198624116114673
0,201260071686435
0,19323134310971
0,197408459747425
0,19897749413455
0,196671076361783
0,19215957468518
0,199308875123362
0,190627140624896
0,193296768218049
0,192236929704665
0,196548618231277
0,190105600931687
0,190519861350722
0,191333430974639
0,191108855928121
0,191988898922646
0,188883691552045
0,187810053234111
0,190725576164009
0,188724215224466
0,188944765528713
0,186482607792868
0,186970602299911
0,184834430964336
0,18682899625782
0,187172738445407
0,184170128894813
0,181706985137285
0,186213657734896
0,185465442345741
0,180529028909843
0,18278259901047
0,190678743723988
0,180678664276578
0,182260156956529
0,177859705507286
0,179237227852634
0,180047950342965
0,178011470488588
0,176553373242329
0,179810937883923
0,178552729993329
0,172223168608676
0,169372687182005
0,171604162042455
0,174658422606679
0,170944002029766
0,172765462498284
0,1751592619088
0,17244121940094
0,170930724036161
0,172589752005271
0,167457450629911
0,167035628105555
0,169361068576901
0,165056288466506
0,164842527996496
0,164278118917484
0,164773139322656
0,159767244902568
0,163726228750195
0,160311611454264
0,157412252500425
0,161069637935586
0,163745042629234
0,161551098705663
0,159677531528213
0,154021707352822
0,157850969840499
0,156500396203332
0,160686549399772
0,15329225821345
0,151985719845733
0,148045322009843
0,152858782799421
0,151180952531547
0,15199754765944
0,146813518599561
0,148946927157466
0,148055065547506
0,146113062118413
0,14804788876599
0,150332016579588
0,147429429412154
0,144683496607518
0,146294575019499
0,145502730531323
0,147593702836257
0,145548568882887
0,140743883987653
0,144743894985571
0,139812593617047
0,140666180881737
0,141653395003505
0,140942845203089
0,135856479875363
0,139573131350089
0,135894490841441
0,13688429208904
0,133703931206358
0,135240883883211
0,13379381216068
0,135109687816997
0,132986607600441
0,134702448928786
0,134095886476319
0,13614558007173
0,136072840910964
0,130944452651816
0,133134991838419
0,129730381238438
0,129919403696336
0,128264632078929
0,128481694346791
0,128785702865739
0,126053028840099
0,131897385914359
0,126256771642104
0,125244290156147
0,123610857675586
0,122787557050256
0,124043609063691
0,126122689066078
0,123585772118113
0,123208840190709
0,124159164788392
0,124055676750545
0,124826875300884
0,122052696752069
0,121744525513382
0,122458585977975
0,120415030189824
0,121351530085341
0,11808914220157
0,123759626576178
0,119340375103419
0,119035059780293
0,118235744096783
0,119417519264065
0,113455157214526
0,120026434710602
0,117317069663351
0,117063030809008
0,116216787865611
0,117042115274014
0,117500877728162
0,116775088609388
0,114562997569318
0,115360236772283
0,112284873977013
0,115893559277194
0,113432643412474
0,116778888228867
0,114702097570286
0,1148223747465
0,113289507211184
0,112487523175293
0,11268631716967
0,112299782175484
0,111540425131893
0,11413493014115
0,113175358553897
0,113720359327199
0,111750855258517
0,11271156022025
0,106317233419236
0,111446596198863
0,108830227278159
0,109947777870892
0,112117317140715
0,110150718687102
0,109537856286275
0,107349088468514
0,107165518556478
0,111444440272916
0,106936018562176
0,108691313674973
0,108510256402721
0,106066613483733
0,106849545140755
0,107730397920931
0,105519130186942
0,105226620053515
0,105144218835862
0,105863688015171
0,107242125307693
0,10254174225629
0,103249295591248
0,106823545135852
0,101265941490045
0,10538055420356
0,101524222086247
0,10284569559709
0,104770061675228
0,103660265681045
0,101922438735284
0,0970623448480492
0,102083519070179
0,10093929068387
0,103796747644662
0,104199781978304
0,100718608475768
0,101616483684756
0,0991911102867043
0,0984468888479431
0,0986680529128998
0,0976109687155096
0,102410630450658
0,0992972140562447
0,0992911443260736
0,0989679488259966
0,0972705535918627
0,0991918132071351
0,100103458238979
0,0997121497493739
0,096490308516982
0,0948665365145857
0,0987109963098139
0,0975169635099875
0,0981069491008483
0,0980847371319567
0,0974780964100628
0,0962223577370036
0,0959412519335851
0,0989245823540791
0,0959835663662664
0,0976259169732583
0,0961877322381044
0,0927317309511818
0,0949628838242712
0,0959345501421203
0,0937786570137891
0,0921498587429282
0,0936022662623368
0,0951642421666768
0,0942978697329206
0,0936186073579765
0,09314096020496
0,0927693872487027
0,0916205359102728
0,0935221446713288
0,0919908704069242
0,0904352920061328
0,0908317290630105
0,0916576491587499
0,0900451412389203
0,0888987956532011
0,085212897633198
0,08508125304399
0,0894224836367057
0,0881268975277145
0,0870760174436466
0,0913837069849841
0,089318522225652
0,0892722618260227
0,0858739893758713
0,0849343375840376
0,0835471687706078
0,0840780237355887
0,0847421580626434
0,0886459469748326
0,0845410585550234
0,0836515625620343
0,0847155311427021
0,0842084431179116
0,0817081297079559
0,0813933568450994
0,083383255237837
0,0829927041430338
0,081426383767193
0,0792414691225487
0,0822209849297727
0,0829391801677091
0,076784974611765
0,0819413794728887
0,0813612006408508
0,0770381457586377
0,0806272309899668
0,080465040454519
0,0789864271480807
0,0773190675097421
0,0776697056104298
0,0757811383091604
0,0760606665016332
0,0807122565611169
0,0756505157820926
0,0789422838580243
0,0758227400351324
0,0766260024158418
0,0744598184780605
0,0755321156334231
0,0760601584821351
0,0728949672172232
0,0739268436496797
0,0728644790470607
0,0728840228081057
0,0738189716857415
0,0747136298195704
0,0717193279391934
0,0717208678481605
0,0738338583996924
0,0710675773818478
0,0709704020688013
0,0703478969836071
0,070756292203022
0,0737102873797097
0,0697227887356121
0,0714065842813161
0,0686263889981445
0,0711075676520459
0,0698972416416056
0,069262597835246
0,0671622521405842
0,0664223724874925
0,0700840412741191
0,069426880148077
0,0659177929483864
0,067090003695205
0,0673318495596356
0,0627058973737226
0,0664728008239622
0,0659396636715984
0,0647341178053409
0,0671769184621662
0,0667130514195827
0,0637708452730859
0,0657219344900146
0,0640462965831556
0,0646640270806337
0,0648689720816197
0,0638425417508914
0,063703116943551
0,061843669913146
0,0635947181077346
0,0609303982567034
0,0628004946933864
0,0665094665165076
0,0637853435432671
0,0615300860989853
0,0601377787644471
0,0600978882887171
0,0625149233169874
0,0602309154339883
0,0629777501420483
0,0622002136606322
0,0615010855884318
0,0621246423134313
0,0609822404130791
0,0622907285800987
0,0636570914749653
0,0642944287594391
0,0594804594255001
0,0608487370485568
0,0615905352748637
0,0588962037214402
0,0623994815324667
0,0603856761569673
0,062053804416714
0,062722431806431
0,0640190809080253
0,0634342440979877
0,0640633886259025
0,0645582464875533
0,0691489103762532
0,0616393097257047
0,0634858228957007
0,0633259725326961
0,063909412341812
0,0656260324472442
0,0650813318265734
0,0607679587075669
0,0673638149230695
0,0583593783578458
0,0622941642802707
0,0642053186660244
0,0693065524502956
0,0615563008369207
0,0703454148219671
0,0618121387850403
0,0643924470955425
0,0692654319638142
0,0630329683394859
0,0616893828898515
0,0642448401381055
0,0600024161315195
0,0676785536367231
0,0525128554290491
0,0642959407869349
0,0608756088164514
0,0638141644453647
0,0506075161674256
0,0648770306977126
0,0535811459642295
0,0675005659721752
0,0561022465640584
0,0657233929346135
0,0488602062990811
0,0747795770196708
0,0513014568060625
0,0767185205971008
0,057185290617668
0,0769585634230032
0,0480111367466966
0,0769418417902362
0,0483666697910443
0,0756375073523583
0,0413483177108612
0,0713353778897037
0,0431582942998843
0,0870109217662999
0,0447282014377735
0,0807842457899481
0,0380683161478536
0,0788305103493638
0,042163454265486
0,0785703166689825
0,0364605696339203
0,0718748959003366
0,0455664945612874
0,0666892746090268
0,0516818624093755
0,0557202138147
0,0629272216668958
0,0534652209923144
0,0684030780799023
0,0436356355171103
0,0738762827470922
0,0394217962126278
0,0755398450497015
0,0381171399046923
0,0771626946687434
0,0383282850183126
0,0684323992249829
0,0478321960567046
0,0594861370337894
0,0506912571009222
0,0544857559387891
0,0539381228061511
0,0534365774132473
0,0521455229777828
0,054117327895447
0,0480326750808797
0,0534432825720165
0,0488754287763382
0,0564181120064714
0,0473140670700451
0,0537340659471634
0,0481213128753713
0,0549402871288568
0,0473520481627979
0,0533324667074109
0,0490831641639819
0,0528634663073463
0,0499656627984652
0,0543015895234719
0,0475662337828622
0,0530409112178029
0,0498688851327947
0,0543535213600351
0,0478148819775715
0,0523112644624606
0,048065952744865
0,0517502004316532
0,0503717418532202
0,0523110506252992
0,0478645429296117
0,0531334126751869
0,0476290221934953
0,0535308244757073
0,0475494737369391
0,0531858675237666
0,0497742373317145
0,0536469884485124
0,0482975143946057
0,0519257978499448
0,0503223310234234
0,0544965599987856
0,0501353938112903
0,0531693667150279
0,0510951971043724
0,0516176021753396
0,0474402573077893
0,0529692204949803
0,0466520631153193
0,0539811653369034
0,0481607779504087
0,0515891728829914
0,0471983455987099
0,0520366399282674
0,0494143977635069
0,0519257808980908
0,0471599345548883
0,0546573715807278
0,048155243707861
0,0526309620753955
0,0504193802187805
0,0529944164975492
0,0478201918985732
0,0532702255255843
0,0496013948618251
0,0521568336827524
0,0473170994119533
0,0509788403448869
0,0457759602223292
0,0519865621270864
0,0496104245834998
0,0524500350592247
0,0498500878401802
0,0508975621275292
0,0489077634324739
0,0512331739260311
0,0474884422666914
0,0511762632559463
0,0480729062408653
0,0533760884025707
0,0502134071672246
0,0521123209866857
0,0466888423341015
0,0510167977927791
0,0504482113423645
0,0519305188616758
0,0489002793360538
0,051026140060191
0,0500932412306503
0,0536665308831798
0,0494897605532433
0,05135933313242
0,0497804436424154
0,0532162994376384
0,0505170243282739
0,0518847762147019
0,0492258365486024
0,053939837358347
0,0508846288345939
0,0521635642945006
0,0491569018201285
0,0530919262786422
0,0519292788664131
0,0543933440632499
0,0518128224228114
0,052862921643576
0,0516458444235732
0,0545272033440045
0,0511040915398209
0,0525501005160074
0,0516024293700125
0,0538153542145886
0,051748691716688
0,0535482366128109
0,052223002292561
0,0538664843165952
0,0493782788337366
0,0528263892119109
0,0516548007323729
0,0553411278853062
0,0523243761609412
0,0530377595436917
0,0532296552220143
0,0540888562723916
0,051423684267307
0,054735981699451
0,0510288469029146
0,0545075092846397
0,0516541077789389
0,0533827430256344
0,0518721389151011
0,0531484607860652
0,0510233731150657
0,0555703873387094
0,0513336358982164
0,0553525632662459
0,0519677678574057
0,0550891975141225
0,0529946899152102
0,055163370300602
0,0535194960892307
0,056287687170342
0,0544105026789414
0,0558071237405295
0,0536513510303534
0,0562222143528033
0,0556382991394874
0,0564015113643696
0,0541286951506278
0,0553668078582514
0,0519179110838554
0,0557231565568264
0,0527374517925095
0,0564602026938919
0,0544049459940897
0,0567900602039702
0,0539262949558186
0,0581228753116092
0,0570600825971989
0,0567799598617975
0,0552137698342771
0,0558783469667635
0,0536017068603782
0,0564977368092185
0,0549870338891274
0,0591031013792858
0,0561735924672719
0,0564260908279853
0,0559412335281789
0,0575781461199955
0,0540901481450553
0,0578068509238449
0,0535850368711022
0,0563529529501659
0,0552426477247218
0,0560606536828176
0,0533627656395343
0,0559828929487436
0,052682714792309
0,054686742000832
0,0519106360921647
0,0539797879831266
0,0520872266918703
0,0555282786301078
0,0530306658572326
0,0558183793845613
0,0536816853906728
0,0531642949416983
0,0516121285972826
0,0548126636839378
0,0531470851820748
0,0539579079676438
0,0523954788855849
0,0538906035242137
0,0513253160120592
0,0537748774645756
0,0512422831502135
0,0527563787222095
0,0510722461936641
0,0525879806757694
0,0520065272845555
0,0538000008725676
0,0517885076724732
0,0544164060635054
0,050689759659161
0,0535948299615591
0,0510340483923288
0,0522385354543721
0,0517409642637129
0,0530802665878163
0,0504023626659685
0,0531417199992998
0,0497240279170753
0,0513574344456296
0,0509104213296198
0,0534517444488493
0,0508022587586597
0,0525274077606552
0,0499310056598328
0,0533593492595931
0,0490275011350974
0,0507935181125486
0,0498077388014321
0,051156779043021
0,05125802042907
0,050093521466837
0,05117810357562
0,0531859769448486
0,0488792791791352
0,0498910339237263
0,0509145163309751
0,0520903006149615
0,0486701447080382
0,0508648821472683
0,050511272105285
0,0515152997998664
0,0481971717690411
0,0505774541343771
0,0497091663456543
0,0502786234693273
0,0472292272187823
0,0510998773796027
0,0504070696873976
0,0527775417990532
0,0495856414933846
0,0514782219798282
0,0485828973943148
0,0484277509817669
0,049093196303319
0,0522319156623538
0,0489929231972967
0,0487770124627132
0,0478681828810442
0,0487901206679245
0,0456523942909574
0,0498326146941371
0,0489303667909223
0,0515375116258777
0,0502023536111109
0,0504110272282547
0,0480623253490483
0,0486741618581576
0,0476246015783053
0,0502906452188358
0,0492093111374263
0,0495192452273493
0,0478336263090617
0,0480654377434752
0,0477028224269645
0,0509191533482481
0,0482563101637356
0,0506187650496977
0,0479444219736087
0,0478824577774731
0,0463292073622685
0,0486480634446233
0,0477682213048816
0,0498012409042067
0,0461090219750473
0,049304220604919
0,0477087960363812
0,0507588904715427
0,0465616592877911
0,0473950401763257
0,0455973847950194
0,04935285341582
0,0463701575114048
0,04712586980372
0,046239885277847
0,0465888593492239
0,0456648740615196
0,0475706517970675
0,0445262320699467
0,048639060027564
0,0455569209486699
0,0468742531674131
0,0458488905499491
0,0463881897265936
0,0450673757539199
0,0468480248852712
0,0429090839076869
0,0453050782091629
0,0433775933559912
0,0455826776337617
0,0426370100615568
0,0433267605172308
0,0404875961872456
0,0453296419419886
0,0417052006109088
0,0438416874399861
0,0415596356811778
0,0430494655921511
0,0443708721719806
0,0423681075056075
0,0411098432066719
0,0443631497234385
0,0453304826988149
0,0434475151351574
0,0403639130407998
0,0427287729270611
0,0433368088645314
0,0430591093068787
0,0427147557455324
0,040758458788772
0,0391866113248121
0,0392177056338266
0,041069475979616
0,0430289740420387
0,0412067404250354
0,0385420108408727
0,039035699844445
0,0435309982406624
0,0404849185025309
0,0376151950150735
0,0418468735052523
0,0414514361225238
0,0403123339500861
0,0376512600357143
0,0428120119791141
0,0402028612485039
0,0404223401428833
0,0430846818225591
0,0392907481441042
0,0383034310033779
0,0398571856103353
0,040197937354797
0,0386077346090773
0,040427326808996
0,0389463495828972
0,0394432890732539
0,0374414375638906
0,0383653871603123
0,0371179284844101
0,0394600140625312
0,0388056681084057
0,0385696754172225
0,0384230745756198
0,0389560406648183
0,0379176845532799
0,0419724170695116
0,0400108761352665
0,038290548266093
0,0370275421502666
0,0398111546899801
0,0370610927791629
0,0392168736568537
0,03800942503806
0,0395939580341881
0,0366252481329728
0,0396208199227479
0,0355450223457979
0,038302519649178
0,0359542360177117
0,0396840667443516
0,0369591981306804
0,0385909044261996
0,0347795660705616
0,0363769029047514
0,0371385098776367
0,0384220195864081
0,0366734481197009
0,0356810949778464
0,0352954098199823
0,0378665765521001
0,0336996786718501
0,0372817638476964
0,0349450081012298
0,0377416014185773
0,0333762186801221
0,0413993382500116
0,0319066065816107
0,0396641281590796
0,037165329505185
0,0387167790747086
0,0371472176845995
0,0356177146429555
0,0345228075187549
0,0366943613224878
0,0346849454069751
0,0350611639446501
0,0378049938858286
0,037357723990986
0,0345773644717365
0,0337138994863521
0,0360052941522337
0,0374536897938641
0,0350369247324113
0,0358345832513386
0,0352116301597384
0,0354294338763588
0,0370241335986206
0,0343814233400301
0,0366615483201849
0,0376519785292388
0,0338980059826901
0,0389429857256425
0,0357693868801697
0,0327461032610264
0,0407207534230958
0,0303924240160395
0,0400346290814685
0,0346086525012072
0,0387061661953824
0,0319615498436071
0,036383432885419
0,0328187639621225
0,0371220590104836
0,0338286263015427
0,0359566971050802
0,0374118711163179
0,0362801101036498
0,0345249107062464
0,0329646932303826
0,0355555597634334
0,0336997221978152
0,0350214737533503
0,0359812562932803
0,0337701583438923
0,034376436671289
0,0337304559670523
0,0362891533113956
0,0324451682702368
0,0373347697518584
0,0339233671431096
0,0354715073643878
0,0331162573110671
0,036284594611113
0,0341069121695509
0,0376937568802917
0,0352827166089318
0,0333159301433855
0,0373032421096689
0,0323247604994505
0,0367782232699044
0,033070050196139
0,0369570326417066
0,0333792887178639
0,0351997677315067
0,0356202433205827
0,0362196299275316
0,0333639681039098
0,0353124070345646
0,0347363257777665
0,0391281286718205
0,035711736761243
0,038442619585744
0,034010207776767
0,0329416464533595
0,0375785546446843
0,0333614631647522
0,0378338529228796
0,0326980916473079
0,0375039895779573
0,0344115505631801
0,0353539365146314
0,0326195700131198
0,0359284853299376
0,0332820162398585
0,0373238930034868
0,0360242200542405
0,0333239758609634
0,0357435973847126
0,0345488858567379
0,0345608655247329
0,0317579270057888
0,0341645431952952
0,0347641316263381
0,0367821654536448
0,0328397396676778
0,0351775388927987
0,0340365991693845
0,0371124906076658
0,0343453805662112
0,040952858705581
0,0292562737245999
0,0445169193461569
0,02037681372601
0,050381444099807
0,0316147999127514
0,0393344569057126
0,0354392770045115
0,0358282501515779
0,0363704417854944
0,0368003794944748
0,0355048588332979
0,0357227397793117
0,0361295058350628
0,0407985937326989
0,0346968719345415
0,036403881773763
0,0368150969410391
0,0378803296117886
0,0405678786413771
0,0419375699967978
0,0324787540318196
0,0404322490151008
0,0363048330646245
0,0441605567552052
0,0397787547314912
0,0345322517368784
0,0408906436657183
0,0331183264610318
0,0384209908860261
0,035833686714445
0,0402945320848425
0,0383603970465429
0,0398833707119535
0,0363644209537521
0,0383051964559109
0,0378161711284974
0,0364132868574429
0,0419736980317136
0,0371819254291318
0,0406793316192322
0,0386117419834186
0,0358749882258754
0,0408258884277804
0,0371148886001508
0,0392293110036836
0,0376766638847097
0,0392787757431081
0,0361357995734527
0,0430331857635952
0,0413322968343478
0,0399981212101663
0,0421750839319644
0,0396979560041356
0,0377232198983295
0,0439717435611614
0,0341586139220421
0,0481842397877729
0,0299922123117981
0,0478106682170852
0,0435085872671484
0,0399680743721649
0,0471437974568822
0,0344344731307864
0,0451030749190346
0,0373362238773902
0,0487280084729397
0,0350434106034855
0,0536601915846803
0,0345507569891626
0,0513799782409932
0,0308377929365254
0,0524230441630872
0,0372614164750801
0,045121976716253
0,0392414738555222
0,0469699103673741
0,0406488189427243
0,0475973123575665
0,0404935255247214
0,0434259996946187
0,0564397177218127
0,0442778633603065
0,0489871162295791
0,0467090103637261
0,0390088654056997
0,0562379398767641
0,037894541702659
0,0514680218678343
0,0415584039244615
0,0512575418608419
0,0415636116073767
0,0497316718534533
0,0525559828919859
0,0474053925506589
0,0463673383548531
0,0504754848883666
0,0432611804295933
0,0564472732418357
0,0425061063772745
0,0519831023950434
0,0419275426324198
0,060129449493516
0,028549529008931
0,0659023568718151
0,0379483744266618
0,0620843189965413
0,049503471350704
0,053282200099626
0,0508578240022279
0,052836906883397
0,0496664242050228
0,0569168131640123
0,0518440584476571
0,0567556930878181
0,0478360495474738
0,0614577883961898
0,0616366677862201
0,0536220188708654
0,0624673429928875
0,0579706244311816
0,0592137980257535
0,0751269994359171
0,0650119563077064
0,0670657815346566
0,0704381754528293
0,0652186576186489
0,0740477173007204
0,0646454341084249
0,0720136560159192
0,0712644343607748
0,0710992445685357
0,0754859901601568
0,0703637947361703
0,0792190736715871
0,0724482674095722
0,0806996371658038
0,0746343362687167
0,0831773570979245
0,0838575106816336
0,0799312455597412
0,0906058618453641
0,0734563104037579
0,0980491921682676
0,0822371136371536
0,0899892190314095
0,0869303110647533
0,088499068955438
0,093894119038983
0,0903124692529232
0,0992841009799838
0,0899597824989075
0,106541822352299
0,103326008375357
0,1061528762507
0,109027988008859
0,0995837680271722
0,132164962225185
0,0528116718913389
0,14524931017764
0,10400579825933
0,137598357396456
0,107835732989133
0,143425436982751
0,142449379485514
0,137039293585248
0,139541847421249
0,150283406375552
0,150333718720338
0,161591884985219
0,160133446756294
0,166629967698053
0,170227363330539
0,18323129514865
0,172219011067104
0,209552941287779
0,195539227005143
0,205254583836703
0,201949935788954
0,20916502452322
0,212795169913305
0,22706556762296
0,220119961086511
0,236010686135122
0,228989641780653
0,248239830773181
0,259701678474654
0,251556164608965
0,271863969838553
0,261756403852532
0,290532628302653
0,259769816663282
0,30902449413818
0,283831722726755
0,300068568973262
0,299469890149516
0,308852735608251
0,317184052553056
0,306913205974809
0,339129301834283
0,329284564617458
0,329994206554566
0,330348665190294
0,339140366499828
0,347880739056993
0,345881597702627
0,350356997628656
0,347248139251387
0,391406097397664
0,333426068171226
0,383126051886927
0,359867912695081
0,359223024157875
0,365215530008892
0,366717327171782
0,37927581912624
0,362598786762431
0,37930593749757
0,364267988735446
0,367668824203514
0,365243341526596
0,36306802166742
0,370154855595929
0,353190829419952
0,368121986076035
0,353773433244742
0,374674088552143
0,372479492314528
0,396982112859732
0,370116520562424
0,358174760110407
0,365824131950192
0,358738446704216
0,358133792783466
0,35864386096703
0,363666440398137
0,35653727142695
0,36799099801283
0,339943715591189
0,360191509129785
0,346193260285963
0,357663046440102
0,352824433702782
0,343894374607813
0,344390197304415
0,333365661036601
0,339004295060316
0,335975528739088
0,342692437621311
0,340824830477356
0,321438475584491
0,326655553294882
0,314370106855564
0,32178467738093
0,316306189537691
0,31633104369357
0,309038140458537
0,317721555340729
0,311504393518749
0,314081539303845
0,304674424770061
0,311534172710747
0,304627575348601
0,3102414380528
0,299276286836765
0,30496278941277
0,302809106118545
0,304196266140378
0,305855039712301
0,303900706130178
0,302837355954785
0,304039348633703
0,302168993518796
0,302784885494876
0,297354494557069
0,303953861659709
0,296499375039876
0,300012280832058
0,296829563907792
0,297363343463985
0,292630429766452
0,288542443904166
0,296217352298977
0,293841258633945
0,291842523182062
0,289441035751188
0,291661114745128
0,289424577075192
0,28937037888354
0,284133845802821
0,297530961810841
0,277040180508921
0,295979605128733
0,290752038305434
0,28069012593001
0,283379653947571
0,270350971349205
0,285159939153358
0,271996746975864
0,284250536555573
0,272770315253542
0,267418366895638
0,263548921305137
0,269744555780055
0,263767502496796
0,268192613458751
0,250495768056802
0,273316431345201
0,23981401451655
0,284084796256004
0,277118419463035
0,269520257916393
0,260114947189327
0,25011219779085
0,262017599466402
0,241953878482028
0,2579888717999
0,242176364667072
0,254923518451842
0,242259399055544
0,250432845868011
0,246550426070433
0,237315940231608
0,238754991349615
0,236550436748654
0,2395101615639
0,242263510339883
0,243997583427512
0,233582826735642
0,241645584607051
0,219764852447131
0,25407406403025
0,229599299864328
0,230077208905145
0,218273690405105
0,215800331749196
0,223686375559859
0,207942266464645
0,226108343469696
0,211280960825489
0,216340947465884
0,209866111005459
0,206346900037724
0,216514238553112
0,1990524149258
0,220462097051883
0,18801966671129
0,210626644701095
0,186019519002627
0,205298372414584
0,195414008387908
0,204436301873532
0,194051898613149
0,195513156260701
0,195206116160226
0,187952079728603
0,201480014621487
0,181780099554068
0,181681051730513
0,189668372430716
0,177255994325386
0,185785481141299
0,173279634761566
0,187321105433944
0,184673782409191
0,177373793518243
0,19293480539119
0,183429113105103
0,174350962734154
0,177790904823657
0,170909758605902
0,17756344017842
0,167402424174616
0,180971510031966
0,170949971616813
0,171481546568538
0,184616219089293
0,16748524454711
0,186667296221277
0,178971117124988
0,18052569915564
0,181217698611726
0,179190714556358
0,188281603181958
0,192319106068468
0,19108607928909
0,19501054376686
0,193392968870949
0,205972715660712
0,194508915460827
0,209279330271833
0,201228852146461
0,215427060118169
0,214891714509389
0,221710341646446
0,223481736626812
0,223350042738775
0,230861153921403
0,240371025854125
0,232389173665402
0,255544994842187
0,2373461423493
0,270742048202217
0,258506820932157
0,272533733754927
0,274813900732484
0,271396412487617
0,285063638321534
0,284219105621393
0,29128367741424
0,293532507524997
0,294323331968096
0,307706172691114
0,299922840884461
0,31514897826783
0,306208332640447
0,317936906930675
0,314034415931879
0,325286218630895
0,328928184986497
0,318261314197931
0,335498304154637
0,328157134180972
0,338591063706255
0,331032348431072
0,343456937132975
0,33551301730845
0,339064839640825
0,345071690965321
0,347131873714177
0,35179127745201
0,346100971573374
0,350887603754051
0,354543703501781
0,351525982762946
0,359433128165732
0,35731979042597
0,36074132934125
0,363488785442188
0,3638279642334
0,374670279707509
0,381921675347801
0,378932051136014
0,373713674138225
0,374872288263149
0,393160042846442
0,382399047762655
0,393836740256155
0,3919884983972
0,392875073459366
0,396661640551145
0,393126944241114
0,402680043638414
0,402636602405173
0,413477791836386
0,40650556208581
0,416223454850408
0,41365902411907
0,409628273481301
0,442730719072414
0,413402229038127
0,440810914701831
0,420691213359544
0,436796600135565
0,423965884834756
0,432126426631217
0,426180300462854
0,437521435372795
0,432086289625352
0,438040824059407
0,43269461292993
0,435851080916823
0,441069497471397
0,434675726676146
0,441415676497698
0,435524967687658
0,433704736353677
0,433024159312372
0,430488436924625
0,432377840824778
0,425851918784977
0,439277298532844
0,436516520913034
0,43908305116024
0,425942947767663
0,437200539546967
0,437526527883672
0,435165542264671
0,430622625082972
0,430006226871381
0,42786993533432
0,434683014587154
0,426697552385488
0,436252578769157
0,433981886686912
0,442090321124588
0,435757894100044
0,440827886286787
0,440931183044375
0,447969768441765
0,445625072844344
0,450078237451827
0,446647615203591
0,462199033560735
0,453017366496343
0,452491031500372
0,449118724886852
0,455880880896261
0,461368831421888
0,454929213871919
0,446085259535053
0,459231026067984
0,445858869417378
0,456123344493801
0,442019154549418
0,449685851198675
0,434973617190901
0,436564510633148
0,424869121926595
0,432023390183893
0,425886098011327
0,427572228390715
0,418776558923994
0,414709765054582
0,415194126971454
0,405826037746318
0,408287858519119
0,400973932221339
0,396210575660019
0,394773873239194
0,396268272003729
0,39155976735708
0,393323347045361
0,393523027526462
0,390194315785286
0,392080438888042
0,385092488687739
0,386861415801706
0,383952065238193
0,385409340767207
0,381817739004656
0,386704476639575
0,381053989197784
0,384417651659728
0,388393698207535
0,38322262631941
0,384664637796354
0,382384527157133
0,391618896316859
0,376203076276586
0,377385109670037
0,373892212283127
0,37927835601057
0,377712443614109
0,382189881498486
0,379225046249219
0,377381632342984
0,377800980335355
0,378902160357487
0,380984089878741
0,376605149133242
0,375155009223012
0,37722922259436
0,374948344775323
0,375741814953493
0,375516965150293
0,379146970453103
0,376602908886876
0,376469059961003
0,381360810290501
0,372011567176267
0,375912730690026
0,373239924419712
0,377542102719985
0,375257825006093
0,378121841124593
0,372921945736583
0,375135732289493
0,376835624741992
0,37820145490833
0,374260609068144
0,374519421914145
0,371456830735643
0,370264101085638
0,366833709458195
0,369215565855801
0,363449655022577
0,364522889521674
0,358986794396005
0,358670331576604
0,352876021307234
0,351947670733936
0,34555928584004
0,345567703613901
0,343858818155536
0,338686379773961
0,333366920830692
0,33369516170968
0,327050913902175
0,330070627932769
0,325718185589315
0,326198797065072
0,323467982462217
0,323520113572735
0,32261686511518
0,322315580124309
0,321540443767964
0,321884164386262
0,319717859870768
0,323707080813362
0,320156702840079
0,320684800402418
0,322339683063418
0,32210728112144
0,325822345576989
0,330560574051122
0,32425679372731
0,325554338940396
0,327970130752899
0,333817223507941
0,328550099153994
0,333680764295474
0,333787084339263
0,335611678367373
0,337043537243168
0,34086791715271
0,337715101709649
0,342112379243044
0,341966584616413
0,340327632789928
0,346308517238546
0,344080622669927
0,344902502904273
0,346312612984723
0,346519603528295
0,344571086215862
0,341180049479609
0,341870382549602
0,343320353412245
0,341195788136589
0,340590195073528
0,342836965875608
0,340213939388994
0,339436468848179
0,337317534077021
0,335654237911451
0,332006374940281
0,333427162192482
0,332052934444266
0,332752643099858
0,330560798114697
0,328538485607224
0,328828409283634
0,324496712093701
0,324912492272921
0,322682813587388
0,321173597840022
0,323731720813946
0,321092556589503
0,321920798677434
0,321036740369224
0,320292013320767
0,318422877982354
0,316814705824612
0,316105074783525
0,314866452635599
0,311106777926024
0,314907432277905
0,310804636080628
0,31385376818921
0,310090960430787
0,3077900246954
0,305881953194036
0,306552133982671
0,303597736795416
0,303553164720517
0,299990221001686
0,295641042968129
0,296456392471665
0,294776237123156
0,291071628914056
0,288916855580645
0,289550562084712
0,286491862096389
0,282053712483456
0,284368789885302
0,278409116423723
0,27653181267452
0,277441150582489
0,276302171476535
0,277475574204945
0,273484473478987
0,273472206899988
0,27296916302913
0,275282935607414
0,273319230058081
0,271515143069501
0,27295523863752
0,268375405836063
0,265999646262826
0,266110009264514
0,262138707480724
0,257582849387262
0,257844050009942
0,252767926973084
0,249786767311686
0,246154369863127
0,242838452582017
0,243820401213321
0,240477494968849
0,24188352275644
0,241520276014725
0,245851248626477
0,249306374713475
0,25180499528257
0,256675611854973
0,264262356351308
0,272742907165318
0,280441855900645
0,292814376075777
0,304765258479906
0,311745615953884
0,327599538361911
0,339928721410689
0,356575118223188
0,366445000871221
0,378321248505057
0,3912655637423
0,405221518336401
0,415917625461489
0,42667762371795
0,443169851400365
0,455206690909396
0,463117178862717
0,476398232437622
0,488432505705174
0,499646324373456
0,506296663093794
0,516749539775821
0,523682391958983
0,532559830470372
0,542291042897954
0,54908861808311
0,557211225041457
0,56002033338914
0,568140570130745
0,566874016446241
0,573823239336226
0,576358317607617
0,577162685175201
0,577857086029734
0,583151778812307
0,582205589211018
0,582690783007322
0,580598464937842
0,582344865514219
0,581038702314595
0,585260090244319
0,587952746403654
0,585620899683409
0,588652837956027
0,596556720059482
0,594006283148477
0,602356010072006
0,601231881297641
0,605661553069903
0,608777960283044
0,617166951420993
0,620082817291741
0,628888042003052
0,630274083283394
0,640173290090135
0,643647147388727
0,656253380098648
0,661856743098714
0,675646890268066
0,681641503886337
0,691145979287739
0,705602799322174
0,715476022421567
0,722832053356935
0,729753518849707
0,729673863818454
0,739138329715348
0,751331605460986
0,745081728170287
0,755596173795067
0,758633479660164
0,74896378930849
0,746273672128572
0,746533030511105
0,753798293111055
0,742043574301305
0,740371875964557
0,740501592084722
0,729254411100014
0,73782458981665
0,74275433333837
0,753093124188569
0,757437526253304
0,764280594226634
0,782262246713109
0,791095779464391
0,800972574996565
0,81178157159763
0,824336486797014
0,837917413354451
0,854336142581725
0,872031773946691
0,884368085810111
0,880409255497747
0,899256183524528
0,917893686232427
0,925015895234703
0,953426249102962
0,957226180505126
0,970689294935883
0,984799292828823
1,00313191846586
1,00941197611907
1,03227301413263
1,05267270581814
1,05881608257907
1,0971777282135
1,09462076090979
1,12380753082961
1,13900932996295
1,16598171606817
1,17476357477845
1,17075528050077
1,21955887479424
1,22797730936866
1,24060123116844
1,22333393708317
1,25769715879329
1,29081125649566
1,25395179320033
1,27585689679608
1,28489660177626
1,29924293995318
1,24765614613338
1,24433377659242
1,25285437838354
1,26198533968185
1,23620562004825
1,23476884323785
1,23500211851157
1,23296509717064
1,2258413463243
1,23305982964068
1,24383074196799
1,25772644688783
1,24994030572902
1,26571589138351
1,28670599773669
1,27119816648683
1,31076843357673
1,31886481741761
1,31083910403213
1,33178918072225
1,39648055295916
1,3638025358956
1,3835646881649
1,36165778340536
1,39845586262582
1,4037521619199
1,42209129778976
1,38789509287599
1,38961806183685
1,41539679444762
1,44045828564177
1,37582900711798
1,41184519748114
1,44310946780233
1,4352575062065
1,43149036021625
1,43324470976704
1,44524972137182
1,43306197638128
1,41567784640689
1,46534859406411
1,45267329467304
1,46844148667971
1,39897984434205
1,45496310968986
1,44177402465337
1,45914807144093
1,41972107540796
1,4378281105236
1,45028715369579
1,47447458564591
1,39801162171816
1,38306820871439
1,3780560502344
1,34074498030916
1,2982158741964
1,27684404050792
1,22379711996185
1,19060010236868
1,16378030813209
1,12238051922424
1,07434836222008
1,02179691405739
0,992929698601309
0,966304848875794
0,935124811999267
0,918403515976321
0,887271499081587
0,884593416253344
0,861524505045799
0,85864500174706
0,845116179995032
0,84743501454104
0,837180229291083
0,825428145270905
0,815695550087546
0,806810993026917
0,803346806392033
0,794007646010297
0,778101923052561
0,763116432899118
0,757659833122074
0,747633486752919
0,730635040945887
0,722130062014047
0,707898329045107
0,687228748806768
0,666169288020499
0,647599874891444
0,623836840153916
0,600151712671326
0,580679510641597
0,5585551896089
0,53083036797731
0,512351659853261
0,482679217461931
0,459033939519477
0,439405431715042
0,423657383362356
0,4042118170056
0,380931026003179
0,363737791392966
0,352137434878057
0,337811471855591
0,323894337744613
0,309770528733239
0,301319358970874
0,294233635322076
0,288446213375083
0,276559683885192
0,276517494980338
0,268418145818494
0,264229784940347
0,261180593697209
0,26105308381519
0,26023079784114
0,257937720489468
0,256886249127292
0,258981358208606
0,260767812282643
0,25755581527763
0,255728029583039
0,260634522395183
0,261053542063053
0,265573538484797
0,266853545619005
0,267533258326976
0,265888032044567
0,266375131355599
0,266502424138047
0,262595940872815
0,259908510042415
0,257369151771249
0,255279392105688
0,253434677356014
0,253219280305599
0,253752309769325
0,251167269906398
0,250141929294362
0,250651675005282
0,249378121848114
0,244761918621366
0,245276587552636
0,243462262794797
0,2494087468887
0,251106916296271
0,251570768783411
0,252658818290904
0,257193176766383
0,258814226579774
0,258210792460692
0,260911395630965
0,264183558078495
0,269230956493836
0,270271483657555
0,26768390193137
0,275504205753903
0,275430072125136
0,272823656217678
0,27703929513031
0,277192463284489
0,275203951121678
0,275879462417368
0,276814532923917
0,282861892221696
0,279328549994563
0,279593750957048
0,278532377307829
0,284633351811035
0,283044300708711
0,287309586027054
0,292098279769857
0,29744482051081
0,304488486041893
0,313410969664903
0,319132464859931
0,329137330870211
0,336523658373934
0,347298244070625
0,35146150870551
0,365959681870946
0,375560709314126
0,379807115513445
0,387286089588175
0,387238464663878
0,386279219270362
0,38739049631785
0,382734824115334
0,377464960095497
0,37293849329051
0,363929941677654
0,352563712673047
0,35067876712147
0,346475582597089
0,343950855832122
0,342199935458326
0,336034964028724
0,342258985873302
0,346489994019656
0,341583882005259
0,340585189110917
0,340108630407245
0,341261333896918
0,340617661339053
0,340492203732328
0,330726967642062
0,328145850105308
0,326613473883376
0,329224923392882
0,324760173308689
0,319234359367053
0,306506855337304
0,307609027900471
0,310576878704168
0,312248757349162
0,302802436146227
0,301277239982144
0,296088260947722
0,292354421238566
0,287407488526248
0,293709700139428
0,294621149629891
0,291082420760252
0,288247164375061
0,288818694338861
0,288848854136833
0,289457030710973
0,282979415649557
0,28575611962168
0,277701845593179
0,280376678090469
0,279817719548247
0,274255887135127
0,27639777749014
0,273090265196157
0,271837249916126
0,269988491896978
0,267591022359916
0,26990128888358
0,265650891554995
0,264887166581919
0,254517258249164
0,268044243455447
0,266962052149419
0,25324306463402
0,255061320311873
0,258493022381151
0,254748659010981
0,252834789156815
0,248272096031477
0,246028776386403
0,239629542363617
0,251116152331757
0,252691580132025
0,25434894145352
0,253647166921847
0,255209229355941
0,255906051020604
0,25505783576805
0,251357681643179
0,259729453936331
0,249857201774089
0,259879131772805
0,254297617356079
0,26029140765157
0,265582297510992
0,269253017006539
0,265330861911802
0,259792497555824
0,268959971565729
0,277312298568155
0,278959612766437
0,279015738641875
0,281386996410801
0,273565997963811
0,276576320044525
0,29339776123514
0,28061638409034
0,285141574556468
0,291917026355551
0,290211213959158
0,291439871185091
0,304152762763873
0,311169792777769
0,321119186523432
0,331379069340776
0,324994430374678
0,343612879065236
0,346623562830801
0,359920152054731
0,372717647705743
0,382007466908862
0,395889714558817
0,394979375163261
0,411832170623006
0,423987594494418
0,450000947157301
0,446088902493678
0,458396999497816
0,458571015147803
0,457208236060416
0,474729370201369
0,474770714422143
0,456162805292186
0,462776965458839
0,46853242510043
0,477568352281872
0,471391759786836
0,455219951058131
0,44831850885776
0,434235855116906
0,449004734042593
0,446165598711718
0,439964668945806
0,456871459217859
0,437850477361743
0,467536696472504
0,456898243177093
0,436165824516327
0,458428726329295
0,446831782164018
0,416439489902931
0,437890909841012
0,415806602364146
0,414736409208628
0,419583055344168
0,419500098898833
0,407463116961842
0,389730101947263
0,391716833718496
0,400019226927795
0,392949100166824
0,407774827108769
0,410019493508832
0,401186683705153
0,407846720507324
0,37576318036121
0,385119759562362
0,405126697160317
0,404273435185474
0,422966193010793
0,411967544651106
0,398071439014435
0,405883191538974
0,4108334972935
0,390702793444326
0,411864740567906
0,393475963320811
0,423004465223528
0,404280072715067
0,39206634791796
0,415975903908379
0,420158306147478
0,398412022393161
0,420949576733107
0,423703045304178
0,379336370707912
0,421961516360592
0,442228431942855
0,413732458187946
0,419423866201044
0,416660700637258
0,434205021989682
0,426579648767508
0,462275877549197
0,464958948996091
0,477555511851081
0,441757919271938
0,472028830805114
0,485654235932674
0,471103581574327
0,527199626491917
0,519725695217967
0,476055500577847
0,453354603687167
0,485540867874008
0,481560813374342
0,481432864333142
0,583373802242243
0,585208089965185
0,533315199042087
0,48449941160854
0,528722093098312
0,535685924841579
0,562993379220586
0,594692768544846
0,572744381661369
0,56918079765752
0,604103324228686
0,568633359341689
0,577054438900913
0,589509722660192
0,603611434746624
0,584665412232129
0,514833343668713
0,55099987975271
0,558084889005824
0,524256065921936
0,550719940643382
0,512641921104488
0,557457338758832
0,496036979406773
0,503268142024406
0,545313014691203
0,487114942725358
0,515814134996276
0,516390787812613
0,508964011062882
0,54356094347202
0,452316713187682
0,507738012749632
0,583787948280531
0,599284355312046
0,459341000096749
0,550727179865416
0,585855980211077
0,563835352044547
0,552411369530976
0,575059642638889
0,614443517485478
0,585967787347908
0,582303728550828
0,61063048296812
0,581440913712102
0,562348239461636
0,472767961652717
0,488744846455224
0,541042066477291
0,499653779472365
0,510918060377565
0,896722202232215
0,747299355124846
0,612962068415084
0,565788378178662
0,653607292484917
0,587552599301509
0,413100317234605
0,501609124236089
0,48936099795539
0,669324803725703
0,756810799213754
1,03462407341677
0,606488479114066
0,566650992562862
0,775756937736492
0,448200191729632
