3596
4000,36533379555
650,420452594757
1
2
2
0,00506939242407189
0,00568656625266218
0,0116383092744163
0,0015787212835154
0,00735303407112741
2,14100015517121E-05
0,00273623147611489
0,00519116718706132
0,0146332357956692
0,0116595762134691
0,0064759081810659
0,0107052637756471
0,00295063250973168
0,00602573244878772
0,00434175700258831
0,00799674014351143
0,00885806213138868
0,0120592582232047
0,00114779729605582
0,00557662686549869
0,014916531168356
0,000611338817390344
-0,00403651155416482
0,0110817577015528
0,00367410538846701
0,00906249864181882
0,00650265509574217
0,00247642584917082
0,0155978844271559
0,00123418457384903
0,0103239801834524
0,00345578417079575
0,00375389189280125
0,00687647913414795
0,00629136378055279
0,00946017388134282
0,004079016728065
0,0096564834862974
0,0092515135432341
0,0125189262429721
0,00522360145380724
0,00533748568221073
0,00298281182096345
0,0186597299173693
0,00869655815402775
0,00320418123141453
0,0116234146128908
0,00888460632432793
0,00619852252675873
0,0125407508837951
0,00995446463200741
0,00226746575562096
0,010625783647523
0,0113055606969498
0,00700156105877497
-0,00357323172806149
0,0115198513610705
0,00123698006425681
0,00405797157485923
0,00439296622105721
0,00540925059163488
0,00722027336513022
0,0113999983758699
0,0115989627570082
0,00735308422203516
0,00383555930882323
0,00621727126202625
0,00443119546368869
0,00380547219575247
0,00152800491654669
0,00344375528079792
0,0085366397587276
0,00512184236051523
0,0132353370668504
0,0105182397328349
0,00119076142891672
0,00950755061431427
0,00641806090257689
-0,0025519967103208
0,00644701917035216
0,00376509436870832
0,00242732705044933
0,0123024330130194
0,00597071200671762
0,00561612250943082
0,0060845414243378
0,00463140188698965
0,0147072030367481
0,0120781168279703
0,00471549012778348
0,00638505626592913
0,0104789219835281
0,010223889212406
0,0154285696660631
0,00410189996325143
0,000888571282440177
0,00136752579442003
0,00595485804958069
0,00866920201655282
0,017200092926675
0,0054144751319253
0,0061119826079251
-0,00115063921557275
0,00152739673913229
0,00356259999116071
0,00721004657348842
0,017427152312202
0,00178253610724619
0,000540184853846027
-0,00205124153947417
0,00680579459083216
0,000320028331735008
0,00932325739892132
0,00589521319437532
5,71687442099256E-05
0,00778911637375604
0,00775519227191747
0,00875715999182886
0,0105995812589022
0,0049146019351903
0,00143238901188952
-0,00744920299547985
0,00982054367538697
0,00618308684815729
0,00287854456484558
0,0118178074942376
0,00186215576479287
-0,0033087336438738
0,0114612499354451
0,00225152096517555
0,00731812457517919
0,00598975558260193
0,0070707048290189
0,00566190922969538
0,0047132927561707
0,00727620184102388
0,00139636813508625
0,00146616577603143
-0,00516504456407331
-0,0039725579645114
0,00984241742790424
0,00559729705653704
-0,00217589112196899
0,00527152324514221
0,0010560873283937
0,010061051478512
0,00519270116368482
0,0105240653170336
0,000316238685334568
0,00378623814090667
0,00975804298769349
0,00666935372381496
0,0143301530405706
0,00326591816593036
0,00501991107205313
0,00913848376248616
-0,0172234876292962
0,00633328404770195
-0,00433534794907318
-0,00466537080070471
0,00318251365810944
0,00410208502031523
0,00563975052541876
0,000883891547672603
3,49188225419637E-05
0,0037081379250188
-0,00139814534688853
-0,00339132426893663
-0,00325620700148224
0,001596040074561
0,00460539363698942
0,00680800382849189
0,00523367379890726
0,0132885578243963
0,0125332446932371
0,00718680272158583
0,00179861767778289
0,00767011077244237
0,00547612526188675
-0,0020930721107817
-0,00138962476020345
-0,00127193674322002
0,00632012563813687
0,00947379944914987
0,00613669305323705
0,0166374819556138
0,00222509609096607
0,00293030766472173
0,0113120542487813
0,00786675942829803
-0,000222451428271371
-0,000844580482849382
0,00314000829621115
-0,00125563492837939
0,00299746353205691
0,0092067043574675
0,00570531114904866
-0,00608859493048683
0,00589985680044744
-0,00330937034207259
0,0136764546082347
0,00282792412417971
0,00567440827637688
0,00824634347555891
0,00662017181333016
0,000175863703181164
0,00379978135344902
0,00457448440417258
0,0071354541401443
0,0039481238665706
-0,00137905714330486
0,00864727166300017
0,00523594744444396
0,00722378405699605
0,010448649857192
0,00288497694167073
-0,000343271593457347
0,00995646078530492
-0,0012900410944584
0,00172367135341557
0,0083739800363806
0,00601184362033138
0,00254687493351995
0,00804045665274186
0,00694076212304874
0,00484906210308939
0,00865237741176879
0,000176875351109667
0,00376498327841874
0,0126453173091359
0,0112935283303674
0,00536474479309416
0,00501711136886033
0,00673045416855276
0,00191711867436466
0,00350239859645752
0,00611093935517865
0,0110949963046983
0,00622126595983852
0,0105802102061668
0,0101121909999274
0,00493427619433556
0,00480343275745506
0,00663183010798018
0,000775549728341262
0,00400788674463752
0,0121316375840964
0,011287837595157
0,00290277532265894
0,00373896027251515
0,0177977216051736
0,00602241153532441
0,00442868513100101
-0,00526440573589418
0,00407968661282056
0,00760349920266387
0,00283734751331887
0,0041881738677376
0,000826329682437464
0,00198075483799049
0,00593944939964
0,00322642328555961
0,00776992328473477
0,0103166457216793
0,0121471858389421
0,00235225764135267
0,00703870864965428
0,00607856142045479
-0,00158921262799855
4,47699707923383E-05
0,0128859592923757
0,00649999827942897
0,0041206381434167
-5,26650616851086E-05
-0,000389368722506421
-0,0024041394154776
-0,00243161835825729
0,00821131515921403
0,013734499480154
0,0026239487861567
0,00463116754818045
0,016298184269342
0,00892284605277117
0,00862600533868203
-0,00318024392576572
0,0119737477828711
0,00180139870508917
-0,00130840570961559
0,0103392993034979
0,00487351998890174
0,00556950296975056
0,00567639526079502
0,00191067234203118
0,00441932085075583
0,0114143857269094
0,0050336614618717
0,00393954066288233
-0,00164845444638348
0,00691773078501389
0,00586891935791966
0,00950665862084569
0,00444049845104143
0,00540506911794183
0,0090331384487668
0,00935035607983872
0,00741542367758845
0,00934065010027779
-0,00568404786261335
-0,00252054437920617
0,0138760957625868
0,0173419703062857
0,00256666467262452
0,0103268506571909
0,00304702302762843
0,00192303522616948
0,00205067010471738
0,00802118462079944
0,000785850279722016
0,0103535507761237
0,00757124555329119
0,0101702706676817
0,0068278148324776
0,00814566643853421
0,00998541608671717
0,00835385716593487
0,00976712710329171
0,0122146510133052
0,0128797336883165
0,00569507261296356
0,00485337081215126
0,0166430755057279
0,00988219756955469
0,00149880178484317
0,0134663540860931
0,010318494795173
0,0105661427114022
0,0178978077860049
0,00629835983653154
0,00733887785843479
0,0167613479909618
0,0158853355367233
0,0149862228271347
0,0163194144678854
0,013454664139557
0,00940780807725141
0,0123722828155959
0,0155824869482192
0,0282967192561204
0,015065233621369
0,00629501850813593
0,00645623985676889
0,0127471736819526
0,0222825153113996
0,00797460007154785
0,0139591664300943
0,0172585526078595
0,0138502616228589
0,0128313032061522
0,0123426225892562
0,0188004765932927
0,0150382675752482
0,019949935983142
0,0202567947150479
0,022461011221467
0,018540108485219
0,026976517803019
0,0244507515088508
0,0279937940709033
0,0249068726589296
0,0255372134839542
0,0242016824270537
0,0244506934134667
0,0220627662224246
0,0276952406571248
0,0249298413887215
0,038536621372742
0,0222394689170543
0,0387030917473696
0,0163826554749746
0,0284012161407472
0,0245278649919089
0,0349446694296631
0,0333384148632731
0,033722867328254
0,0303728612311149
0,0374855332933969
0,0323143223671634
0,0423169561644008
0,0357248764415881
0,0352441782046012
0,0403171598941606
0,0459269900705983
0,0429741555587971
0,041984525072334
0,0378748367402641
0,0453837900542124
0,053978937802492
0,0631902070146492
0,0445578227287299
0,0423228840061307
0,0491251086744505
0,0479025735591072
0,0531399642521028
0,0535440517835526
0,055979891516453
0,0500596025867786
0,0501293563879127
0,0786779146568676
0,0529337506133919
0,0714548918212705
0,0558488766303172
0,0697684265659677
0,0728085199938597
0,0678173601100202
0,0660250364802838
0,0753267006484325
0,0622741707208105
0,0680089618887973
0,077867309396745
0,0706293077858657
0,0792761674827243
0,0723028753964651
0,0738706141128759
0,074794373050904
0,0801717265242129
0,0865085644578191
0,0835530241152557
0,0916042196848246
0,0911907513848027
0,0870245331187873
0,0941416048034536
0,0866895923253382
0,0934395450319849
0,106570658329851
0,0931907592859002
0,091605773791404
0,0954268985492091
0,117705134781081
0,103285597725411
0,102020345730871
0,100607735861122
0,105040102366445
0,106613772309695
0,118492791380832
0,107896937219812
0,117924426710036
0,114229963963509
0,109982751386507
0,12168262005187
0,121513614100346
0,125735879330853
0,124277719006774
0,136803163655229
0,131869942850755
0,135650603798461
0,13662399461598
0,13722473636508
0,146487388286346
0,142907667358672
0,150741635035629
0,146906249694563
0,158624711877658
0,165874392118502
0,155116848597094
0,131788194224949
0,144729669937604
0,161287979130921
0,166328061868869
0,155618177617707
0,169759598435121
0,173810169156199
0,174045857037976
0,167620629464666
0,173204409766644
0,178927534058101
0,177297204160338
0,179314715163319
0,186663113679271
0,180903146098386
0,189860882408476
0,209011373178201
0,199536683849732
0,183937041441999
0,205863849562753
0,203109240470954
0,216447003874391
0,202647950017235
0,225235135709479
0,213665468267144
0,224317895906449
0,215523544459152
0,21768018090041
0,218628871130529
0,219270063609466
0,216207841262562
0,217740469368204
0,234798928943589
0,233797294472307
0,22985807639982
0,244236364742728
0,238257133465168
0,254338390242633
0,242548728252927
0,265593394952837
0,256285117600319
0,231157247855139
0,2547863971739
0,272101909706346
0,261226645893485
0,266953511112201
0,283323510091244
0,294852377106499
0,295348659338205
0,286562662674403
0,272059106488026
0,281096543814861
0,288693416787989
0,299487583957287
0,295532213474328
0,304570486160503
0,294943290980982
0,301708185166679
0,304933806400105
0,315950063910278
0,316787536316937
0,334793554832174
0,311538341057096
0,316668234569164
0,338783707203609
0,331079142269688
0,305073563709246
0,334636701885906
0,329098871310438
0,337246161073111
0,339631946012566
0,344663719473593
0,341113267906542
0,356456743224449
0,344129230991167
0,357540574844286
0,345636924956627
0,362708855647512
0,362391896197797
0,362338990162819
0,369359706616133
0,396515087825564
0,36141634568979
0,386068422163405
0,380372887217319
0,380316330105157
0,371219199211992
0,437810937131127
0,402894986585228
0,398872407042937
0,399554302615917
0,400854909878968
0,399016923227749
0,407233064811595
0,394395417018237
0,430568908852111
0,432261201941188
0,432403938036927
0,419419237478783
0,434662832311621
0,43676856037893
0,435217022403061
0,426225065324891
0,412117887077833
0,433153804103018
0,454516575592749
0,437387650249292
0,454858172911977
0,446447840727202
0,466546011355894
0,48185465667913
0,465983653196494
0,464116524707177
0,493019876973516
0,460056918449052
0,47122385825055
0,487186320466311
0,482058461639414
0,453745094122665
0,507529444917661
0,473206350785528
0,495285713610937
0,491794672057675
0,487483244874071
0,499082955970743
0,502864561336988
0,491065464593522
0,500864888188625
0,501080727805519
0,527419106036067
0,503141732896213
0,512556012849777
0,512151839941273
0,518433503157148
0,505991474023176
0,528536933710765
0,53543490087131
0,529676126241498
0,519169030668749
0,535171170373749
0,539623882582844
0,552263456583989
0,519048057571445
0,562867017873977
0,545612543167837
0,558201547771325
0,549783574315046
0,573425393065533
0,550333268253174
0,568444622775553
0,553800843141148
0,552223106015872
0,546511974323513
0,572917171655304
0,584847890203093
0,577398974075874
0,564832660718162
0,574496940433266
0,601860020720235
0,597169259849397
0,557959634107243
0,594957787618226
0,593201178496235
0,581418690376697
0,570262075562949
0,609663465643991
0,584073049659406
0,613952732213543
0,592812702214365
0,580898873467882
0,591535385730917
0,608526316451523
0,591948287622854
0,613843213946905
0,604899178661061
0,597385019711379
0,606483746119296
0,592838962768619
0,587172159681245
0,636766725777701
0,642287512050188
0,62611853133984
0,642252049115075
0,627248808362232
0,608709970665932
0,655637422103804
0,63968333236611
0,617573158963522
0,60763500666424
0,65948201608993
0,66652130760231
0,660027205432869
0,640087177228082
0,626470208247165
0,64583245269998
0,65834213729314
0,616333817715136
0,660911106159084
0,646887776532527
0,641253642837353
0,633652199692611
0,653386468105612
0,645736386618994
0,659797563779776
0,63747342980387
0,647239266422668
0,646415169878549
0,652500482490266
0,643690959663964
0,685356324504857
0,645066705406686
0,668436128307405
0,646213503068695
0,67572879333114
0,680513422707436
0,666806555921274
0,648063595319642
0,695906184493127
0,680614583639894
0,696605550721489
0,649554539472241
0,659686800794529
0,653483082482344
0,683513167144846
0,6681569964327
0,67757279306727
0,668063712347552
0,668588651590217
0,643069421978249
0,68004017944782
0,671518382818622
0,665497530269387
0,681961255691134
0,679551158435773
0,669990381860349
0,674197058659001
0,673882896578559
0,694998977414909
0,675234303803705
0,668843787621038
0,636484057947789
0,663457373125689
0,649656252281221
0,669032450493836
0,664800150603552
0,666676553950337
0,671179434425031
0,689875194721974
0,680467318873802
0,687560849080711
0,661614936281865
0,705290941547237
0,677006088311061
0,680129584279519
0,692213141915936
0,694262269613873
0,669594650584872
0,680255181940789
0,629215169827818
0,672689156203322
0,684823437277183
0,677126847378445
0,678754419480904
0,679818858086428
0,665738419544358
0,673988359287825
0,652182708652174
0,670663586053815
0,65278114746424
0,65785340457965
0,677442070647373
0,663828104026309
0,657035168355045
0,681802982127554
0,662237612997379
0,66209071471031
0,643526523121477
0,658655953166259
0,667184567628545
0,673042383364724
0,664422703942993
0,658103461679785
0,64200375870092
0,666456775645558
0,668111727600918
0,663004282039751
0,662241525777958
0,667056413713711
0,67162939246956
0,665583426219979
0,645158950193
0,64885383320967
0,644624355841041
0,650690179381808
0,631228818423779
0,652641372004337
0,626230828254206
0,65361914662784
0,660401768262267
0,646717972707222
0,652171488822346
0,652381019780741
0,642220854029861
0,659236965972123
0,630444951732386
0,639708107405307
0,638126131735844
0,634650667333169
0,633112250523873
0,644464133163057
0,62875502061627
0,628606115348433
0,631672994589692
0,639417112797766
0,621165913454409
0,622975281253527
0,608043777607181
0,622996541890411
0,621718557918737
0,637950810673518
0,614937593921598
0,638641695535354
0,637762647783765
0,611941651822132
0,601203821804623
0,617229058609689
0,618561965593791
0,626170710372798
0,623133915484553
0,608546956039011
0,594121671553123
0,610192354368849
0,59028293888821
0,590860558003925
0,589823031039691
0,609920597047174
0,598765109383816
0,593644174174854
0,592178387909834
0,591603133666747
0,585253195427103
0,589149864492882
0,592861187577359
0,585180082516621
0,587941647035933
0,594637748290912
0,571111292573875
0,583720335063317
0,579338869077051
0,580108314517451
0,579581051169231
0,580726440983168
0,571903663168632
0,558817767100261
0,574035145838266
0,581248427190666
0,557138642038739
0,558089733619788
0,558867001226869
0,570300271273892
0,550621625306679
0,554534276704978
0,557821741520134
0,549633294927518
0,55241720149299
0,562129606503334
0,55048594433441
0,54159902932391
0,539337768811398
0,54678072944392
0,533183209197958
0,53655789011639
0,523309064381184
0,526193333637198
0,521434167514663
0,522803860014045
0,532697024287651
0,527830712630655
0,518500446797845
0,531458461910701
0,520756596071739
0,528702422762998
0,509931328192583
0,500717256236695
0,509610614741337
0,512770339066475
0,504820352659666
0,506593441796606
0,505154886795004
0,503685298965178
0,496754103775217
0,488894293854392
0,489997235278178
0,497845267720499
0,498179775905904
0,491117432363795
0,484870074705989
0,478000594589566
0,490759621430732
0,478300925836371
0,460768542735424
0,473082696330916
0,469929281725542
0,472066641359261
0,473342746093762
0,465255845959094
0,46068196654562
0,470022760107341
0,45401920763065
0,46138429459743
0,460924408071081
0,457866072811164
0,446959532328557
0,450825494916981
0,445848144864864
0,440964890923596
0,446997442800059
0,432863627974011
0,436127230666059
0,437937976251213
0,434838647950956
0,439627252251996
0,43124812683995
0,423937630327267
0,424667923765753
0,422966923444605
0,41916873488767
0,432210287573396
0,420593067877573
0,418847867103213
0,416315837261846
0,412350570230994
0,408270778050199
0,410268621097181
0,412040840205608
0,402152416397472
0,398803193237395
0,40295070066399
0,394519827892446
0,391174657136873
0,39317045044635
0,388191617249276
0,379134204323926
0,390000558794556
0,384245407676816
0,379945567447445
0,380249504904647
0,370319847662356
0,364539254996573
0,37292951919928
0,372836659203996
0,369955793995363
0,371597249648805
0,362815483492859
0,360966617646741
0,365022643582195
0,367997856045116
0,362527556276196
0,357510464627742
0,354023499694245
0,346947153511674
0,346752198100302
0,338373600016484
0,345940456814995
0,345227059304545
0,340012920385868
0,341820301734602
0,336358605490695
0,327691938157153
0,329717056468003
0,335055717152369
0,331258462921068
0,325095328015306
0,325369621540424
0,318938411065912
0,318367090158852
0,322898247710176
0,322189476116608
0,31312040283928
0,317244417994657
0,324079550516514
0,316422760770913
0,307883956121406
0,307456040049128
0,308440393435415
0,309998995730499
0,306226720653224
0,298209352955404
0,293038423873774
0,295034210087511
0,295928194138674
0,288765180371498
0,285348405528414
0,294558819073642
0,297345354267118
0,285453780754996
0,281363857273336
0,28493718464789
0,284883453037137
0,285306796985722
0,279086780512893
0,282750846147529
0,278611298380974
0,274693193956361
0,2758463174131
0,272819033430344
0,269708361053835
0,270503279206423
0,267400045890803
0,268394804671438
0,266788904934971
0,26435499264669
0,265236836684393
0,259265750402855
0,255762991778167
0,256238003137951
0,256873407106441
0,25428565368484
0,25259595577661
0,256252627553038
0,253385386273846
0,250080825029736
0,247199379863296
0,237862852925008
0,240895378312655
0,244123844201253
0,239562540822339
0,240370689424552
0,239720639724286
0,24238831585934
0,242318345501391
0,231803364762586
0,238260526000277
0,238764603945592
0,227844876897624
0,231708244639469
0,231092015296827
0,226903490805427
0,22831044458909
0,225398443081749
0,225782715989036
0,223618171666636
0,224103360626273
0,220442456985557
0,216507763225189
0,219522603820523
0,217479066146282
0,216530028411367
0,219045138620143
0,213443951051345
0,212879202180886
0,211971882889016
0,213094855463676
0,215285103484837
0,208151717546635
0,200543609472222
0,199800802479196
0,200899275704183
0,200920774185235
0,199448624599647
0,199175540732269
0,196587875869874
0,199628938422873
0,198712469730575
0,195084084935533
0,196610594036428
0,195870819054123
0,195294744977662
0,192728810071911
0,191996868963876
0,185044052977037
0,183691396439562
0,18214063796647
0,178294886048984
0,182942119161581
0,187549240276311
0,182038970744563
0,179833497008223
0,180972206885271
0,180411047227657
0,176428500027929
0,173796091571217
0,176881841856509
0,17415536653829
0,178258068919338
0,172089052247416
0,167898291271851
0,171623131693032
0,169904534734434
0,168735936385779
0,170426376700573
0,169404749600988
0,166450809611028
0,170149089729369
0,169072682897595
0,16623006154617
0,165701014161303
0,16599929757285
0,165063315174719
0,163306003550442
0,161707528654147
0,16188508176508
0,159248925502307
0,156395439275678
0,158311629990375
0,16036462498879
0,158683402064932
0,154606276410536
0,158124396349969
0,158617546860702
0,157448193682724
0,15680378720582
0,157604579761848
0,157950585265028
0,156912567920836
0,15914140658144
0,155909210748972
0,150813236341362
0,157363551866973
0,158056136349828
0,152970939732867
0,15413734216994
0,157463044954188
0,160138196708662
0,164479418312828
0,160762978048922
0,158083392535034
0,156354784377195
0,160621521905976
0,162917580417386
0,162703081380258
0,166696153996017
0,165215801013606
0,1639649874024
0,166782035301168
0,168697483594587
0,170762595816691
0,173226022439804
0,168163517226462
0,171748369642495
0,175126411633532
0,170706798819689
0,174755147078092
0,173110402172051
0,172082313907664
0,178447198843072
0,180489317745961
0,18205626845236
0,187092422780169
0,185898097465243
0,183915654134277
0,186176888598829
0,190351461240077
0,189255617975811
0,183495520773135
0,189651746459676
0,192062329019811
0,19375202695624
0,190627512586651
0,195064133287738
0,200989023992388
0,201860422160948
0,199969578420831
0,203953204372196
0,203445463002317
0,202282904092581
0,209888396089242
0,206659001274748
0,213750072464333
0,215382959534972
0,214459780855425
0,216208981330193
0,215818004223501
0,218653204696229
0,21913040011134
0,22178306879908
0,229556637572628
0,225762474840235
0,227000285603825
0,230594332406372
0,232106061687357
0,231852669210399
0,233058822222259
0,230497263703963
0,234501828859884
0,237262670698418
0,238875342996201
0,233617871943824
0,23168026313188
0,232267908037463
0,236806984074303
0,233345296118054
0,234175770127734
0,241273338455484
0,235419968819378
0,23554466508931
0,23709078197726
0,230930702277782
0,234530153995228
0,235471836968569
0,232207678437603
0,238801199885112
0,236190096250368
0,229332922895655
0,236252037885155
0,233429633040019
0,234967452624998
0,234145976280259
0,233229306555163
0,231543827267148
0,230044716071847
0,226653856490776
0,230149741685078
0,229887143782209
0,231648244239174
0,228163831820041
0,227296120689473
0,23631091049133
0,236142880401333
0,231438589947813
0,235536579855977
0,227846794396321
0,237141679661667
0,23106245799004
0,229622818867077
0,228654993264409
0,227621961536381
0,233117467168578
0,236426205009419
0,233156292677059
0,22885247913976
0,229474624803594
0,22900889855561
0,225854857244498
0,224023009987262
0,231366180696331
0,232512539652846
0,22492413403149
0,219513381409598
0,224886041541868
0,225579713667265
0,223959481567059
0,226464430848706
0,222931011281941
0,223428892306242
0,222096510872023
0,217666218522132
0,216763466403109
0,21638102430369
0,215549760534892
0,212018052512313
0,208436139144265
0,212757021858674
0,20703840113991
0,209003745982576
0,203573077135616
0,204102017153254
0,19755868537629
0,196484220761573
0,196349811468403
0,194513427846679
0,201318815615509
0,194018429341204
0,185115667497836
0,179356621266409
0,189465639176149
0,18602014603623
0,183146664418625
0,183862564942912
0,182597192342255
0,182116037243339
0,178789272926198
0,178979712148263
0,180198077644165
0,172591194217628
0,17062633709057
0,164025144869224
0,1649368093851
0,162758979871256
0,161246749391958
0,161215918090608
0,162211122889664
0,161189055900781
0,156869962268328
0,156021639369326
0,15315733022967
0,156968640400485
0,151814212930376
0,146366567175561
0,150526198475564
0,150611471754078
0,151674321433039
0,148350806891696
0,147813071419281
0,147256404947601
0,145894408870889
0,147014707883432
0,14336633219661
0,145602750368185
0,144233331914569
0,138288772315107
0,137658069869457
0,139276783466407
0,140264154352586
0,139084102631561
0,136010105540102
0,140222402982319
0,135366584957637
0,131065442718345
0,131458618160667
0,130835195572128
0,131990715261471
0,131518644548164
0,127138287300675
0,12716267541321
0,132745986562867
0,131240923554736
0,128230992892815
0,12786531690441
0,129859432128645
0,124832951870176
0,120472328979172
0,12415567981022
0,126264342169381
0,127013277819493
0,123482611833049
0,124368043913338
0,120545035665466
0,121633312602464
0,12234956739179
0,12455822321944
0,12541631233345
0,123521626573242
0,117011056611435
0,121308706794335
0,121130760468381
0,116813027131372
0,115260541696721
0,116959966514617
0,116420868687515
0,114811687170096
0,110756300535819
0,112428798649814
0,113062379440737
0,109034856265108
0,110190401006833
0,113005398638401
0,107871691524208
0,113364808052458
0,112922476648692
0,110678226479185
0,110916204948665
0,109533178246735
0,108788685429283
0,109096390369566
0,111150245145075
0,107455899000091
0,108886012888551
0,109200425128618
0,104860743422483
0,109429750042149
0,108130230880801
0,104585881794319
0,105345657883973
0,102237882353953
0,10813724271796
0,105656702614818
0,105379445589519
0,102565500856755
0,104831037507941
0,103654201598089
0,103845558502476
0,104670361949225
0,104951175655151
0,10240937484534
0,101547668474859
0,103441838007528
0,10286616342623
0,0982670016344698
0,10228871333134
0,101481464834695
0,09743266585239
0,0983338425415102
0,102884658145201
0,10112583191405
0,0991009069351566
0,101220520142451
0,101103799195213
0,0986635447115601
0,102039360562071
0,102343603508443
0,0970181632784728
0,100388653930492
0,102916822598322
0,0967689280030351
0,101791712387653
0,0991837847208603
0,0974420540157876
0,0991494022931594
0,0957578997399846
0,0964910615766568
0,0971256830742926
0,0983629035261947
0,0957872704554894
0,0962676399383496
0,0965959127980058
0,095949729490099
0,0935668516999599
0,0954284222034985
0,0963027625927451
0,0983378806673334
0,0974008843754332
0,0930824907863522
0,0970086165880878
0,092581628023719
0,0940987036169233
0,0958469902558148
0,0973013395072493
0,0912256815158193
0,090328705577357
0,0948448529272454
0,0924090162630181
0,0951842410153996
0,086789789913359
0,0916603377499634
0,0927380325746606
0,0918656809982921
0,0925539049759192
0,0870024307827307
0,0863662027783996
0,0934730797526033
0,0901300620313289
0,0902442213531828
0,0888320144311229
0,0881244279897859
0,0902680015924996
0,0892195172768399
0,0896543949650711
0,0908437237111103
0,0907153139300852
0,0883599661282688
0,0855893925013956
0,0863436279424903
0,0848871635107473
0,0878127151194411
0,0851867223583425
0,0847348561404266
0,0865861209993538
0,0879965962692583
0,0833711846922894
0,0851542586113365
0,0848878113279351
0,0820578615805597
0,082699110195352
0,0850799462288662
0,0818807989361864
0,0837719088902745
0,0833303664659917
0,0810716483588974
0,0825826856624304
0,0793706689167865
0,0786556607769716
0,0814313968657325
0,0806793501780986
0,0803395598336211
0,0765350513962873
0,0809430604728084
0,0773817606484084
0,0764959266770217
0,0796812830052801
0,0804118757165741
0,077158018633939
0,0766691356380097
0,0751187421388369
0,0756757417728039
0,0753353455823203
0,0786107095472093
0,0732197746762766
0,0744346028293236
0,0755988372270983
0,0754818937247492
0,0725246225204845
0,0721029744493637
0,0722053163048074
0,0728490032504731
0,0728433630354618
0,0708769184125334
0,0724986041889243
0,0714896313584746
0,0713522161661014
0,0675587720366543
0,0692627532498604
0,0722023375628408
0,066413002930066
0,0697301952711693
0,0686685619996281
0,0686769215618167
0,0691582399034582
0,0666371497353598
0,0677293558921507
0,0652355258064113
0,0630071728441654
0,0657078854593981
0,063273823098386
0,0648030253610576
0,0620411774738265
0,0639955878218055
0,0645788813128692
0,063034432803122
0,0633991061230972
0,0662745197708399
0,0620491148688657
0,0612068359693487
0,0604787484791484
0,0620341880844812
0,0647712513544506
0,0615452262326698
0,0625236910881973
0,0607733996513008
0,0605011480721875
0,056051436036609
0,0592895720542385
0,0619894984172223
0,0627278659516244
0,0576888046446072
0,0545761162857361
0,0577701038694757
0,0608198675562842
0,0572793218214967
0,0572436398968914
0,0566154201843431
0,0537106133800092
0,0599565260127882
0,0569480184096654
0,05655292950361
0,0582237433506446
0,0565276044238786
0,0562103278616917
0,0567305749527996
0,0597834243114896
0,0546778347773366
0,0524380883344689
0,0560796839706098
0,0522600633258079
0,0531598206310498
0,0548533875993242
0,0531164024567605
0,0524921214931905
0,0542465294672716
0,0542582677932178
0,0512023538168033
0,0494764136427049
0,0524785884947153
0,0543600525647072
0,0528484744566279
0,051699858461126
0,0520737610595992
0,0489509611947755
0,0508528766002229
0,0537436630627883
0,0507183893089136
0,0510816174854868
0,0486352099823872
0,0493004229455348
0,0501154330340149
0,0523613546043143
0,0513937630541946
0,05153226023186
0,0501086229599665
0,0516887865700279
0,0491165684334829
0,0471219705265001
0,0503485771551998
0,050293410717837
0,0521353132957852
0,0490681305832934
0,0469192408151002
0,0482449970216283
0,0489071999890095
0,0489017989739124
0,0492533332551616
0,0495346196891963
0,0466498569059326
0,0485948610502096
0,0465610664780993
0,0450487248977767
0,0485554426143849
0,0432970820729469
0,0466115932167569
0,0479133797698515
0,0474614120453499
0,0501292676139995
0,0476569610082265
0,0458488848645149
0,0493404339683694
0,0452726992938799
0,04659770290596
0,0466430528575251
0,0454847886468984
0,047041142290732
0,0464017748860309
0,0468989710107695
0,0456005245956559
0,0463584609024355
0,0440029777564853
0,0451950066825186
0,0450922239861897
0,0449423541386905
0,0449938812208928
0,0426686787385622
0,0431677469324868
0,0437591910175695
0,0426597585269928
0,0442225423685671
0,0455500777513882
0,0460042223306687
0,0437973548305008
0,0425701345689336
0,0427703780532234
0,0452205986346496
0,0459384825817006
0,0422695265832772
0,0456666415526011
0,0444706212076823
0,0435124951326774
0,045183229235698
0,0423005802133615
0,0410062334527816
0,0419662794933074
0,0424791452178531
0,0434609759590288
0,0437354961029435
0,0414968339124744
0,043347841272985
0,0383349837376486
0,0352663728934151
0,0420263800954202
0,0403998807211851
0,0421888612698109
0,0420846706018101
0,0407737399552869
0,0430501551818356
0,0394805274376342
0,0403140628712459
0,0410336928668471
0,0411151887498921
0,0431659637769038
0,0398937953840243
0,0410649917108335
0,0402393222514892
0,0419501901912034
0,0375223589715345
0,0402749819540505
0,0400602790155837
0,0401962180445859
0,0384324816282065
0,0390584412929429
0,0391834467985432
0,0366361070498754
0,039850144993067
0,0379484800349762
0,0387736352944486
0,0362613988153185
0,0362595576268382
0,0397174132432455
0,0385395386037828
0,0358509350402482
0,0366733000200228
0,0380687634292126
0,0412395765816043
0,0371954613114851
0,0363804947629207
0,0357911286853955
0,038241994158855
0,0345800281806288
0,0364151189435432
0,0342538754891438
0,0333631005445687
0,0371304446451354
0,0333649152182315
0,0354766926192832
0,035193718101885
0,0344031278280352
0,0371829531407654
0,0350973599450358
0,0344688944640872
0,0347697473080755
0,0330117092317674
0,0352214365346782
0,0355183701779119
0,0350457218849014
0,0329321260730145
0,0353923662875992
0,0338344478845525
0,0341669766173965
0,0308674194030395
0,0314816758952206
0,0323235146265211
0,0317716732539614
0,0318535761859392
0,0335027079447709
0,0320936013188204
0,0293868883178756
0,0301868196935687
0,0296552100053092
0,0339344087788085
0,0330937724926686
0,0311460747663471
0,031610191636442
0,0329137340808137
0,0309588075182058
0,0305628730466546
0,0297205915018661
0,0310921922407112
0,0302419712233617
0,0307406818475142
0,0304004502126666
0,029805952023287
0,0285531841760663
0,0282869220507798
0,0291070625998037
0,0281245996906606
0,0289818849333088
0,0293312330345246
0,0297575592982283
0,0248820945890064
0,0273336105639254
0,0295167047918119
0,0256709238725893
0,0289279939873229
0,026893032212241
0,0275992838877452
0,0237672252202682
0,0255991666776025
0,0271299799666128
0,0271418192654284
0,0282526230203523
0,0300417524434266
0,0279785969956221
0,0268858862026815
0,0255376052906069
0,028403394924422
0,0272134373730002
0,0279913307449351
0,027221028060795
0,0259906576633559
0,0249128497243936
0,0257165629324216
0,0276981049706181
0,0255068077033899
0,0236103579657377
0,0251468040456444
0,0253003752264557
0,0251163362195143
0,025033189197662
0,0267753829351155
0,0248028266926612
0,0276130692083448
0,0247220991797177
0,023545666571352
0,0278605329584181
0,0257639114357846
0,0251532128061216
0,0226768136809085
0,0239274427677175
0,0256442772531524
0,0235219831047208
0,0237400856594981
0,0263820403252195
0,0220135295212433
0,023393108853063
0,0254735438018638
0,0260783639104179
0,0229605831061266
0,0223289761112778
0,0230217331284855
0,0215969318846286
0,0235950014271113
0,0256179324174052
0,0245433788600966
0,0207154062815539
0,0227719670362561
0,0201632221051024
0,0233686745969206
0,0237884761121153
0,0206435541885008
0,0238051530211319
0,0156261536275774
0,0168213894413862
0,0216300108687823
0,0217395174672867
0,0187685314311449
0,0195624141951078
0,0232830798166769
0,0215854347316034
0,0187784258208577
0,0186611287322104
0,0204678454647745
0,0173143002585687
0,021092506429469
0,0196173885570153
0,0199727200521758
0,0191949891017517
0,0211626064315701
0,0189927414396507
0,0218820345231964
0,0202627942801942
0,0184634798327487
0,0189415330474407
0,0226667771405025
0,0207390090787398
0,0181404336337738
0,023173273933566
0,0178271294130954
0,0213386747484447
0,0211096531259596
0,0219195303652349
0,0207687393301558
0,0215206697477126
0,0217325820074652
0,0201622683394819
0,0170098489729039
0,0159680962577328
0,0244427977625475
0,020139326482512
0,01840390213839
0,0188123882159292
0,0242011817513802
0,0170332326873945
0,0200818471452384
0,0193236969840024
0,0200495006909637
0,0199695435057993
0,0229321486347302
0,0178751968494008
0,0189496917413636
0,0187028456766569
0,0224673901567044
0,0188106365600942
0,0210838998248953
0,0167831339034935
0,0200914510391971
0,0180255514869518
0,0207350697290189
0,0178015666897098
0,0209776493924168
0,0174871724925655
0,0199636818811759
0,0189194336827313
0,0189786604345864
0,0204603125331185
0,0173364393669495
0,0204449087039615
0,0201526968940213
0,0220190445163453
0,0198006507510252
0,018754609813945
0,0195272486328805
0,0204891070493678
0,0175488456271528
0,0191763068824978
0,0181430077751378
0,0195418160957751
0,0190086292015184
0,0194176161288289
0,0202255595285866
0,0209816224417362
0,019389685889447
0,0190784760457059
0,0204515680667898
0,0191328932607464
0,0212739412898662
0,0212698009673596
0,020307651090586
0,0207200593362062
0,0182929949157009
0,0200244420515226
0,0204670018093515
0,0183873584786415
0,0198194498713059
0,0206504687198356
0,0191216200627674
0,0174197063943216
0,0198462019302116
0,0189610147421693
0,0200279975496986
0,0191646639300228
0,0182629846620221
0,0189207607675407
0,0206000419712906
0,022227685659095
0,0204771314250194
0,0212225197140693
0,0196082636821235
0,0212152247348749
0,018305455632187
0,018916875121096
0,0239661578139274
0,0212264973735828
0,0192232647842247
0,0182982806296993
0,0175498159149181
0,0201922140000312
0,0205212247569785
0,0159958869168291
0,021106351743273
0,0202229371557482
0,0199083422950635
0,0189253955810988
0,019239972148609
0,0194463865164728
0,0200480001566083
0,0200143279134542
0,0189864874738639
0,0198797895667177
0,0200834607092046
0,0202509937637993
0,0195158355784915
0,020129173774211
0,0188933713642907
0,0190495604419377
0,0190743276374897
0,0199908981351688
0,0205657068748214
0,0184544367670874
0,0188792536762583
0,0201404748718556
0,0165406061671508
0,0180889617263141
0,0189256441718889
0,0182254741397108
0,0178998521906254
0,0188502995721336
0,021196684034567
0,0222703187826978
0,0214447774522926
0,0207482329538998
0,0211668815666332
0,0208629484647898
0,0199204132021064
0,0201465561575092
0,0228998047184429
0,0213992773822112
0,0182846285941925
0,0185549670625963
0,0188787677622368
0,019744756372471
0,0212821948223366
0,018921490664211
0,0196106452241777
0,0207877875305802
0,0208330956475388
0,0210575542659291
0,019303064691524
0,0220620663900775
0,0215729991032935
0,022727118669586
0,0201101814613665
0,0199797888030109
0,021680401490163
0,0204585029601324
0,0217806377261057
0,0210722618036472
0,0163978192331449
0,0198996115976322
0,0224458296246358
0,0202402656302161
0,0198757875567838
0,0193435648552472
0,0211571306065618
0,0198939002387491
0,0204623650070205
0,0184999227298637
0,0215317405738834
0,0201266635350037
0,0218650216163275
0,0199694867826931
0,0205545654998038
0,0203572631874752
0,0219399295344333
0,0216704775071518
0,0228739096813959
0,023016395007479
0,0207249184498832
0,0207331961154336
0,0218112847423865
0,0184301988421464
0,0223194973231142
0,020959191204147
0,020978541880524
0,0213363960033134
0,0205674923020391
0,021638224251452
0,0213207654007517
0,0201614698625771
0,0204597146210981
0,0206102371891782
0,0223687215105391
0,0215409614297033
0,0211188901074301
0,0214672638258509
0,0203183937755392
0,0216204480499902
0,0220766782169837
0,0211618502541112
0,0213537067890915
0,0218209132653485
0,0223425892094793
0,022571577606463
0,0220935743374767
0,0217787195353777
0,0213083947287562
0,0214265407813165
0,0226222942705563
0,0193554829553896
0,0218746520674191
0,0217153399614688
0,0213799782659632
0,0205425499312602
0,0205717489045839
0,0221421587345953
0,0208238007375975
0,0216329706577028
0,0205789238345664
0,0213291165556339
0,023643238165296
0,0205844373940852
0,0205555008022036
0,0225442972580523
0,0224954348222448
0,0209694020500653
0,0204689372106613
0,0222211921664923
0,0221848449031925
0,0228663727377209
0,0199946856689314
0,0197330642426162
0,0225308249934784
0,0187828209584478
0,0206223705115568
0,021366660639436
0,0216052064158756
0,0210277644068291
0,0225591978556411
0,0212497991895369
0,01948136836673
0,0199367669324929
0,0219585729360018
0,0190620924333987
0,0215503924387737
0,0206798141323556
0,0214923032300938
0,022475993438822
0,0197281361154451
0,0200799547949755
0,0204455938405149
0,0203474922643481
0,0202529723182819
0,0198058446452347
0,0203727072599874
0,0195274172029761
0,0198325040894719
0,0210967881757504
0,0195564232430934
0,0198388765416824
0,0227061792050292
0,0213966863695055
0,0174583930587413
0,0204378630534242
0,0201312131255743
0,0203563486261927
0,0197765660388163
0,0198563307386388
0,0198693384021343
0,0198685263867291
0,020021026198181
0,0217839632171854
0,019451812260632
0,0185013496417813
0,0226743838233645
0,0202066598525544
0,0194129182460292
0,0206570858157213
0,0191011410974775
0,0184915901587153
0,0195085548790714
0,0193846585849258
0,0202534154005601
0,0207797275438467
0,0188062086858234
0,0188386639772003
0,0185469851003571
0,019957897437997
0,0195812206492597
0,0175466105501642
0,0200280360232557
0,019491578991719
0,0194213418198918
0,0194038389387069
0,0190876076457973
0,020035653617612
0,0191592689001272
0,019710017771644
0,0198818583584145
0,0205870383997075
0,0198546190864586
0,0184181853636882
0,0179233785707196
0,0201607429984404
0,020386742715657
0,0195168009721763
0,0199082239727942
0,0202583760198119
0,0209652408187654
0,018982992527251
0,0190327712848742
0,0192695697578517
0,019240438058345
0,0214196072870325
0,0186789328070896
0,0177808007830976
0,0202676463541327
0,0202624955461379
0,0203774854474995
0,0177910656960138
0,0186168593281166
0,0205286930626834
0,0197822666264535
0,0195410402778664
0,0183416474834503
0,0196686857192856
0,0189734719045376
0,0176132413175157
0,0174386489979848
0,0177937566789261
0,0170898128933081
0,0198931152213462
0,0196524432482133
0,0180848272323153
0,0183239433674721
0,0183210054593958
0,0178246584847214
0,0188261586555888
0,0193885861691836
0,0199672249689399
0,019802988451005
0,0194226680388714
0,0185268378987444
0,0174690869501682
0,0175443312172009
0,0189013224036207
0,0196023191211984
0,0164798346661088
0,0177380820475636
0,0172778171919149
0,0193478858816391
0,0197932227377982
0,0155102337270503
0,016937184853502
0,0173567347906715
0,0165151521451177
0,018227169042351
0,0199177049254201
0,017714359677826
0,0181118519779597
0,0161565134172574
0,0183080432601036
0,0161770025459266
0,0166404398636656
0,0188741690425269
0,0172130548448724
0,0163824558468914
0,0166069504136063
0,0164569530964186
0,0176084852242925
0,0169767758085574
0,0157475992395733
0,0162258807272778
0,0150144356829497
0,0151439237911105
0,0156472523505156
0,0160901582645748
0,0147478612509885
0,0158310280332054
0,0158854823942011
0,0149533252892015
0,014350640648041
0,0142157441914505
0,0154743887188274
0,0171799647560883
0,0154640067209834
0,017538329845499
0,0161150852892396
0,0148038065786268
0,0142963303412354
0,0155558996584871
0,0169810139805007
0,0166911754979061
0,0160653019238807
0,0160225432743849
0,0174867073792885
0,0160501898243615
0,0149285840819438
0,0159216869655099
0,0163358412147071
0,0143047036930786
0,0162506954099862
0,0166300067002267
0,0166679743659259
0,0171382851672917
0,0153411640347383
0,0143078722374961
0,0160362737905576
0,0158103908572073
0,0161115088027146
0,0154454453363009
0,01427357130513
0,0150971382358153
0,0152570293161082
0,0159744195554921
0,0163457881296282
0,0151650017021574
0,0136017355732718
0,0130094668420547
0,0145237289258586
0,0150667795966161
0,0131137897935558
0,0142675378695286
0,0146671865710545
0,0152142175055475
0,0170713014610352
0,0162199730053828
0,0175234414637597
0,0160369093972449
0,0141090905217423
0,0141315467662841
0,0133285639713846
0,0158164630015797
0,0164334544921088
0,0150820305624642
0,0156983389267452
0,0163319848142361
0,0147389480366605
0,0136743559580159
0,0155510166669916
0,0121190793621314
0,0135988540993657
0,0142875115822593
0,0139113788624558
0,0127374022544765
0,0147970773722487
0,0147679928732966
0,0141927926104998
0,0148049413072733
0,0133295214087991
0,0140927171089017
0,0140531986582811
0,0138844687996112
0,0158672585161316
0,0158935017212414
0,0149464146577767
0,0142776171670971
0,0126571868628431
0,0131626901805658
0,0142810662643751
0,0149781452433326
0,0151149547048292
0,0143106048003788
0,0140278744362008
0,0122091355177765
0,013943303201741
0,0165581399010138
0,0153946816989569
0,0146422182414701
0,0155737842217159
0,0158871285562487
0,0152467709290726
0,0138066055370441
0,0135332645253647
0,0138142857918397
0,0129852401801788
0,0147729917741478
0,0150042478167721
0,0144200704454115
0,0134029409933887
0,0139799786419953
0,0154782884115228
0,0158865344507605
0,0141734762906239
0,0134679303512964
0,0163181261510281
0,016369695428478
0,0139209391909015
0,0138261244062956
0,0144678318215965
0,0140421091342438
0,0135388289067406
0,0133682391312172
0,0140942231447337
0,0153335944639214
0,0130677406956216
0,0170409754529297
0,016212959343786
0,0149778303239342
0,0153201906137744
0,0149704298591053
0,014760775196145
0,0135081059429202
0,0119523004891751
0,0127282938315184
0,0150831802991944
0,0162600394130878
0,0148057559660469
0,0117364226265964
0,0143038999917772
0,0172434087393285
0,0148216853489691
0,0116296398953965
0,0136247235418819
0,0155270192769456
0,013112075990821
0,0135748585171008
0,0171452790826736
0,0165759812307794
0,0145514024181759
0,014043221684911
0,0142933609756515
0,0152501017927612
0,0138217841430873
0,0149355875068919
0,0154451895972996
0,0154842380832154
0,0143608422061061
0,014162477243664
0,0171182738911365
0,0156759989326227
0,0127095720463716
0,0137722252567277
0,0144819263037565
0,0147353032352635
0,0127898915941582
0,0147679773928844
0,0154352807318018
0,0135239974923223
0,0138422312034187
0,0155572127097147
0,0142756191834732
0,0127243502377942
0,015173593055262
0,0167993742261278
0,0164010508662972
0,013751344952701
0,0151167956405426
0,0144993485087024
0,0156881190633323
0,0148616204508345
0,0170201902702751
0,0175265751755314
0,0158440576737733
0,0137617559278587
0,0128049866120103
0,0152351957808875
0,0147134024366264
0,0160538912115831
0,0157555164908058
0,0159735847127185
0,0168154491202689
0,0140958814954462
0,0157836152049937
0,0171583205310517
0,0175380388425247
0,0156667183787932
0,0163204676167188
0,0156304675418478
0,014720804296771
0,0157353757805943
0,0159424966913102
0,0168085038039206
0,0151459621120532
0,0143491890743417
0,0133496230971189
0,0161915047268425
0,0167222366731711
0,0154986132654222
0,0150712393834231
0,0141898146932921
0,0176109307378553
0,0176143965075368
0,016797714528222
0,0163583006196367
0,015739131455393
0,0167727346499281
0,0184796836847286
0,0183287296083938
0,0144412963194024
0,0152777479962539
0,017478135392263
0,0176651930653466
0,0168004838424961
0,0156283046430988
0,0170832358814054
0,0168337298881221
0,0152402892373573
0,0183194499249772
0,0184764617836677
0,0200649069956553
0,018047976939943
0,018635927117629
0,0160586704944948
0,0166826008414399
0,0198630463919042
0,0196035028825793
0,0183702192767147
0,02091639962561
0,0204457685636056
0,0165877722993488
0,019135364825511
0,0177533657945866
0,0195551205690873
0,0180679629660586
0,0199531029955278
0,0183333735371968
0,0182713166141509
0,0194684529554
0,0196808770774157
0,0180980884396401
0,0190077586758025
0,017883226631424
0,022216865119994
0,0210951492395084
0,0206266113413711
0,0218902861395368
0,0196702219734167
0,0190536666568555
0,0207935720777145
0,0221897336639115
0,0219733212569758
0,0179967397979884
0,0186749183837701
0,0203192728237764
0,0202719472910179
0,0219031533813185
0,0209987524217246
0,0208393005827424
0,0205529037541849
0,0187811382731281
0,0202544047682452
0,0217614174154308
0,0230371425412116
0,0239512504762545
0,0254337399386208
0,0209729999995051
0,0215816178311457
0,0219310278685772
0,0239953923648815
0,0231612373899279
0,0232535317646817
0,0251779453285065
0,0257000642408091
0,0240046259999357
0,0286166770723858
0,0293884598341786
0,0284646720703473
0,0275652762233768
0,0284710970531376
0,0289749557469444
0,0301850536052947
0,0276642332000575
0,0297218211441897
0,0286563764959632
0,0282051774627103
0,0294094587821801
0,0282374736235155
0,0306819363919972
0,0302266944719939
0,0303019562607468
0,031670192139731
0,0340324981036617
0,0337647786157453
0,0323501015277946
0,0331484333537751
0,0350554975014067
0,0378364914929183
0,0371044213923743
0,0365528043220158
0,0296287331833433
0,0368582092157502
0,0373197764727756
0,0351871606165132
0,0374357691484533
0,0396870633813129
0,0392879488340434
0,0409777026128659
0,0415078119462972
0,0427286528131247
0,043875178386117
0,0436522874174181
0,0476404137805933
0,0481097320529
0,0458019186150685
0,0486068196414842
0,0487577338798479
0,0493423748155722
0,0516635462859982
0,0525502251540808
0,0581206790638208
0,0567176597445884
0,0585933545496123
0,0538745187738734
0,0629266135455098
0,0619773088605612
0,0661698276753502
0,0646844352668033
0,0689765487935095
0,0718317965751029
0,0767184296154245
0,076440642115169
0,0814272338366718
0,0829647303654563
0,0858974387861149
0,088702778756037
0,0942986148134728
0,0893473004105842
0,0968948123566794
0,097628446182939
0,099018336910238
0,104617837621729
0,107337254027075
0,107459468600318
0,114129572034682
0,111863989600246
0,122955957696405
0,12526967356919
0,125954457451285
0,128409689267869
0,134795573171896
0,136786553208218
0,141822709974772
0,144849552757125
0,143897112116614
0,149482274743286
0,150800649711395
0,151089951134518
0,158701143198789
0,158622319825377
0,160137441612536
0,159986000727499
0,163621363647585
0,165905184202225
0,167675296599562
0,165371891599908
0,171463235113795
0,175478662080557
0,176515529466489
0,17613357816219
0,187694463613756
0,176659323952973
0,172141870347549
0,174926352203597
0,17864103065825
0,179654437465987
0,184555611655576
0,176795318743662
0,176841894775038
0,174296266847587
0,177338678367381
0,178358022066444
0,180945903584168
0,177640117884334
0,180336678353795
0,17761736281626
0,17616987960685
0,174710395656105
0,166859357282983
0,170772512240848
0,172689357671912
0,176597478523669
0,176236528219729
0,175721834647207
0,173909657345801
0,173352752184608
0,177468558909587
0,174950003850077
0,177042345771045
0,167444441681616
0,168742792089597
0,164545213401971
0,168110495952965
0,166908900881532
0,165442241506681
0,166573829646575
0,163381672558947
0,162115224374062
0,163683056792617
0,165858794319072
0,155459344821518
0,158392742974339
0,157737797159652
0,152999162256337
0,152123922806867
0,156168185652473
0,157059115991236
0,155453293225431
0,154830284542824
0,147893693835642
0,150176629782169
0,149097819730375
0,149901365763035
0,145648799184528
0,150505356511484
0,148644901740884
0,14894534399109
0,146935581343351
0,146303596729814
0,144189509707081
0,142953438076138
0,146019894376853
0,144296790779127
0,144238094270542
0,145165723606429
0,14517135126129
0,146331945082171
0,141760557794677
0,144936817580191
0,141295340241785
0,142310083950368
0,141061604062127
0,144109435757192
0,141355633593787
0,142131002794484
0,141675370431009
0,141407352113515
0,140360441546942
0,143273653139536
0,140331303530694
0,139996658799065
0,14232919542926
0,141926338069737
0,13267922331583
0,132382603468258
0,134646224347475
0,132649896713447
0,13390175449957
0,130316302340102
0,129965452754376
0,132394366008455
0,127654971624025
0,128502605061965
0,127855654421296
0,125952654780449
0,124708875766789
0,127438094989065
0,120995864012629
0,120120018673222
0,133804383247939
0,121785772336889
0,126555466134122
0,129585495883248
0,113824533991418
0,115733318585077
0,115717143546947
0,116182335165061
0,116062736053617
0,116263253983973
0,114050486908119
0,110722195180773
0,111849288552938
0,110188184738973
0,112375386925487
0,112527630538083
0,10789522321023
0,111156633410582
0,113635205256702
0,111992514897728
0,106137376293442
0,105908251814815
0,104582728334426
0,113117872514797
0,0996046728158591
0,102565433654931
0,0975640638942479
0,0994559118018256
0,102293562545297
0,0990935139133067
0,0979706995271505
0,100249376174283
0,0984051157378279
0,0967726223314227
0,0975055150636202
0,0964562919650751
0,093748411877613
0,0974242092627525
0,0933573421231381
0,0910409979069558
0,0911231143085235
0,0952988539445358
0,0954501607351627
0,0895178748916954
0,0868101534831465
0,0888941112776225
0,0843864381184932
0,0854030040024206
0,0855486754387034
0,0902662680880364
0,0839298076479834
0,0852070953447393
0,0824513522053459
0,0843061823162459
0,0834588994081505
0,0802584251655225
0,0790027519164798
0,0871744978327333
0,0726092059538933
0,0796845317351778
0,0793332989430648
0,0796678517591063
0,0818530667651126
0,0797224289543834
0,0807154667923398
0,0826274677951314
0,0813380339846175
0,0822689291074336
0,0822930854661889
0,0858292835963411
0,0829608047738058
0,0850743874753923
0,0878971902620743
0,0883322033256637
0,0869326439300797
0,0861036895465254
0,0888507697532435
0,0942608976305286
0,0898855596848556
0,0963010960864612
0,0941737637208684
0,0942136494445315
0,0987459576027594
0,100068687252756
0,103346871768244
0,104332126898338
0,109810653437159
0,111243092607251
0,111361388908898
0,114140927245839
0,113740858712465
0,1181381115164
0,122548050057124
0,122370344977383
0,130837597189437
0,13210848465181
0,134371513776922
0,136128168822917
0,138990451622714
0,143704109711951
0,143077500045786
0,144305015956722
0,146849185420975
0,151003704025671
0,149116819366223
0,149985561392647
0,153217590949642
0,156035914493352
0,156182046589657
0,16491270747786
0,168941055801041
0,163281155997729
0,167451510195564
0,163407280735732
0,167814450754354
0,166723020985597
0,167304756780129
0,172534988275043
0,171895584529438
0,174099598557535
0,170119583923423
0,171918791172596
0,178806183407956
0,175396174845
0,176381023495671
0,177854868833735
0,180583969157668
0,178108953351621
0,181364807103594
0,186254481351488
0,185288396145894
0,186202660225573
0,187423727259685
0,192157881830941
0,189870723097468
0,189692308944316
0,192061254400769
0,193388779500643
0,196453547189069
0,201387396831881
0,198623859195589
0,203732774263095
0,20393460230341
0,206509778903203
0,204391692135562
0,204207717358321
0,211177402738804
0,210439517127407
0,209305209860893
0,21149804827607
0,21484610043485
0,214777629419382
0,217924658373036
0,218526352481705
0,217421619394761
0,214059879123879
0,216417164711107
0,21863405731806
0,21994556651287
0,221591716653713
0,221490627595936
0,22095229068637
0,222095412700546
0,217108715030373
0,220629853262003
0,22022746484448
0,219824317705603
0,218605751137002
0,220201688963432
0,219706861150056
0,217898467411652
0,219047275760046
0,219342548863028
0,218875516195524
0,215263317713518
0,217708240291721
0,21661936413533
0,220658153923491
0,217572944232612
0,215775428653237
0,215114708983407
0,215028778146457
0,217448993289149
0,216821643713252
0,219500696874612
0,220215443747194
0,221688187208095
0,221783870517644
0,21884611941548
0,222192234696312
0,220596206646621
0,22232160787283
0,222375766184504
0,228759682225143
0,226077211983766
0,225139570676052
0,224326328847638
0,224920213422599
0,227425755669454
0,223971673966187
0,224865503631896
0,227637608483262
0,221364858714364
0,223787775542426
0,221674409922029
0,222212374605154
0,218911527342716
0,215467396252524
0,21348563404418
0,214966631708399
0,211837015898869
0,208863446287791
0,207814002079023
0,205937777812354
0,20277267617302
0,201352097610385
0,199219341542649
0,20138826377847
0,196732530114372
0,194965429605997
0,194399394008512
0,193080597316203
0,191177097762697
0,190205417266573
0,190142254533214
0,194037441103196
0,188387730002065
0,187283688675219
0,186810571765025
0,188278958810357
0,188026699845384
0,191596129765732
0,185731960563993
0,184765076030713
0,183923810657505
0,186013239007034
0,184422288703348
0,187776429366204
0,185669482069151
0,185306129759365
0,189021357750563
0,186447774779264
0,182460429445584
0,186647786111653
0,186271987156261
0,184451767779218
0,183994877536421
0,182161228799811
0,182080364919717
0,18251522452455
0,183540293029417
0,182667607055004
0,182832734211506
0,183455187744038
0,184205969537101
0,180399540502973
0,178213132689488
0,18299132496129
0,182406255746245
0,184326506293172
0,180036702189131
0,179842197312633
0,183348475879759
0,185795627380013
0,179747892265567
0,179814010032318
0,180681783739749
0,180690674045608
0,179873521208406
0,181222567848677
0,183494319078303
0,181148390887286
0,180340133029417
0,180242344860306
0,179894279547101
0,181165245714569
0,175166836252074
0,178940516775866
0,17529446029111
0,174422587022358
0,171444982661155
0,170158357183296
0,169312297961653
0,169869764011661
0,166312934340945
0,163611774818507
0,163121582652001
0,163373078241736
0,16089193411355
0,160773418920584
0,159254122087344
0,155593870058131
0,160151874133705
0,154837144426934
0,157509431138508
0,157138138885649
0,155296146543275
0,15399639401915
0,154848673618898
0,155438320511999
0,15311989212103
0,155345956919293
0,152459320371977
0,152617400390889
0,156512198169899
0,154633877018299
0,153907434383122
0,15568190536067
0,157027330344478
0,159546405073669
0,154843197602069
0,159854044928064
0,158297291898029
0,159953397758526
0,158176415832013
0,160182711084072
0,161950090298715
0,167080724714899
0,163420136380939
0,166577774006454
0,164578067927864
0,164720593868776
0,166156660031692
0,165194230501438
0,165538557347481
0,166877478381385
0,16564130045053
0,16671340330669
0,165453001428709
0,163494641620136
0,165589094056763
0,1660507646447
0,163833302635723
0,164006112297582
0,163366727768277
0,162683642937689
0,163660853674378
0,161265272813929
0,160359785352369
0,15949538013726
0,159116049967281
0,160103600962281
0,158839175097385
0,158259899071579
0,157232734340599
0,159249049517635
0,155633764104739
0,157638744339046
0,157409268896466
0,153872597990264
0,154757428005297
0,154156360710454
0,15420019238494
0,15374335285068
0,154347392161621
0,152742325226685
0,15158065648175
0,152046921154996
0,15042979829781
0,150491770768078
0,149085633106928
0,148714329317597
0,148660175611307
0,150767293880145
0,150243819820169
0,147211809373484
0,14537104626486
0,145173744464391
0,145943979780089
0,143751678752286
0,143119394811881
0,142039989220112
0,142013481518294
0,140727598289925
0,138514412510116
0,138107943602885
0,136595840211046
0,136709209283113
0,134574688318369
0,134765524544837
0,13421807773935
0,134761338873501
0,133159838806462
0,133990105844028
0,134843397465759
0,13445803275797
0,132488908989577
0,134367535862876
0,131933634860123
0,133850973050615
0,130871435412511
0,131271908977555
0,130355822508188
0,130762068970673
0,128051464849653
0,125582050585648
0,123757774300096
0,123334730920347
0,12262310808226
0,12108939030722
0,12079332364028
0,120224164799906
0,119202483770522
0,121300841039526
0,124474677033607
0,127653213271188
0,12948743429368
0,131089532788318
0,134698936200756
0,141388253711934
0,146940396239663
0,152999320088071
0,156832412707748
0,164179982111721
0,171041360124105
0,179443365371246
0,18676055532914
0,194163641329083
0,201421929660554
0,207828911593791
0,21648188541234
0,220540003594745
0,229935985066688
0,237133770336135
0,244661431323256
0,248871594300373
0,25591954275395
0,262701041581121
0,268568289404657
0,271805518401712
0,275413803245462
0,28339375514453
0,286166974057406
0,290812896040811
0,292145893945437
0,298294026815933
0,299719609845588
0,301826634995316
0,304754063850691
0,307303506093223
0,310205984177998
0,309770975020461
0,307327256125213
0,311365987791397
0,310190247979721
0,311097378574348
0,308429523401154
0,312647534799658
0,31042687897612
0,310905016026574
0,311981835786211
0,314084765070398
0,314208576801015
0,316815164894366
0,316695489460911
0,32307135641483
0,324904321312876
0,324641381504845
0,329268823690557
0,333060839171591
0,335361166026066
0,336638656200163
0,341081419650275
0,346647387483333
0,348901401760542
0,355099583059708
0,360098600390565
0,364527072336246
0,371080058401982
0,375961450301862
0,377898683422128
0,385955723944757
0,391326452248569
0,397000360777017
0,397242622372826
0,401590078419478
0,402702864501103
0,404272232717162
0,404412003926432
0,403443922433526
0,404841021344389
0,406500731843452
0,399691407504847
0,397755228197257
0,3966859198126
0,397163302110626
0,397522392610925
0,399973501133823
0,402028066826282
0,40350548324489
0,408993384499473
0,416119785655407
0,421454365264396
0,428123682055393
0,431906515515497
0,442093242023492
0,452018643200691
0,459122425030757
0,464520641715618
0,472443627021711
0,480863042287158
0,489461939757075
0,498451884200169
0,505005162025735
0,509874837649528
0,521571164548264
0,52712602382987
0,53513957559328
0,539992720246307
0,554986013182321
0,561243968284037
0,574790961623985
0,583481330349354
0,594342067201091
0,598974674959809
0,613121151938629
0,615249996916504
0,628393014692882
0,634937012518297
0,641222262375924
0,648422321697663
0,662492633947262
0,657483332032944
0,664628845017915
0,668084176020047
0,676513099315639
0,675995100369188
0,674403500092833
0,675927278522373
0,668351527234866
0,670349459427714
0,667808360144222
0,665080454507661
0,664356007764381
0,655355598947158
0,655241887409227
0,6444685188815
0,636735328918649
0,641639965912702
0,638774732888352
0,634522277333724
0,641384728846472
0,641960169498679
0,640868994930535
0,649784520143533
0,649176499841965
0,654230826496024
0,665938727091359
0,666601163327315
0,676044465360766
0,674082299673455
0,675780869818934
0,687226820540657
0,685802122563164
0,695168147091278
0,693707123174049
0,693727000964393
0,699369532616559
0,694200847133417
0,6979003398482
0,694330222293044
0,691874601429254
0,687208355386662
0,686089784378242
0,693209617663487
0,690806572352274
0,695458852355685
0,687793244145543
0,67431720475615
0,672892977983829
0,670307648942127
0,669779967591503
0,661070640803386
0,659719845243159
0,654238328116712
0,641459323409504
0,641469698755772
0,636272713727143
0,632383700422968
0,622015754100093
0,612328866209855
0,602329091725345
0,589703317542007
0,583942687301227
0,568992774548573
0,554329052887286
0,53669566468579
0,519495819182724
0,49986347085917
0,485529330702516
0,464098199471623
0,445381338102539
0,431525901479426
0,411621576951356
0,396201852443568
0,382248847293723
0,367414120999468
0,354873846706707
0,345117458345961
0,340655806446402
0,335416676686295
0,33201409082256
0,326675219333958
0,324069212527836
0,321164177395267
0,317867117159931
0,313886893751325
0,313016463095759
0,310167232064123
0,307648291873039
0,301909177470061
0,298746556075466
0,291483694965927
0,287845754738912
0,280297560374331
0,27602423596411
0,269867732567418
0,26596674450803
0,256951489034371
0,249945685901329
0,239882750902384
0,229812117642432
0,220918778823366
0,211939892068982
0,202980300753847
0,195655162156367
0,185254091300884
0,178374666520458
0,169461614810166
0,160758843290472
0,153047506912252
0,145855097439156
0,14146629016706
0,133087832923399
0,127451779765015
0,124733557463096
0,117376029161919
0,112085360662182
0,110467663634897
0,108702029640587
0,103269136873324
0,102249239409909
0,0998493350626801
0,0985442519151768
0,0951431588063428
0,095480509028681
0,0954024744798388
0,0969426781785546
0,0944013614467677
0,092668933332537
0,0944505777670013
0,0953290397298499
0,0974481379715231
0,0987629599094468
0,0982922949526436
0,0979345947791061
0,0983277726059422
0,0967426384068292
0,0994542077363017
0,100820733464
0,0996547762279439
0,100304727299112
0,0968732344624722
0,0973881001563397
0,100621306086079
0,0983205986712827
0,0947439928083877
0,0938355349006327
0,0954066953153708
0,0940770787291998
0,0909956073404885
0,0929076883473423
0,0922523450404004
0,0950318054975032
0,0922584405512264
0,0929660386319779
0,0939767828189763
0,0944042955974692
0,0930123953409436
0,0947683370700473
0,0978588601944653
0,0990846498731684
0,0995915616282733
0,0997412005438735
0,100875884523658
0,103010047394325
0,104693827868431
0,104175534989926
0,103125258979557
0,106101573786776
0,109365243960723
0,107614074637374
0,106776087047336
0,108062645299099
0,108538038906423
0,109980877023673
0,107619207295784
0,109808974730417
0,109046039483883
0,111915042544135
0,10796849653212
0,114118932875677
0,11368117243858
0,113156874199605
0,120442935418203
0,121034346486754
0,125460961606815
0,124803891396927
0,127681963214215
0,135181245683566
0,14068585246926
0,142664633008429
0,147413381448047
0,15011414796549
0,152993761330027
0,156654471015479
0,15488144278494
0,151954337686247
0,154590434039873
0,153322644080082
0,150677003441167
0,146596374141009
0,143382970390483
0,139576735632983
0,136998379515139
0,135557807675029
0,136434958991245
0,129075217442562
0,131976402821656
0,13387659584265
0,136033079360114
0,134746395796569
0,128709702288643
0,132145801067088
0,134747717632907
0,130959631755765
0,138449781243943
0,133540648760012
0,12745106243265
0,134613595693522
0,13120169346905
0,125449688182479
0,125629529334939
0,118900141757101
0,120642624371743
0,120778737206667
0,122964846528904
0,119655514730424
0,113897290616674
0,114818739510247
0,113133356996887
0,11090124611844
0,110397139900832
0,114438495352132
0,116626256303062
0,110008029012951
0,109376708749816
0,115292143204251
0,110515688865859
0,105049692254223
0,101050809039377
0,106317156084119
0,110483423298188
0,104480900557042
0,105909985191884
0,10454938359833
0,106376208519485
0,108270861902853
0,101548781227871
0,0994135172157894
0,100059337730771
0,103706385919926
0,10919846947042
0,100490773259756
0,100394516305697
0,0957179609269606
0,0940679378608566
0,0998236447869082
0,0980572196973617
0,0956358596093577
0,0973405420163338
0,09873478936978
0,101950559184948
0,0934993369971392
0,0910037805034288
0,092060201766577
0,0967609789549604
0,0971996028076584
0,095641961169538
0,101182017682502
0,0984974066777066
0,09221491056289
0,0948078323672163
0,0910750452520689
0,0940031159795572
0,0985901332021681
0,0976006510305808
0,100345042918879
0,105903160336427
0,100730139740358
0,0964111503000339
0,111330074491102
0,106700192698875
0,102719383879142
0,099553868929569
0,103012407722093
0,106489413064695
0,106733803755408
0,109141723735012
0,109881584386513
0,111917030129818
0,113560751919773
0,117849598594738
0,113774290292037
0,124994498013646
0,12958799017707
0,124468349758736
0,13105492283591
0,141625223694601
0,131859789411306
0,134042506859612
0,143629371857856
0,149567796889039
0,157524721490907
0,158376961551843
0,158084351548051
0,175873735628401
0,184736399466385
0,17820129369963
0,186548769963236
0,187824549901313
0,199916222961324
0,206800718828038
0,199779497745125
0,193317078300064
0,198876377444794
0,178635754440987
0,190347394771316
0,206861432008913
0,194172299924444
0,183030246769296
0,17759100020223
0,173334272848084
0,176021140530874
0,180892443862303
0,184602605323377
0,172915670322501
0,179446099661211
0,174449939227371
0,171401659030893
0,173845935930396
0,164883099208474
0,167484961872157
0,170032282515199
0,169749148602805
0,172240195506405
0,166518246712554
0,162433537827994
0,165632103001849
0,165419876434372
0,156860369498895
0,152605717637833
0,168413213855066
0,162439884488577
0,14526471878455
0,14673328770424
0,151515273858934
0,15074518813299
0,161302681232878
0,138415415080882
0,150026554857974
0,144203175132426
0,14969150647641
0,163168773004653
0,168531318176806
0,176599510248309
0,148849928265819
0,146713378697687
0,162896711559506
0,157823789219253
0,153684235053223
0,163616610382078
0,163565910254458
0,154094817085319
0,154047633395584
0,1646386113188
0,16255231394276
0,161202855112209
0,154841491157301
0,18161827971831
0,178086813873956
0,164392154905564
0,152024865488476
0,14556071094678
0,167776338483989
0,170109340546543
0,173627115187277
0,200821276988606
0,181278666378631
0,18681347703286
0,173636933216973
0,170454461643196
0,187679619340447
0,202782194568546
0,219245791284624
0,18925519653132
0,192764065491341
0,210797558888299
0,21978669905816
0,194057284025551
0,1952068120496
0,212427090511102
0,203089131697457
0,233854252658181
0,24412681673352
0,24359034522994
0,247772072648216
0,209046508617437
0,219923318995263
0,257386470643958
0,231551707418198
0,221710119279839
0,214537148924169
0,213706158955744
0,223453271924684
0,235149700791738
0,222502732370377
0,202635114173624
0,224844482824468
0,203148442910684
0,189464460938578
0,215282251705889
0,18881031206326
0,195821177805826
0,246626393758956
0,251883415092272
0,236503404596703
0,236138607774939
0,199849552042366
0,233210653588796
0,198197653022207
0,170442089726811
0,230246232913904
0,177515128934501
0,166163120037505
0,218402732541934
0,216357471183636
0,173924158064098
0,190659399179031
0,233821334920451
0,254778589676633
0,213960859218821
0,161337950059549
0,240162241894164
0,298696415081681
0,252439692294187
0,317430233175919
0,255664155483408
0,257275973276086
0,202920960922702
0,182343292843405
0,299584324506941
0,413715749388395
0,325557602237367
0,21248334516474
0,211627860917025
0,273005623435351
0,212466949195233
0,156281187942613
0,243404228639046
0,202917123626801
0,250903132477452
0,329982530006894
0,16516159273601
0,192264726886298
0,334801701474007
0,2457695017457
0,178612965088672
