3596
4000,36533379555
650,420452594757
1
2
2
0,0103027005060292
0,0115523656303969
0,00800164614110228
0,0103435289200924
0,0142516441806529
0,00891914209155369
0,0108988288757003
0,0113724908708777
0,00791620904471098
0,0023280856116042
0,0128040204714815
0,00496009756399634
0,00458698170582816
0,00680863452072105
0,00943195385839835
0,00568963058183781
0,0147462430127704
0,0106813173303477
0,0065326158772614
0,00753945527257135
0,0104612391355146
0,00582487912666688
0,00236057571368353
0,011487479217071
0,010744675598756
0,0123480767160422
0,0142471868237722
0,00718430554096532
0,0125617736578898
0,00839827837625714
0,00464947535689779
0,0118626867717069
0,00379814037876068
0,00170036745401767
0,0110124809438368
0,00477778548543907
0,00671941313555169
0,0119342398506871
0,0077241257806529
0,0103437845721767
0,00628208101010121
0,00266526993835477
0,00467498878194713
0,0012463469953503
0,0176524623054735
0,0084037627823448
0,00663826755132385
0,010467241315419
0,011997303602238
0,00778548933071614
0,00952328609074443
0,00676659611828402
0,00551463038381427
0,00735388937741922
0,0102833042403971
0,0110296384464805
0,00694581795014457
0,00949205804260631
0,00835310635153585
0,0133284825536488
0,0131989134606964
0,0136672149096651
0,0126428725285257
0,0148864465602967
0,0060453027447744
0,00963938129701976
0,0118504526632413
0,0063965427126943
0,00699873602698495
0,0100852349382794
0,010401507160034
0,00402614204699892
0,0162528574454935
0,00638582775501679
0,0120471283958733
0,00650864827766265
0,0071784061205829
0,00835084620845121
0,00860771384045298
0,0192477830673558
0,00257514274713367
-0,000637809404538564
0,0225552824306495
0,0102970755601484
0,00362830335038515
0,00310358882426343
-0,00193747198337267
-0,00138749626287588
0,00882508597356671
0,00219884357229057
0,00132443737050191
0,00274656890172505
0,00831503356979609
0,00564017460602808
-0,00120798075070982
0,0102642627494954
0,00845932786071145
0,00474569623279467
0,00205991233088959
0,00289201374919769
0,0155315962500707
0,00102378502184603
-0,00310001013535383
0,0109198196221154
0,0141255836373775
0,00754368857291748
0,0103624061198758
0,00971871668759336
0,00223590970886809
0,0103941419953428
0,0143978307066482
0,00560975378638707
0,0070765137396044
0,00661497836005674
0,00743187165582781
0,0142514426805816
0,0186543144635783
0,00570055321299721
0,0069046987721165
0,0029059044894978
0,00975913799096428
0,0140347273674236
0,00792542335821258
0,00346579865461599
0,00769168182362203
0,0108369878825494
0,0126056033811018
-0,00924275011838869
0,000109380106877893
0,0025866048163861
0,00321362473515928
0,00435459476157725
0,0127679062825156
0,0108808319898625
-0,000444506039936971
0,00391846827094671
0,00903131732398267
0,00207264014924357
0,0120532823227394
-0,00311874340607697
0,00170162891369215
0,0104103813607299
0,0110182257697876
0,00963330894028688
0,00509401643610536
0,0040568870261433
0,00518711660999661
0,00169142555011632
0,00480953311831805
0,00185057920795182
0,00953588208396135
0,00583334936798106
-0,00106942550152583
0,0040875862394037
0,0180458271153802
0,0131740924863487
0,00709933649763162
-0,00280899928424604
-0,011241346841692
0,00177279342561888
0,00257107234142758
0,00871123713711094
0,00498287060818663
0,00857946741983018
0,00615237043078449
0,0108422544623998
0,00964722907394885
0,00547870839133107
0,00752400342377495
0,00234018682521545
0,00657978643463778
0,00828126593606863
0,0145426551128351
0,00275398224528098
0,00787003199549878
0,00493664942875463
0,00263083172268547
-0,00058498025090963
0,00685214862256082
-0,00816284236691978
0,000141661151634705
-0,0017140685717582
0,00282827959146726
0,00730864402322066
0,00919738125441589
0,0129391332191065
0,00327376426233159
0,00494200555882252
0,00281632397518305
0,01150819741463
-0,00862171404883334
0,00289226990841468
0,00804385224344008
0,0137496884370175
0,00654885473907447
0,0123326422735109
-0,000313304385132677
-0,00317770892940834
-3,45333173009908E-05
0,011289037406104
0,0100317195977289
0,00703608094539298
0,00371375914256862
0,00267934100336325
0,00237597223126227
0,0157815278056468
0,000685022884778408
0,00394223824913636
0,0116320012282782
0,00426352566940447
0,00119663938810485
0,00384703934346975
0,0119894451026609
0,00615265840499279
-0,00115637979239809
0,00574401717318623
-0,00285943738499955
0,00271210634869859
-0,00366199055974786
0,00751444214126288
0,000596033852873589
0,00524810754154139
0,0116419082958394
0,00882276471170272
0,00602582960153951
0,00732869959109293
0,0111153938119634
0,00513945760546711
0,00830346394154914
0,0114036709293646
0,00425542031817747
0,00289310388956072
0,00843396694107086
5,32553376458831E-05
0,00643057930121057
0,0101143399039529
0,0064836973638071
0,0126149487241726
-0,00372011418066134
0,00244914404946223
0,0062904896584395
0,00630703316477339
0,00277417076530538
0,00320581760367181
0,00430463806162497
0,0044186015677682
0,00481041257865816
0,00527242743734869
0,00196416990493251
0,0108442007158575
0,0137398980013642
0,00272458059913473
-0,00042045929559432
-0,000182091603932897
0,0123015290500405
0,0179090617715966
0,00931616208646706
-0,00125323470034461
0,00355081516235746
0,00636605457275905
0,00669504896491104
0,00969443646493627
0,00888169443534376
0,00661234615020531
0,0258815308127261
-0,0100982107401174
-8,70037467106796E-05
0,0130450429927262
0,00338034003913121
-0,0011292353449215
0,000470215872372539
0,0104770415417813
0,0105685700980687
0,00772618631688663
0,00984112728484282
0,0120421821293889
-0,00416326138479803
0,00859580329689871
0,00678070579328477
0,00686461420209189
0,0060790468068731
0,0212868408772845
0,0130165870681712
0,0164422267679018
0,00102490650603704
0,0083323137072984
0,00554913188616387
0,000216871406514195
0,0138017832275915
0,00732961370210216
0,00747488167629049
0,0106310382025631
-0,00247554912751905
0,0114332678703362
0,0108649797391857
0,00441698744870502
0,0116583774902255
0,0088147326001012
0,00394864576902719
0,00980554735104544
0,0115595567777143
0,00550244103355784
0,00943358820354405
0,00838243961394885
0,0079280804185533
0,00707353607442206
0,00938072764557531
0,0158046873705272
0,00241691877049474
0,00895596471731649
0,0103657461708381
0,00628346184543226
0,0087623676394713
0,0132782746818784
0,0109868954662859
0,0141525193850271
0,0118863511265528
0,0207193937664024
0,0176695817663073
-0,00521970208940141
0,0100749612074439
0,00685779153890633
0,0115081950550864
0,00902521842021343
0,0109364952943893
0,0128407869935228
0,015114138078656
0,00205799676063882
0,00596857602703764
0,0181363180157212
0,0161357528952806
0,0157722667924356
0,0167619905894475
0,00995609873746817
0,0136625973220031
0,0131694544802188
0,00903896827970981
0,0161318079555337
0,0194219735279477
0,00806481220753923
0,0152341414482661
0,0170408136622978
0,0159285703583974
0,0182436387660283
0,0144722019011209
0,00553520836714895
0,0240994997858553
0,0117357707643813
0,013140743624979
0,0080758091387812
0,0191109291655855
0,0185052216357363
0,0174334708179437
0,0136489169356921
0,0252993050637295
0,0151635487696029
0,0130080220937838
0,0181779128342748
0,0189920014151706
0,0190027095420408
0,0264118558894018
0,0241109780069305
0,0189356592185475
0,0219899299161034
0,0258628127457077
0,0331131054088264
0,0252729998868078
0,0291288657601157
0,0271062105261065
0,0192484296148784
0,0255394367994145
0,025243147782576
0,0318342042697503
0,041351457993113
0,0310877771799957
0,031342992554077
0,0254362259353511
0,0242262396174658
0,0318776508582816
0,0290513024684858
0,0318120601635949
0,0432202265836606
0,0353835635796041
0,0396311105345955
0,0341038289241674
0,0395486383225999
0,0392479972549288
0,0421858906592263
0,0438881402039393
0,0443191782900853
0,0436316270796449
0,0470295895989995
0,0377591953097164
0,0433806309758585
0,0535964728908569
0,0525737404803992
0,0505281663891758
0,0478985694811127
0,0541492858457926
0,0458467404904002
0,0582699465325938
0,0570223173741535
0,0572846140110545
0,065555940603956
0,0595671283631538
0,0581601154365623
0,0609311191345149
0,0691808038521646
0,0635940014065507
0,0757579213780157
0,0544095347463379
0,0650415052945816
0,0635105517034704
0,0774008306502743
0,069636512163181
0,0686268922052987
0,0769842736196824
0,0736740700141087
0,0799122052456855
0,0787410254392285
0,0769566669928991
0,0735815178534809
0,0807075517925021
0,0866318448344939
0,0816933494056447
0,0876294251890923
0,0857531608518011
0,100752769383225
0,0939429214802479
0,098048825980089
0,0924176322390619
0,108575982177699
0,100698603195838
0,104639851914067
0,104415848038538
0,111750158869799
0,103910242790092
0,112579974926878
0,104536653016244
0,111522526512555
0,134670735962404
0,113634145718228
0,11181666300628
0,116848769594571
0,125944106358356
0,111612045218762
0,125283441353437
0,131526217592023
0,128156725640964
0,128748728461553
0,12726891203224
0,14364442560702
0,144605207168514
0,143794962759103
0,134995703152646
0,155654588605196
0,142752980825054
0,153890364298113
0,139645532379853
0,154018007311349
0,143363597149888
0,160490189051996
0,180139192767606
0,163517482314417
0,176468514944603
0,169741053843221
0,169135520477351
0,164112584537714
0,154343994478128
0,178961486667834
0,166104197225194
0,18952774883599
0,186989631845376
0,197284095208017
0,18822984535954
0,191517747706655
0,186823415850273
0,204091193398246
0,195146593685629
0,194495103162271
0,202314961488605
0,199124176781721
0,213836616227954
0,213923856139918
0,212867053717016
0,224653010207185
0,214563674039222
0,239243204359939
0,227389168045553
0,239303558206511
0,231480233785487
0,23559045829382
0,22621010822105
0,250483874227608
0,231782984778911
0,238992615452838
0,240383169838734
0,258593661159487
0,249355670590426
0,253963501267656
0,259488846506287
0,266514906074846
0,262608886490818
0,258262922245311
0,26831750754488
0,258552340661109
0,249168351253941
0,283837262248543
0,274595692739459
0,285961545777401
0,277055867855147
0,308200780889737
0,286813936741593
0,301845765263084
0,289470499636281
0,322858041213968
0,299176475392877
0,322793447190335
0,296742131511053
0,319114773601006
0,310100350856491
0,324011455660863
0,329479621614009
0,35215760217723
0,331785726299672
0,353934244226389
0,34925749910446
0,321728110877501
0,324417468934499
0,358422443041805
0,325686355546056
0,345540590971591
0,348353771241069
0,352641042176065
0,355843569337718
0,372311803192405
0,360750627300647
0,38084418077146
0,35519911800186
0,375139364000442
0,375814465197278
0,388486940810268
0,386099219793567
0,406139060058556
0,385749618458948
0,391352009266791
0,386095741353722
0,422967387981558
0,391743848148361
0,410195775199726
0,388305326085718
0,417189877838801
0,421476637445892
0,432722178033645
0,410631729090063
0,428593219862732
0,424384151784798
0,434515145101915
0,406293312721464
0,435837608480324
0,414913214595706
0,457217690255708
0,42710799716994
0,440300900552714
0,427938118332506
0,459702147198545
0,443114840253097
0,48561138456776
0,442419620012354
0,467628294593761
0,450985612576716
0,488940879539511
0,460584295053317
0,476501690090622
0,47596930487464
0,499210240492791
0,482024512219482
0,500514175722755
0,47034894752706
0,511246304791103
0,507177825594371
0,520104998914665
0,493550769999934
0,508068839525306
0,479823930902472
0,535544427976899
0,505054894100096
0,513443655062548
0,507107146500886
0,528767973730155
0,51446704504619
0,523253586613679
0,507084986348978
0,558509742847745
0,534628260468571
0,544848605884735
0,526283884111397
0,541970371438518
0,53944956366659
0,555319337101131
0,511400207168683
0,544453334988595
0,530614582200992
0,581746469517128
0,525440649366638
0,571498660227146
0,549819968860648
0,579472081352731
0,582876805902203
0,569909325923787
0,573705418817623
0,582251863764647
0,56492616604612
0,604475883681185
0,552365560121167
0,613884367527119
0,568347132512201
0,584169177695945
0,603555944506467
0,593756700683977
0,575434588897198
0,628333179295425
0,600165711572492
0,609919920894324
0,601549873245986
0,594934905096549
0,610736734721804
0,629073812397241
0,594113744557444
0,618945696233399
0,607098005087734
0,614468006106025
0,622521411177527
0,638554427555997
0,610112221132882
0,634207915592882
0,602483768077103
0,649692425060532
0,616523765315111
0,631599897835252
0,593290181763212
0,631427483608699
0,62044627263513
0,630722615876101
0,642891329099709
0,657749094817818
0,641840326076855
0,651151080884803
0,619173778216148
0,657832506648268
0,641152062205038
0,6530900537168
0,630178678012509
0,68187275049089
0,649637448464598
0,695707956773757
0,675508338977541
0,667331434909923
0,668779784439234
0,667226933339118
0,657530885037144
0,668310842043957
0,62601715532594
0,669603367806878
0,657464166402899
0,684402368332959
0,684096096540986
0,683750514754683
0,667713826550418
0,684789071524618
0,685197720247118
0,694393007907057
0,645631057029445
0,674535615098543
0,663861085721957
0,703604568434756
0,656230682803271
0,683523852157957
0,674793168868614
0,691456249886212
0,683458487091969
0,709188202383371
0,673658186928068
0,669414217957747
0,68614751518563
0,683438618095535
0,666745477362685
0,707636739790015
0,693928489276996
0,671210481574461
0,682085911422052
0,688149387245724
0,672589331470413
0,701659142242817
0,656777579220766
0,707599965886355
0,691533701269363
0,697329954716687
0,687375958256692
0,714812575746618
0,693414929107976
0,712403245389885
0,683531621737426
0,67653931812122
0,669624260864209
0,70474782633918
0,664724572584526
0,686536658375157
0,686278674318778
0,716034803243667
0,67181430806801
0,695443904286817
0,676495259024084
0,706769284474168
0,693809571676127
0,709217538609843
0,68892912692127
0,721475456201156
0,691744932894346
0,70829286801468
0,674432762197105
0,712035466176264
0,677779498166316
0,705073828990201
0,683575515933696
0,692745775444027
0,689755458962442
0,695396608816002
0,649119880349033
0,681619823182552
0,675306459304979
0,699800528736064
0,68675375506638
0,688021140814012
0,681614780173295
0,709132421311227
0,651240978650349
0,676381531012783
0,695829547388242
0,697686239011757
0,656489681805803
0,702196411171346
0,673655718131374
0,707311778801592
0,675403788221415
0,698553136380972
0,682499589028911
0,698655599555753
0,678746594252904
0,68974136725577
0,668777495866466
0,670169304248361
0,667413862683064
0,684471113585911
0,662135873037076
0,666335244146219
0,65954110239312
0,678497089532705
0,654460763625419
0,688859781579502
0,660744137088784
0,66008501127088
0,669924692625877
0,676630523317647
0,651489931472371
0,656613659744833
0,646178271994679
0,66988237920578
0,653457329583492
0,657438987680233
0,638159141404308
0,672068974648896
0,649542295652915
0,675964786375355
0,632797793608446
0,635688345741779
0,640294913317632
0,647126087544108
0,636277892737477
0,67768673588603
0,630836647030824
0,656395838962098
0,642896667069315
0,651115786482356
0,640855177781928
0,650849250716292
0,641828339216206
0,640371148917241
0,636324186566526
0,645942862111572
0,630464246293548
0,62972486696827
0,615214783966915
0,643478058857526
0,627774185194067
0,627897495549658
0,624899636409146
0,63662291705886
0,598069454819119
0,624904106712502
0,61011988336208
0,58603592783057
0,612875436723859
0,624627833213951
0,612081370691358
0,614955754145842
0,599247718195461
0,608039401177104
0,577216448957522
0,605796362402419
0,594022177944705
0,607858857256704
0,599879677667112
0,583636971465665
0,590027057773392
0,586820719082828
0,571749128613384
0,596339996724776
0,574775250465299
0,591079139052021
0,576405287614228
0,567965509034539
0,584716890455026
0,579424831858816
0,562511312711748
0,577131319012136
0,556829875853844
0,574451347125454
0,563037873511202
0,573003740133761
0,547597526562959
0,563563059502378
0,559875101529741
0,570901155108838
0,56388703762095
0,560137125005724
0,549925485879402
0,563063005084726
0,551967213932237
0,547559089127175
0,5316110570562
0,553571973148815
0,553638119615822
0,545727980715326
0,536793695971091
0,551511020210577
0,523323219946231
0,529137425333303
0,506395342722512
0,520619833485581
0,517730909092488
0,527139780255931
0,517472852284868
0,514459667689248
0,50986258615126
0,523427609840372
0,499245653519811
0,498512215482898
0,494718659009828
0,511429717082245
0,498180401045692
0,506610224207117
0,483507912901687
0,49721679065001
0,495015176704022
0,485598503261204
0,484383258764788
0,497204035274845
0,481890563757431
0,49033428962575
0,464974079229694
0,4787981084865
0,479186602885887
0,477644110469701
0,46236135832588
0,466658508876059
0,47084282858919
0,464142582167071
0,452530761372967
0,453505684491165
0,448950935658153
0,452824365207887
0,446314863788225
0,458490389481015
0,452401748325203
0,444983821152159
0,431937379418973
0,439804445332274
0,43569766590696
0,438984485768029
0,430879832235723
0,432862711547158
0,427923654734387
0,426103462261329
0,422479606089755
0,419994340458568
0,417270688884973
0,424396652232606
0,414232733515124
0,414546065184175
0,401914602028723
0,407993948697318
0,402090176912034
0,400715956920364
0,392223247105697
0,398616228538282
0,391427287914632
0,38967873068875
0,386567936971427
0,394610749475586
0,39180302898236
0,396090539524099
0,384901690820004
0,388398362348789
0,383514684267503
0,387203124849168
0,379560230417382
0,368966404881019
0,365564775264439
0,371771667739519
0,368573745894118
0,36844355959686
0,362426803612505
0,356668266668179
0,358391915949251
0,35851934361296
0,351274914303679
0,357407935718843
0,351903043345577
0,356429844885159
0,351908863941523
0,34787706259455
0,343819113937775
0,343013079915638
0,33938532377716
0,341341656946285
0,331248762747148
0,330738973205992
0,332064654246033
0,33215327724394
0,326376776192516
0,33051645824031
0,321587204277187
0,316354965196227
0,31939095667064
0,315527035910795
0,313613828979565
0,312189729999235
0,316442057432632
0,313969309239275
0,305070207296291
0,301755537006498
0,30396630477324
0,307582528226859
0,300847211136874
0,301892565326891
0,302131066932476
0,304561634451509
0,292549763862249
0,283235389844822
0,291277854739884
0,290358962523003
0,282294713381123
0,291150617159535
0,286685920672578
0,287717045858282
0,28464612953414
0,277884719568726
0,281555865320332
0,280874052772223
0,282142745728684
0,278349375624315
0,271173366626215
0,265037743668169
0,265559686322328
0,267154698365112
0,257736822926282
0,264158182069553
0,262702210731675
0,25730709572529
0,25164137113162
0,256115367853675
0,256589493414973
0,256660641596722
0,25842639421962
0,259271631743765
0,25663839009527
0,252396671568435
0,247076861562862
0,245360220410639
0,247512291687134
0,246921585185306
0,24335746372254
0,23679974043649
0,238123907539672
0,237485664805983
0,235478582024644
0,235400564315202
0,231524600993915
0,231531447752968
0,229435111238733
0,230592764218921
0,228964684563468
0,224952346342691
0,224128443228424
0,228162191988397
0,22564051968052
0,224968853771501
0,220686985870964
0,215923311149038
0,215535242810264
0,212602551749244
0,21195489283142
0,214102452050789
0,211635102918733
0,208782915094844
0,211377853803914
0,207476934118523
0,206786585575687
0,203540137301268
0,199115526581485
0,204199412629261
0,202111743662949
0,197248745344397
0,196736646739106
0,201287586933493
0,200348010645536
0,194521467658276
0,190336121656894
0,189648630892705
0,191047458524731
0,191157812198073
0,185770184893336
0,186611796582599
0,189886617054292
0,187701400556085
0,186588574007535
0,186587260218164
0,182109583988044
0,189572566524667
0,183430056023229
0,174533704543872
0,178534132781456
0,17979616863623
0,179456536197292
0,178658697669505
0,177445111438953
0,175209291814397
0,172281530278324
0,175822406281462
0,172875313943383
0,168778512366177
0,166931178297996
0,167495505699938
0,175071686073602
0,168358800596193
0,16738207590922
0,16622559337946
0,15906087606673
0,1619224790512
0,162513867437364
0,16462685215933
0,163145047316035
0,160898802839196
0,165727643046342
0,159934193406741
0,156548865033361
0,161942111510587
0,16163206780851
0,1594171136675
0,157747983353515
0,157496762651736
0,158192089892815
0,157830274525003
0,152529329712751
0,156251508498028
0,157402393752154
0,156769638766293
0,157841115679647
0,154641272185587
0,158576623367607
0,157429664171893
0,158280890174009
0,164238476831834
0,164450993837529
0,16109630361652
0,154392707527699
0,157033494505808
0,160078724133939
0,161712848704937
0,164436657948375
0,164709216132267
0,161808666583994
0,161245559652176
0,167198593031139
0,16429654433118
0,165786338420135
0,170040546509671
0,170317747690246
0,171625694946825
0,166439163647544
0,17110388898022
0,177666510586403
0,17297795422665
0,171356787262112
0,174368158223276
0,17694214091515
0,174603288297
0,175712473445017
0,176983032664306
0,17708924576713
0,177193966796618
0,183418844053888
0,186530822409141
0,183917679831255
0,186045408097367
0,186254386045624
0,186780780188398
0,19211440337597
0,194805039199766
0,19210175379956
0,192199751248619
0,196939696073121
0,199000226163598
0,200617553143244
0,208179560371603
0,205249708993063
0,200666888276711
0,211984987869571
0,213243405126225
0,207071482305358
0,207576582217276
0,214789581101053
0,21876168920459
0,219994080024469
0,222741448285552
0,226908206128283
0,220927877026175
0,221794498900714
0,227162418588036
0,226418940231711
0,228371145867101
0,226333941968118
0,226771099826525
0,228419644984578
0,238857785595383
0,23555087173702
0,23234712483272
0,235172568110788
0,2387155529846
0,238860718958564
0,234422429610896
0,239400852914187
0,237035688187461
0,237088408586614
0,239274234917271
0,237790607296494
0,233625033755145
0,234093813595419
0,237149086333773
0,234520796418671
0,231164220229372
0,237204543904412
0,235345411473513
0,240253136205891
0,234036320488913
0,233584898880131
0,233764336575305
0,231231339813233
0,234191819700015
0,23068686252443
0,229347489416068
0,234135217252178
0,234372141630291
0,232426793356711
0,233914537118836
0,239528282605926
0,236936179937149
0,231966302011542
0,230451552822126
0,232929710306339
0,232690757890482
0,232623298312381
0,231060842344604
0,235968437732574
0,236317385622784
0,233767085073809
0,232868745341207
0,230325266312956
0,23569154538342
0,234021523555681
0,234802925997894
0,23500306100697
0,234252607363141
0,234560683595629
0,23392760364371
0,234246636422111
0,232418653098099
0,235531961678812
0,232537054150549
0,22927828368805
0,226716764672461
0,229242022418136
0,224349854898662
0,225191575822114
0,228224188875138
0,227699759406201
0,221901081246794
0,221958746444711
0,223622635333065
0,217634988030067
0,213156608447518
0,220411698704718
0,212436358838385
0,212256846171068
0,22170877980318
0,21583994150496
0,207171154157117
0,208666748843761
0,206249046415408
0,205718577084418
0,203906168965498
0,198435049907786
0,196075622787239
0,197235357833931
0,194809119925018
0,189574630812087
0,189072044476725
0,18754366680427
0,184804384683336
0,185602486309064
0,181118482595878
0,182540593261633
0,177719948747845
0,178096684564512
0,179856194161049
0,175133773757674
0,171890647438976
0,173640806499182
0,166355837620289
0,169403860417511
0,169482993632738
0,165733142653468
0,169057684019725
0,16357406291216
0,160946708069549
0,160466221379328
0,156759968269444
0,160829579368168
0,158286027749978
0,155027956631189
0,154959785235036
0,151581623134158
0,150559926560046
0,150984031031397
0,150011422226671
0,146704084920099
0,145323083588565
0,144964802838617
0,146927849221134
0,148054478484007
0,144503356746023
0,148445369919611
0,142467812631205
0,140647369079455
0,141664860562193
0,140498841273102
0,139640569176218
0,140864323427272
0,135459170553906
0,133404304637221
0,13685849379094
0,133557690110263
0,134470876806578
0,135857283506003
0,132563933707157
0,135630589786101
0,133194955092985
0,130274610133087
0,129706719189882
0,132583923051905
0,130283867730368
0,128979782003733
0,129593837099157
0,131168206790464
0,12665062455732
0,124507083530264
0,12758854910582
0,127703131716615
0,124026908807307
0,123355661748269
0,125462554969482
0,126115932263267
0,121212809821705
0,119957146310908
0,12194562100921
0,125327652152516
0,12300319865135
0,121517776930856
0,118294138496557
0,118752745444281
0,118029181508365
0,118916826196016
0,117950861468115
0,116133641836151
0,116438751103511
0,117897977001408
0,116487304519536
0,114805017712957
0,111935267557421
0,113486145151699
0,112331460685602
0,113920589614184
0,115240374981594
0,115267706149661
0,111139067803195
0,111578831612099
0,105757344529608
0,10867776497022
0,111459751033901
0,111235756678174
0,111400762765311
0,112549974530779
0,110649981950808
0,108310777065505
0,109009765081379
0,109287994185069
0,107551912053712
0,105594762215849
0,107930311312641
0,105935993467887
0,109471870490426
0,106721091755285
0,104095677822073
0,106591268788203
0,10514095599003
0,104820630293077
0,106448814266707
0,107386649246768
0,105592861029661
0,102528609505822
0,100282881023394
0,104577131798801
0,101094969493181
0,102816965148874
0,103892674107613
0,102443645525247
0,102025683704078
0,100829492672829
0,0984475143207627
0,10511041192945
0,102636580915878
0,101206624808223
0,100015620713184
0,100303456016233
0,101035946019451
0,1042060776639
0,101953082864517
0,0970804158144401
0,100007584239134
0,100889230715097
0,100791214287199
0,10040689789448
0,099138314372149
0,0983548140184015
0,0980315083856988
0,0959835039519919
0,101638375003655
0,0989290202808374
0,0985564711212676
0,101339364605115
0,101577467355972
0,098445986857249
0,0932717065505844
0,0997483008817339
0,0992611497171698
0,0965339870673402
0,0961828095770115
0,100093504562047
0,0966183576262037
0,0973952128875995
0,0948322228975369
0,0949923492894342
0,0969063800656496
0,0930524629452984
0,0954587601534756
0,0941540944037685
0,0952945541311054
0,098916844127916
0,0958445687198663
0,0923210550265951
0,0932602434468838
0,0949474480146949
0,0890264281011994
0,0877250152723062
0,090289020739444
0,0873723201971724
0,0906683291567365
0,0914754544443036
0,0926333487730267
0,0923682240239673
0,0924407044859665
0,0887573148727925
0,0877880658096179
0,0899603750656936
0,0875133655634377
0,0883480984588405
0,0890053976617598
0,0904302413669486
0,0877546828893796
0,0867155839861387
0,0837050638856239
0,0851825303753999
0,0885086408355844
0,088121497063366
0,0877097220311416
0,088716212081909
0,0863946065262941
0,0825971824750184
0,0868708057022826
0,0857845904938155
0,0847052809591727
0,085545474096503
0,0799630813818572
0,0818903430417589
0,0818690669724924
0,0813879542141559
0,0876027637221379
0,0822851202014486
0,0773910838110775
0,0791268646660978
0,0804010879785874
0,0784850038223525
0,0781509369105624
0,0785805948180747
0,0808981572902066
0,0805151568505492
0,0792402881285288
0,0809751750469018
0,0798596820768208
0,076352204533805
0,0744994482682101
0,0781165433607147
0,0793609142598326
0,0740424815466194
0,0737582656796525
0,0763194262219777
0,0751794276339353
0,0742211260990333
0,0713244480827847
0,0729499849398774
0,0732814616517809
0,0722590056387492
0,0722791610154581
0,0716365178497972
0,0712938714547922
0,0739577474889036
0,0704208482763622
0,0720242279669643
0,0728971274619619
0,0697067930178555
0,0698758703803114
0,0672575379485058
0,0693584501390082
0,06940417940815
0,0708522597279153
0,0691814223667913
0,0656742356736929
0,069566174395727
0,0657503941949647
0,0666700892944206
0,067044946290461
0,0662781403301048
0,0644054376386872
0,0655917521077334
0,0640331912165509
0,0627934817413393
0,0617785634694877
0,0627529107782216
0,0610815267061148
0,0597750925063683
0,0642731459392081
0,0636367955694221
0,0651569385333834
0,0630362913831392
0,062140672358868
0,0615101237654766
0,060560531511282
0,063399263600073
0,0587206691166149
0,0602974000837572
0,0598015651250995
0,0603892367668463
0,0578673727419365
0,0581352677468616
0,0580173129759943
0,0597968563753716
0,0568169472720632
0,0592475874171211
0,0562802565540232
0,0586578308118874
0,0590759340966881
0,0567300714012087
0,0560790098525733
0,0596132807119643
0,0563489447328893
0,0597046353409182
0,0547908872327146
0,0582062135274443
0,058402774579207
0,0559162344119587
0,057192175478022
0,0552152608511931
0,0566915808015988
0,0569458670229814
0,0555599148999086
0,0556983582219562
0,0553875509483526
0,0554378875349554
0,0530675475016916
0,0534384003429048
0,0534472642795338
0,0537110124585982
0,0531351010733643
0,0538218342440382
0,0558756408877484
0,0526955790553889
0,0534231282097997
0,0509318039123057
0,0531665822589942
0,0511141923540481
0,0513735842051375
0,0516592674913229
0,0534825419173646
0,0541471052925585
0,0508698490679694
0,0535189599330957
0,0515957430423293
0,0540287782505119
0,0487793592116434
0,0528913166173793
0,0544607829016913
0,0522734973199719
0,0491306139064751
0,0532738328914879
0,0484888001224025
0,0504811614420007
0,0503938201130588
0,0495513728575809
0,0491203446603207
0,0485774086962939
0,0502395423983451
0,0474681575009884
0,0490723625483592
0,0506441855938994
0,0488243662388114
0,051529566709939
0,0493117123736051
0,050534387201457
0,0497806339654371
0,0465085083413193
0,0469053659611023
0,0481439574109353
0,0514305720970972
0,0510418733425663
0,0476814671053945
0,0475922869044264
0,0465304955487603
0,0481880346358995
0,0501914832325941
0,0499042755818503
0,0481312913193119
0,0463196724536207
0,044365048152183
0,0497671274280568
0,0460618913789494
0,0474872022241646
0,0463440236685652
0,0475707254910773
0,0465951786831383
0,0476725725225711
0,0473270580914488
0,0463047701146172
0,0445574811948672
0,0486974608543833
0,0450774125731763
0,0463200618865207
0,0466134919827542
0,0471992593841205
0,0426541039002497
0,0450123189156902
0,0445637671681385
0,0452592831600778
0,0455639748882568
0,0477244617699929
0,0484227546027903
0,0452053158972371
0,046179045998946
0,0447256893726901
0,0447569136287792
0,0428362570131418
0,0456941002639653
0,0443648107298279
0,0426502865735585
0,0426085922339508
0,0426967472991616
0,0438488135659904
0,0448467734049811
0,0434042268182364
0,0422064628376033
0,0422831902764589
0,0434482540899596
0,0429279195767646
0,044452384600582
0,0406736189057999
0,0439782077338524
0,0414171261125573
0,0411384307955121
0,0419695620377782
0,0444835091275393
0,0415904565479614
0,0452418877484265
0,0403315087364475
0,0413547298844735
0,042350610812131
0,0405061858960086
0,0414396939926157
0,0429753644101178
0,0402169556262305
0,0398587276054267
0,0423207523349602
0,0395953416419857
0,0395158913223518
0,0405063335264868
0,0401636397940362
0,0393131377069932
0,0388281504291882
0,041308823205125
0,038524870388527
0,0398445167784752
0,041362605030164
0,0405636675024568
0,0396426653505877
0,0345860258885442
0,038707159416189
0,0389642914522367
0,0364345140912504
0,0377550730276807
0,0389548009888147
0,0379091396618835
0,0368477697700618
0,0382633201385988
0,0349757388330181
0,0393600222316328
0,0377485196324011
0,0319520941256052
0,0361600958825128
0,0353405605505677
0,0366633083601113
0,0354304151060785
0,0365697858540398
0,0362203665349162
0,037554451906314
0,0342521948962613
0,0342115846164781
0,0333411734979771
0,0343746935843359
0,0349363520388237
0,0331641154906701
0,0347906630725046
0,0341429094707258
0,0338419401104761
0,0353253098003803
0,0350917385511238
0,0317668236242725
0,0313090372734166
0,0332333977126927
0,031610818520381
0,0343094433910874
0,0327635190330675
0,0323072944147818
0,0320849072486922
0,0323365074594727
0,0299977162632251
0,033313872614772
0,0346756205120274
0,0339763178558153
0,0306345656175957
0,032209719599751
0,031404974887781
0,0291244428593187
0,0311617693703544
0,0302215873309268
0,0321871298984508
0,0343855700111984
0,0307105316548874
0,0353310152345233
0,0278127331598275
0,0332815493591335
0,0307931440484078
0,0306276252017144
0,0300825444356559
0,0311443375546617
0,0301470777416235
0,029504308783557
0,030894543367171
0,0293025253525629
0,0321364851961905
0,0300519692334444
0,0259489674480873
0,0271428398868006
0,0294862821567579
0,0303043469004133
0,0293655442627687
0,032005290386848
0,0268195900463517
0,0287322398427613
0,0289018324596511
0,0263242986018836
0,0281066383059057
0,0278608095543629
0,0281388421425558
0,0288137904092731
0,0276738501234529
0,0276938841663995
0,0276660026043098
0,0289750254108965
0,0275952975301692
0,0272365920818409
0,0293726386007548
0,0282406100463538
0,0262332052300829
0,0267108618591754
0,028034228696442
0,0268687234344766
0,0287502536673528
0,026059768959619
0,0253389206955486
0,0269794108849279
0,0284674769049759
0,0295698662883147
0,0268711160774389
0,0259824523621338
0,0285138547680469
0,0251975311968341
0,0270916035525836
0,0287366697208478
0,0247336306920133
0,0272760019676974
0,0284184159294869
0,0277709218149587
0,0298680872238645
0,029105424320666
0,027225791970914
0,0288613633555205
0,0235642907561355
0,0236734515009779
0,03021094232285
0,0280776193382573
0,0294208841416834
0,0240106186935318
0,0299944187410982
0,0222205022772094
0,0268684497215798
0,0281842187768057
0,0241722947073067
0,0284394734304471
0,0280524008061922
0,0244156098653784
0,0230684946211944
0,0245751769725849
0,0261911827208688
0,0256702742819122
0,0275128837699349
0,0262144493945454
0,025490008961295
0,0283102669858955
0,0261591607879224
0,0264301598287186
0,0245287387733344
0,0249494427218551
0,0240685925629749
0,0267796248300523
0,0292332262564621
0,0266900124832313
0,0234489806283276
0,0266263432368503
0,0224001475537878
0,0254932282204563
0,0250492834885927
0,026340255790318
0,0254835149291733
0,0215129224916343
0,0295279630017483
0,0242515749261007
0,0235591795972467
0,0256898718139734
0,0301247628884093
0,0229933123305135
0,0226613198682698
0,0208378776453786
0,0289728186993069
0,0225638753682016
0,0280939941339767
0,0235349331087164
0,0251273910599318
0,0228668255541071
0,0283432673461897
0,0259408165716624
0,0254894778610591
0,0200351567543262
0,0244711656987348
0,0216066890192066
0,023663203914102
0,0226683302974121
0,0238526468346145
0,0248713102619806
0,0221057610470926
0,0232376397570253
0,0230899676752036
0,0246912892594532
0,0239125037614091
0,0241995888274838
0,0240908947026513
0,0233524659915711
0,0254023982835427
0,0216352683060403
0,0233657658514317
0,023959925480281
0,0231060618889603
0,0232316987475085
0,0234167810124605
0,0236402685256919
0,0225976097854764
0,0255263642482292
0,0227028594299508
0,0235822362648215
0,0240721185973651
0,0228137852228603
0,0234039754670864
0,0212108825023423
0,0240840841003957
0,0236756023062091
0,0225853391541614
0,0221732563102594
0,0242019933192451
0,0237398208018337
0,0215811539861329
0,0233116327692471
0,0203015721484944
0,0228779229710059
0,0242302955162963
0,0240756833284368
0,0241118949557305
0,0235438712224962
0,0239103332427989
0,0215308509990032
0,0218493554768301
0,0223389779961293
0,023722168359721
0,0239650877216407
0,0234552027705025
0,0239475729099758
0,0230478350198372
0,0212744197726015
0,0222195480108227
0,0241237629512614
0,023551890502169
0,0235998845730939
0,0240954107925729
0,0252127039229198
0,0242817387864754
0,0225180968427146
0,0237149789987915
0,023670620391697
0,025165439849407
0,0226209937862301
0,024615555286606
0,0217314626122873
0,0227800408408303
0,0230616229869473
0,023800677811355
0,023363531324122
0,0232965214194552
0,0245485743283301
0,0245388402960353
0,0246208613103372
0,0232608244587228
0,0236009471693442
0,0235803847182977
0,0244231805646918
0,0202370446841466
0,0223828675962123
0,0210792154458772
0,0245798596562656
0,0206319303773855
0,0231670642673092
0,0227549190668101
0,0213333404655429
0,02260325122736
0,0233350587738068
0,0225720087934728
0,0234832491326983
0,0225509003329192
0,0243002740091924
0,0236624446072164
0,0244784165002868
0,0219855115299822
0,0243232347118926
0,024693205001658
0,0242185036644308
0,0226027050888948
0,0228553651839627
0,0245455211423968
0,0235264380547966
0,0263701856482523
0,0219232198627631
0,0229448115018512
0,0232404831067557
0,0215772285099876
0,0233811251910572
0,024398877832668
0,0237355764554557
0,0241794174355995
0,0248565708198391
0,0220902089269175
0,0243855275871007
0,0249668367133025
0,0243350391372731
0,0215746803480202
0,0246390894517437
0,0229828500650912
0,0255039585580405
0,0252261474471926
0,0244471103742467
0,0249685999702142
0,0244863843514256
0,0225865390515859
0,022160597944998
0,0235907843406128
0,0241261095833554
0,0247444561468307
0,0264989757659484
0,0229375190189302
0,0268236436857978
0,0236452991552812
0,0238705213358589
0,02370996669718
0,0252230154761261
0,0247650268430535
0,0243082797517742
0,0239168898808699
0,0245475816498302
0,0255251181972578
0,0252376082682182
0,0262287822719254
0,0243147222113935
0,0236210286165996
0,0235558978116026
0,0258603025144439
0,0254097638802255
0,0256774020275535
0,025700448295715
0,026092924577646
0,0230304378019238
0,0241296637819629
0,0251387130125914
0,0256029936119763
0,0251345763851488
0,0243056607801034
0,0276435139432217
0,0237835326966236
0,0257897319246303
0,0251431986348823
0,0252615492955392
0,0261599946367011
0,0254638863697891
0,0249362551298435
0,0266478441841375
0,0260247962447192
0,0249908526169912
0,0268036344846375
0,0270499217891142
0,0255556536963235
0,0234229610039904
0,026337082796022
0,0249814772363646
0,0251037933690337
0,0255051880254475
0,0242329972763082
0,0253080219672448
0,0249001962881916
0,0259632394965819
0,0253248979716187
0,0263232722793091
0,0250925779527991
0,0247934429754031
0,0257422920767348
0,0238617469551332
0,0231457178385414
0,0272387237931608
0,0256050231360657
0,0251068062027419
0,0237274730621601
0,0257407066716235
0,0250711751983498
0,0251806056382081
0,0245888241511785
0,0269842331577638
0,0235553527971431
0,0224764464205694
0,0241699761883621
0,0230278496361716
0,0229068446992168
0,0242505705821862
0,0226304417430182
0,0244452400548079
0,0245636875970881
0,0249158274876464
0,0220543606425883
0,0240194718850901
0,0253600680264744
0,0242712181018213
0,0231443847318715
0,0249823331505361
0,0251257998824325
0,0240719375890938
0,0235928914303819
0,0242879538934062
0,0235213846532592
0,0226676696840266
0,0223870966548912
0,0248971402775125
0,0240195809200289
0,0222234467212525
0,0240519030431602
0,0224068383825618
0,0249261419314696
0,0240833333455124
0,0216029293348096
0,0210757137935719
0,0238574495980549
0,0243421374357187
0,0243161606426439
0,0241213310333161
0,0238789435458201
0,0248309612572579
0,0214970862202733
0,0216498026627007
0,0232150980350141
0,0234739037143545
0,0216889384942692
0,0229103874657313
0,0227894456332434
0,0232267159378066
0,022484394208373
0,0226529014231921
0,022345603486104
0,022781843717638
0,0221625577577452
0,0236509114351403
0,0258576275552944
0,0240712653194738
0,0233497949942051
0,0234126230804989
0,0245624148137159
0,0234701511499701
0,0224929762351875
0,0225843428974023
0,0207491572465362
0,0214895104276294
0,02401986409919
0,0234066595772342
0,0214269725597182
0,0217954968908468
0,0222796749959691
0,0212395137684184
0,0218151313252567
0,0221756628397688
0,0221068612460643
0,022406930388393
0,02297154164273
0,023868076267356
0,0233325412899928
0,0216004943212609
0,0210528829391485
0,0235563620095554
0,0232145083512445
0,0222023148706501
0,0229321200223477
0,020734864394601
0,0215929074301074
0,0201975230153911
0,0214690127086227
0,0233937335537962
0,0224221456999221
0,023417724370239
0,0230892791436505
0,0212035242715877
0,0209702201769945
0,0218535674583408
0,0234142328765598
0,0202653702871919
0,0230842652839669
0,0218265935714003
0,021413392029383
0,0224243160628609
0,0228041885508408
0,0212511299410727
0,0213036354425613
0,0220001783433809
0,0206902224698971
0,0215343414534323
0,0231042361167636
0,0210322058348282
0,0214009989506309
0,0218824562439072
0,020838997153195
0,0218633944208406
0,0206000581463905
0,0202062658715098
0,0211214444137177
0,0202508784217201
0,0221595235595809
0,0199647237620786
0,0192972327200654
0,0209934509639981
0,0206916783360586
0,0203221941067783
0,0191352709011643
0,0200422677217061
0,0212642356768414
0,018907321880763
0,0185994889689517
0,0207074402328261
0,0197656485052203
0,0199039138073444
0,0215275787303234
0,0195671657427004
0,0202119167096895
0,0175609266269452
0,019639913674711
0,0204939620019711
0,0199348169039462
0,0204681037184685
0,0206108795717517
0,0193102413139618
0,0180283777085321
0,0203306613385361
0,0200967252801637
0,0195433957701245
0,0192246089448026
0,0197355603415425
0,018027640970616
0,0188173013838504
0,0199047347677478
0,019367516373229
0,0199026386876087
0,0167781061074671
0,0173100941077823
0,0202125089950423
0,0191083575046842
0,0182063833981779
0,0192617999132765
0,0183740439407879
0,0192141624156245
0,0188760790241701
0,017921902914148
0,018511508623455
0,0204954767340308
0,0183292187294986
0,0202417460837207
0,016851869004784
0,0179139272698169
0,0218868869681967
0,0216964158635359
0,0183394078106441
0,0180307620339034
0,0192132945905193
0,0176533222995523
0,0171162533938744
0,0177313634494427
0,0152395073939657
0,0188255274357949
0,0204065709072347
0,0187918274608611
0,0180872557807745
0,0175182865598536
0,0192275145554416
0,0177754498339057
0,0163429522601416
0,0165299463640354
0,0210233039057536
0,0193190135997671
0,0172247988683335
0,0182115984385122
0,0174792022402867
0,0184308802866474
0,0191167014679693
0,0177032322584479
0,0191392416788976
0,0169176280510676
0,0175398084040014
0,0181315999893597
0,0172347498362599
0,0171119654613118
0,0164907023698416
0,0159533857205661
0,017461247254392
0,0173028501055432
0,0154570540539209
0,0174550901565143
0,0167728026932326
0,0171813192398518
0,0175327523322028
0,0203344309914286
0,0177530503206054
0,0186580403568241
0,0199624548305827
0,016383545365126
0,0174802483726291
0,0176611917323825
0,0168790065553867
0,0173748960244882
0,0174312838271214
0,0171468113578627
0,0184302797036599
0,0178693725642743
0,0190431605729993
0,0173481181205065
0,0170453836245189
0,0178451412694629
0,017019801121651
0,0188928136405987
0,0166869917609353
0,0162472344854408
0,0187218728683474
0,0176481596527136
0,018786856411278
0,0183950029735997
0,0163756641076974
0,0179798872466796
0,0188702294758662
0,0165514190794168
0,0181086432356055
0,0172652015007103
0,0148985952349129
0,0164060789236246
0,0164159948291202
0,0179561092261755
0,0177653386508821
0,0163008628577779
0,0157283494994259
0,0175144610906737
0,0162244843565788
0,0154456625743306
0,0173140437465228
0,0181905612450282
0,019923089751723
0,0172220991470751
0,0149698154840152
0,0163575968202581
0,0185720390331063
0,016981994334092
0,0177840515786922
0,0185208582399715
0,0178064429003794
0,0188216911373835
0,0177642012018803
0,0166959834248241
0,0166475523975854
0,017359122577041
0,0170109992269299
0,0161316814708777
0,016326274798303
0,0164718758623908
0,0172917226987053
0,0166005521465005
0,016407421785401
0,0169897388208486
0,0168002710420144
0,0172635783827842
0,0163926380893586
0,0166593648844506
0,0161061914453471
0,0185400246278944
0,0190894157621149
0,0156209380804968
0,0157403735622196
0,0155666904908364
0,0158314850251105
0,017187871505006
0,0182959193905081
0,0182172768047426
0,0160213471732425
0,0145049898815159
0,0168612104134502
0,0181034018709716
0,0183935494071858
0,0172647702823338
0,0178269899560911
0,0177498519248716
0,0173567081935884
0,0186429611712286
0,0188161154533306
0,0185461288036168
0,0195490998680943
0,0162044145232911
0,0163723264788998
0,0174226892722976
0,0177926621626543
0,0176951096476536
0,0187398292273199
0,0176540169952603
0,015986535110582
0,0165226803227827
0,0164697490970741
0,0186211971061977
0,0177200145466366
0,0172345193205707
0,0183581422169428
0,018939470565285
0,0179323846717791
0,0179559242875213
0,0198393582857809
0,0180149564718323
0,0170879919444557
0,0179941086659759
0,0205802325596073
0,0196929737009301
0,0155360857508066
0,0179253349631859
0,0178461878118068
0,0173504160218684
0,0176357104311634
0,0180962471023701
0,017419921938675
0,0180245528272898
0,0209778319631214
0,020646592872089
0,0184560506055853
0,0200436491123772
0,0189678988985645
0,0168186483283935
0,018729527614738
0,0177965683716907
0,0162385816020365
0,019045362135407
0,020224504771796
0,0182693286371336
0,0190030595633439
0,0192774908777795
0,0181614694116548
0,0200783720413963
0,0206180768561075
0,0179234751727243
0,018951166775247
0,0209146544059102
0,0199625603582178
0,0172369906531871
0,0200939600361755
0,0199565848103857
0,0175412912781707
0,0204324005954732
0,0213030814187105
0,0210067552646811
0,0183711215770869
0,0184931295496657
0,0218880273798216
0,0215461343751775
0,0198352714896432
0,0214453782664583
0,0202577679317978
0,0198055019155849
0,0209989518590466
0,0202514272371445
0,0214453287394011
0,0198853452977371
0,0210005057972485
0,0222606440101948
0,0184448929179489
0,020034052892769
0,0213195822190128
0,0197535236186513
0,0213685487005495
0,0214572070639874
0,0225084343509463
0,0206203163699042
0,0215457621138834
0,0242254681191318
0,0215535164300407
0,0220003931222468
0,0224185054808759
0,0218972454264609
0,0231332796278387
0,0208373597019223
0,0204066113949731
0,022611364756782
0,0220531466348802
0,0196589267331438
0,0223261699633886
0,0262021997282348
0,0239644401652555
0,0210535457268635
0,0235296504362548
0,0245322711914991
0,0238013949927362
0,0250192871372253
0,0245421515585289
0,023598284557869
0,0240518471747625
0,0241787498784515
0,0246189522363793
0,0274507505453678
0,02439938510537
0,0254591000109009
0,0264415153014627
0,0244987348163462
0,0243770666286641
0,026509668454727
0,0284452225157253
0,0293307254109813
0,0253580845747311
0,0253100411368766
0,027653250645636
0,0295745579148819
0,0279514463734336
0,0292747001619701
0,0302824342301799
0,0306407287472565
0,0311426297773559
0,0294831114758681
0,0305112078164504
0,0334107964485385
0,0314669802798329
0,0327678502402067
0,032686803061874
0,0328855634000067
0,0356099315104913
0,0341308007171406
0,0321221790870899
0,0348590288921615
0,0350028951780288
0,0369358005916881
0,0363693825781297
0,0342045257354998
0,0355767138646526
0,0371964622364942
0,0386866720400285
0,0418926812283898
0,0386114106677443
0,0398972159845886
0,0431216161456833
0,0416267237412346
0,0404179005294325
0,0422691806124278
0,0423345328306161
0,0436124482311463
0,0443996872674376
0,0433736951701971
0,045251233075226
0,0448622192132939
0,0463660253509214
0,0469515215732425
0,0462347276919622
0,0496307068085102
0,0523066595721302
0,0533374874320926
0,04183141401385
0,0550394842975594
0,0548443473258612
0,0600242707662861
0,0668475755500388
0,0588979983054815
0,0604087022952778
0,0663761595459818
0,0651418593356522
0,0702234670157492
0,0734744595688189
0,0748158765445621
0,0777647436947018
0,079730631602865
0,0817699711838281
0,0870839188579233
0,0934060131479684
0,0965921836001007
0,0919460754955194
0,0896142600770455
0,0955929208522486
0,100218347632819
0,100554632812793
0,105645993230263
0,109604198059863
0,112236877890458
0,113596735305471
0,119354201882876
0,118267493243518
0,120342669550104
0,126038689536092
0,127834122373855
0,130056165932043
0,135429284918907
0,134486235517821
0,140052536919707
0,145059695318491
0,143693460588365
0,147304269553405
0,156147147961031
0,153555381653157
0,149610476924057
0,155509117746394
0,157052071433477
0,157128300913926
0,16030993692851
0,161076250099632
0,165266549747503
0,165616996726973
0,172326792127815
0,175095478251108
0,162827934894829
0,162085685646029
0,167238724934239
0,168578236396855
0,174096190542139
0,167667719784445
0,168641609675821
0,172370874584474
0,168715819407546
0,167549584974665
0,176887806176014
0,176307547630151
0,172239775602495
0,175084003705013
0,172388697979736
0,174867000231827
0,176309559723727
0,173687975930374
0,17601480438345
0,170336892295497
0,173928503782415
0,17094283334075
0,171450804198479
0,172911233901305
0,173405397119201
0,168817867386608
0,169417564484192
0,174473740755865
0,171028530545382
0,167040159370438
0,171065315811604
0,161705412630105
0,166804038895435
0,165553102030529
0,161378443167103
0,162567473271332
0,160990690732232
0,163731447765589
0,174645674281452
0,15696503654663
0,157895561705455
0,157047292382903
0,157375409642013
0,154397767149149
0,15901522561947
0,153002042949432
0,154675329391566
0,158204916444047
0,153595748170943
0,152358140663414
0,150966223499964
0,150373579382729
0,154127016576763
0,150522379632732
0,150409207694828
0,148744712578324
0,151211823514487
0,147612802456725
0,14882959554578
0,152792474250695
0,149790507206629
0,145572447796129
0,151353367752481
0,148609348941677
0,147537225485382
0,146326086901945
0,149724238431619
0,144368013070407
0,144984884730936
0,149042840712066
0,145645513251669
0,145532105443747
0,147032830450377
0,142034984428275
0,145474302072153
0,14509681928678
0,145803011640813
0,143690263041788
0,141607333471623
0,138340706688441
0,139851895731219
0,147621615443385
0,138502115713154
0,131564322724061
0,138850840600768
0,133420375949276
0,132697507313984
0,132571516838449
0,139117500004767
0,137167276477497
0,127851417651668
0,127523989888788
0,127587188644956
0,128632386939331
0,128234444641651
0,120303049404335
0,124641832510565
0,123956636102718
0,121469085817928
0,126252059978402
0,124414727918252
0,121387390032791
0,116463205496734
0,11158121274521
0,114553803278548
0,121747168877878
0,114536109012562
0,112461945553953
0,110564067628503
0,109533593516937
0,108687130064725
0,109540222645362
0,10739040636321
0,107605879698705
0,110027300968197
0,108392507952501
0,10422410923427
0,105264350036541
0,106474022426086
0,10171501756948
0,10890084517119
0,109704098904867
0,10270949628497
0,0985243625660201
0,09536054876098
0,097099753047091
0,100169436374695
0,100709080141412
0,094826353307538
0,0931620014371934
0,0940424564695997
0,0926974392338991
0,0913708050606418
0,0929598411046945
0,0958955911113436
0,0892889251881555
0,0935767242263202
0,0871634457289475
0,0891202624588188
0,0894050971108634
0,0893693642038431
0,0928711152853565
0,0878994732288389
0,0852368765438228
0,0899280532903433
0,0941001504511538
0,0862849085629081
0,0853357506330126
0,082604578272975
0,0845060360913793
0,0858688413844806
0,0800808816602659
0,0854709941752731
0,0855192732952586
0,0831757615319687
0,0787928334217802
0,0891717237472945
0,0865470368035374
0,0796960073889157
0,0769157179097491
0,0818843194616096
0,0827306710012054
0,0832380998192767
0,0830276464158535
0,0864630390861939
0,0854787358412017
0,0818131412155356
0,08668898656308
0,0859088979318057
0,082538020050338
0,0871021961463243
0,0865177157314803
0,0892505775875432
0,0910332996392107
0,0950408278601715
0,0921959517900301
0,0923523799834905
0,0927422143008559
0,0974047926543155
0,0998821702814899
0,0990902279973151
0,102736468763742
0,10507329966525
0,105742870941553
0,110542054401816
0,110535157485133
0,111781553120856
0,117495320384313
0,121407914777433
0,122095173360823
0,124322778486734
0,126203634592307
0,133625086609896
0,132249063687069
0,1388057717446
0,13449963450543
0,140967423644388
0,141214684322681
0,145701562989918
0,145904684270332
0,14956813518405
0,152030346056443
0,153492082229842
0,154544439471334
0,157065531276663
0,157177577605029
0,160607192754512
0,162882531123554
0,171773628836745
0,166780316658713
0,178567563957316
0,166076460522574
0,166031877583884
0,17088808260144
0,174279067245307
0,173852035130051
0,17700641475213
0,175458066629893
0,177015535087608
0,180993453199713
0,183816042244935
0,176868740869005
0,181185584009253
0,181804758637234
0,182163347132608
0,184705213924413
0,185714079605157
0,188503066047515
0,189630065216634
0,191097928384863
0,192210259852876
0,199962683430299
0,192333613411393
0,193670114164204
0,198649325389733
0,19947645025836
0,200861337758187
0,201823048905626
0,20868159497848
0,211588860151338
0,204468582069441
0,201877537931732
0,210278010889638
0,210966483853018
0,210083757372071
0,215687478763683
0,216652633387651
0,215050399802617
0,222685408352425
0,220319967166462
0,229939451615369
0,222169597011067
0,222773066359682
0,222502510154848
0,224974557262507
0,223961263308476
0,224645407852083
0,225664366887948
0,229745433656882
0,225069427397098
0,226908633904686
0,22325368306297
0,22944418669992
0,226549686171955
0,225741663513349
0,225740649988144
0,230423338025187
0,226487300379843
0,22662135106442
0,225046418848774
0,226450819073603
0,224754779956819
0,228151614538321
0,223450882734561
0,215697624341348
0,219537829790717
0,224179752189788
0,230684396938911
0,223174033625283
0,221395084654018
0,223405597572756
0,224107622339438
0,226865345099874
0,224187995860565
0,22768900088802
0,22887640407592
0,231551014686951
0,226861096578637
0,225876365626061
0,229991553430183
0,231780205239449
0,232590199429994
0,232470893050753
0,235053817128772
0,236123360359932
0,232828220530098
0,234813682897678
0,232886103451091
0,233954313896854
0,239664915372713
0,229391702455727
0,230299947357356
0,230590094715269
0,227911454610556
0,230854381079274
0,227150136697021
0,224486825839095
0,220549398816491
0,222657296869247
0,219651020925179
0,218619212642772
0,215707306761006
0,215284451041803
0,215829839870771
0,210519926788591
0,209182708005078
0,207924979234971
0,207548554488206
0,205496533993092
0,204611980148116
0,200031203538714
0,199581589302128
0,203629700317198
0,198167744876346
0,200563830388201
0,196092012962645
0,197979403842615
0,196056238112239
0,196034536024228
0,196013109886178
0,194986932529799
0,191505730992357
0,194753845549425
0,192429080898584
0,197943484184577
0,191675414477972
0,195421488051738
0,18984309105636
0,19197373554194
0,19284267000608
0,19368957220431
0,195985217370408
0,193465482896295
0,191423765507356
0,193560431958454
0,192360380994349
0,193392315079939
0,191344813233194
0,191843278129411
0,190922893935715
0,192000700972697
0,193814875574243
0,188217921103619
0,190584440570869
0,189621207212321
0,187854348990123
0,191236962684915
0,188479671498279
0,187984115475267
0,190322017516242
0,192562455883352
0,191184793926943
0,190245524154514
0,189586949191754
0,190065056735232
0,189381466723714
0,192192590413444
0,19066416135428
0,188079758470438
0,187611964378883
0,187677699992396
0,186055607032274
0,188677795709786
0,186733533257074
0,187602644015178
0,185415900065705
0,18219281334921
0,183219755190276
0,183882026828512
0,181539119009462
0,176703384292824
0,176803984891327
0,175943324867382
0,173709239529221
0,174372373799373
0,169954246541189
0,168827525418425
0,167168348621712
0,164519809230998
0,168471286240047
0,167463684230951
0,165774059828253
0,163053718755402
0,160801244346907
0,163903206572723
0,162089048705452
0,16244322081609
0,160630712361068
0,161140564169225
0,162075920453512
0,161749416781724
0,161599618018421
0,162245605226162
0,162783076395083
0,1636889637784
0,162647502241386
0,16293049285265
0,163108469905423
0,165775830408956
0,164868532190925
0,169147364603014
0,167601554696994
0,170066322560536
0,168030928216326
0,167702125228022
0,169865178050425
0,169486536161953
0,173668049421491
0,17268420871423
0,173073734899768
0,173865349055506
0,171977684125776
0,17153515905097
0,174404803537767
0,177055284005541
0,174849537453542
0,1752607281181
0,172713889886985
0,173921565944303
0,174381894347397
0,171957368072761
0,170565496186629
0,172378775202239
0,172478372196418
0,170147392747434
0,169353211831788
0,168046485650963
0,169346375204061
0,167383554311476
0,167000680259855
0,166392581299361
0,166249745785204
0,166579213147738
0,164623737372488
0,165708351915254
0,163565246285659
0,164445237719072
0,162586680382583
0,162677956201524
0,160585480016046
0,162836967880652
0,160372516300392
0,160104318758021
0,157136458524183
0,160263101653796
0,158897211278654
0,157547232867578
0,158050011109548
0,156856425668458
0,158142128596183
0,158080836660035
0,154888587149216
0,156767746064411
0,155377100792119
0,155677463581199
0,155437591077167
0,154376022179421
0,152451918905362
0,15185392561703
0,152262367774144
0,15070391089689
0,149520918199616
0,147526223950975
0,145554307729147
0,14555632273642
0,145183681490852
0,143594168865682
0,142079373612159
0,142340456074802
0,142079098793837
0,143076589030715
0,140141540743025
0,139897012217434
0,141089385786911
0,142986015923211
0,141381150800203
0,14048761596128
0,140384340117214
0,13919297116236
0,138607534896414
0,136746724886772
0,136128860027028
0,136562233818675
0,133767956606833
0,13182285292385
0,132911711173399
0,130670432764355
0,12858864184849
0,128383032903647
0,127823571435695
0,128298443245505
0,129440861684156
0,127481495542903
0,12874459237854
0,131629151298992
0,136432124871788
0,140460347729998
0,14396503810718
0,149765726877561
0,152914014917368
0,160964572044849
0,16745751562107
0,173327392655882
0,180350042100516
0,189810517075723
0,196940143913581
0,205185111458176
0,214036567309388
0,219128778305469
0,227477984361882
0,237243300987106
0,243608131356877
0,249105236483462
0,256692328919228
0,263827041585465
0,269325632496183
0,273649266854978
0,278770410489779
0,286518026790636
0,291139726581389
0,293127032935463
0,299441004030417
0,303541035020186
0,305657436393866
0,310485111354567
0,311558616502944
0,312478207809737
0,318594772678779
0,318587486627446
0,31977095270568
0,320739327618174
0,31830815166363
0,32222670639293
0,319866020924199
0,322122439507655
0,323001006629078
0,323502914549069
0,324615272998359
0,32466505825574
0,325168123572749
0,325331862419147
0,327167314907953
0,329709589525769
0,330322117666274
0,330689846304857
0,33443047592198
0,338591194478103
0,341987426714757
0,344030428178209
0,347003980591941
0,348857743682897
0,355247143456855
0,361308759301867
0,364120764461831
0,365245691348406
0,371563758148288
0,375228731825255
0,382272318958799
0,387765832997835
0,391546933990011
0,396556470205217
0,402803422110836
0,409436856224865
0,410552087260997
0,41612302997482
0,415969970764953
0,413944782252401
0,416982651074435
0,419340017237841
0,416195079735414
0,413471468038834
0,413446380533462
0,410750339428902
0,408918778144243
0,410001617091508
0,411652970586016
0,409495588318469
0,411740363905388
0,416354030753567
0,420957167769314
0,429667478217967
0,43137386837423
0,442933692432936
0,445517403792426
0,457874981468469
0,461180456682189
0,477133035104965
0,479663076171962
0,487535476885482
0,495814078050124
0,505896693528123
0,508390055798307
0,516257959885462
0,527616667503834
0,533590665630004
0,539966249351205
0,548976599431272
0,554756186920329
0,567874200652461
0,575599078157896
0,585260604713852
0,59523319803591
0,610559582071151
0,617176680022162
0,621658263266561
0,636082067268806
0,640246143253631
0,642369682746293
0,653034749124324
0,663270394945993
0,668484769772395
0,669672232813087
0,680106812264353
0,687542979774379
0,680696587875819
0,684056917674176
0,686418824878904
0,687532504208747
0,68395959391669
0,683438030757381
0,678177618729107
0,671549991769119
0,671625017289129
0,666633735214951
0,666224237496295
0,663228664103349
0,649562556013747
0,656344448785202
0,657279272958807
0,64810648833562
0,654483570403638
0,658183654307446
0,660923148772625
0,660884502840643
0,669095902345208
0,669566336765801
0,68245206842304
0,684853341095224
0,691005117815112
0,690675716038894
0,693449017890315
0,699033209480451
0,712572942975273
0,711011117162414
0,714684951953257
0,712341631316344
0,715005940779622
0,710631277188197
0,719249085209978
0,712784567553842
0,711546588146336
0,698873214964094
0,706320072471963
0,702058975179865
0,707290954729182
0,705222665520489
0,699467064836067
0,697594833304184
0,698589438948232
0,698569037939815
0,686216522036858
0,68538972542038
0,679447350785266
0,673717585530542
0,672529400309509
0,666334318980879
0,659081076027952
0,650993519081774
0,651499363289562
0,640626555580759
0,628651730158257
0,61402894260283
0,607494009953269
0,593873056417864
0,579149924818305
0,563827182963503
0,546529168715619
0,526799778225604
0,503129846228861
0,489360900131019
0,468300328711324
0,447359894138303
0,430658384645825
0,41729224890717
0,400103986756743
0,388309095322679
0,376251840253078
0,366144064079437
0,360543760435052
0,354294042390653
0,353938810422101
0,346242612051783
0,343531805891335
0,341750366815178
0,342139926981476
0,336341368643954
0,333513767939956
0,33089737347091
0,325583051600368
0,3204002615568
0,315230210657935
0,312183438321376
0,307980196186312
0,301751282098409
0,293112558706371
0,285934448364931
0,283033534419555
0,270157233617676
0,262234654869905
0,252237648101065
0,24423807488224
0,235403196377667
0,227264171645834
0,219844173723394
0,211420480821225
0,197234210778452
0,187801028681467
0,182762736643984
0,17269782067178
0,161752792871909
0,156802198190782
0,148509375220234
0,142421939158434
0,139384962685227
0,132738334708417
0,128358226626409
0,123216334208027
0,118249628881038
0,114328577297596
0,114911338239201
0,112840291500955
0,110187970200339
0,108884969671611
0,107278213249402
0,104445186164014
0,103624089191454
0,104605443487075
0,101610706450147
0,103877149270953
0,10484137972683
0,0999442592127359
0,105279057177027
0,105832759778283
0,106217427554042
0,106717376747434
0,107055606548249
0,103651193041243
0,107544048902251
0,108424646783497
0,109143901970397
0,109473264861682
0,109102867616177
0,105457095939562
0,11005508456118
0,109486022177909
0,103111349540386
0,106804824646562
0,0992304427487575
0,0987364491947342
0,102736549220198
0,102579072193522
0,101567721025634
0,103383735879563
0,102201190355403
0,102218528206332
0,104846218216185
0,102678561366154
0,106019044982706
0,103862384313063
0,106205760531237
0,107741001882672
0,108594255249317
0,109201122812811
0,110584007610672
0,115415887716595
0,11303893286794
0,114245600804951
0,115896583828439
0,118904486044282
0,116569417642128
0,115709180558417
0,120806160565306
0,119122890482935
0,119554133754995
0,123450336325301
0,120614674906087
0,118484859524918
0,122629464742784
0,122521181763327
0,121616961302152
0,123757560546984
0,126371221264165
0,125737990932236
0,131699449127638
0,13176605411591
0,135844814804213
0,137648100744797
0,141229701324297
0,143924787871518
0,150958471422207
0,157229117152322
0,158270288292882
0,156106918051334
0,16619499202766
0,166310768910314
0,169466793285229
0,166402746501198
0,167053385485663
0,161821556692295
0,162264960592154
0,160583212869349
0,151946348396104
0,153735362009631
0,151917313434732
0,142384102537661
0,141436126080845
0,142986394669536
0,145391722627388
0,140279865230704
0,141752518039238
0,144321755239288
0,14532345328892
0,145530686677412
0,142371729682947
0,145100447747098
0,14102560913108
0,139630496918117
0,139240946285554
0,14017835472533
0,147140389384598
0,138119142771358
0,137820044760524
0,130930565064705
0,127441446022877
0,125786840849265
0,126454426681618
0,131410071223077
0,128076731361784
0,124406554684471
0,126582842627815
0,122271984779716
0,124180331394716
0,118597017828452
0,120250445923259
0,121035695427435
0,123705391088614
0,120660748386522
0,113933213876833
0,118788757685261
0,115612182827775
0,122101195487733
0,117393869009891
0,114898358198311
0,118930105813983
0,120215050651622
0,108845997263274
0,115337359632549
0,113267073802396
0,108144473647268
0,113028352261568
0,109848792809979
0,107500352451541
0,108957824206219
0,108505179207336
0,108508329022412
0,106977731511429
0,102530753342227
0,10404857655798
0,106366412196539
0,107362843875795
0,0996198290939509
0,10715714401086
0,10703337139102
0,102901891857243
0,104963648782799
0,0959910689720893
0,100955940910327
0,10115436375855
0,106741204487742
0,102101944689641
0,102704234402441
0,10772296974375
0,113676957691353
0,101222259517095
0,0989715054648486
0,113543042945355
0,105170977775896
0,108101740594977
0,103106016562011
0,113543379138959
0,114712891088265
0,106411450222789
0,110860427361769
0,117610993530583
0,127914968071958
0,121406648168449
0,116976497799431
0,118170683896542
0,123093471895723
0,128437715265314
0,120986600367877
0,119340470987384
0,122345812306754
0,127538581074274
0,129154951100151
0,134628273728341
0,1458325090097
0,144451502855054
0,147418990494066
0,149233518089493
0,158682689483633
0,160867852266188
0,164308199071046
0,176706662392384
0,189082741958087
0,186646947949656
0,187753911136755
0,202211586246371
0,189891606445736
0,185958884615493
0,201865380280888
0,198797947353397
0,202105586704666
0,21072732229007
0,192905826929767
0,206413411474208
0,203995265925039
0,192777188246927
0,204004683872764
0,197970387179645
0,188686132653511
0,197466807849273
0,191702862021618
0,195438405813488
0,1978303456229
0,190870065935381
0,193098126100986
0,197616656292653
0,18833467250897
0,199717995967757
0,18156515421722
0,183432391312797
0,182153094979531
0,172232069534473
0,169673843439417
0,173308957194795
0,169518012128073
0,171023553535121
0,174004395841505
0,176064068715455
0,164091950135296
0,156489748992059
0,155806541809923
0,171842017132615
0,162716503518473
0,154714296436512
0,167532780054043
0,159491609380657
0,157367759780965
0,165921032321122
0,160106794064711
0,165655909131883
0,166040973935631
0,155160398223594
0,155168725288669
0,155741201713666
0,172025905496044
0,159468248631395
0,14244993087871
0,171938858233685
0,167606877529931
0,163976057541602
0,166537883043957
0,167429365855927
0,184812864286025
0,187041256445161
0,168791641824515
0,169447245283406
0,162663256602459
0,173259048742473
0,185946074774834
0,180021180973506
0,153825699135809
0,148862852997306
0,185280628749303
0,211602019185959
0,203697618055515
0,200917101308929
0,200031536301486
0,16452070594242
0,195228120646897
0,194224114065163
0,194148589551416
0,179588436575634
0,19100962803148
0,208940962573721
0,213830780212215
0,230359526762574
0,224684095861215
0,217867527045451
0,232013372819363
0,242535284586461
0,218645949221913
0,251410442680329
0,235841336225717
0,231080215380992
0,278822251640847
0,235804671377122
0,201903909228099
0,270961875496935
0,272486953920038
0,221132387130112
0,231238441820461
0,245705064230174
0,205170935398978
0,203502342122422
0,250515414494583
0,274842992189021
0,229356560911601
0,191763729252467
0,2419055831735
0,250859355848102
0,235567937930803
0,219205030721666
0,205080994003096
0,221967380165479
0,21573072138723
0,220980574631708
0,192942244452201
0,175709139202664
0,232465497412008
0,242632786568926
0,212447696612714
0,228383142269292
0,197957627843012
0,208226691122587
0,238793609425303
0,307608589011542
0,274233292327655
0,213961387561382
0,21228567335664
0,228095852177691
0,258878830498416
0,294179777421453
0,259491029116931
0,206308161876307
0,287036127208284
0,275326127319706
0,226519405882068
0,244232120059367
0,217780121735455
0,182083456502384
0,192539664540895
0,229217897942875
0,283105892298368
0,305797867867003
0,0885946480061773
0,154161734675335
0,29555703668096
0,270709863291291
0,15650926132642
0,374331761072156
0,31446520596687
0,160130624939058
0,247444480831326
0,243537558574659
0,237724888377322
