3596
4000,36533379555
650,420452594757
1
2
2
0,0047502643764266
0,00473886336192936
0,00665771662936368
0,0118614547193955
0,0137972179344928
0,00340063660425775
0,00218621697245667
0,0089762674435165
0,00361891277480393
0,00335177694509883
0,0122499621400573
0,00441605166395208
0,00874215861721498
0,00538716703495203
0,00712635486910902
0,00865859855752332
0,00855857098495105
0,00737806769503408
0,00863838131603272
0,00637361234750398
0,000995233851957855
0,00667013764448628
0,00471443810598639
0,00529430206892407
0,00487421173128606
0,00801179804140661
0,0114995316137482
0,00364164291104693
0,00757769211843453
0,000400639798135486
0,000336128596573526
0,00265565729236186
0,0123800407461467
0,000793836478016881
0,00976947861597743
0,00598200583676185
0,00736797919732139
0,0119902772528972
0,00464650089076128
0,00629187366506336
0,00355046849678423
0,0036526113612981
0,00303347353466557
0,00095068318598971
0,0102884137397096
0,00541153841214428
0,00991716012138607
0,00948656302295886
0,0100086768044844
0,00710123285777478
0,0102730703758458
0,00657053390741326
0,00452481867725791
0,00714966298797687
0,00706013008692768
0,00333371275113482
0,00592818155286111
0,00472353473008516
0,00724721064832673
0,0159064429974816
0,0111342735788293
0,0129283752777167
0,00712863596292906
0,00787117864127049
0,0100409548462716
0,00228446191772931
0,0101030085507187
0,00638869082690964
0,00300053236378784
0,00496333874076196
0,00707365993440122
0,00736266244207076
0,0167199852635137
0,00376646857563607
0,00890090753656702
0,0126553562646847
0,00840356543229977
0,00709531999760689
0,00827285093363715
0,0119970652011366
-0,00105998322351848
-0,00122745705830113
0,0189303651828455
0,00567719186717648
0,00166103284987207
0,000873958054860286
-0,00772579207935058
-0,00699271090250881
0,0147158498456093
-0,000733081890190409
-0,00221531234454054
0,000358466494473875
0,00797026414441708
0,00417858205699029
0,00178710842186724
0,00983340130100157
0,0113287567125319
0,0066135871850883
0,00430128501522298
-0,000213982494881741
0,00968113764420023
0,00114419714496872
-0,00402986117856905
0,00845686243687773
0,0244981681811438
0,00932344847195775
-0,00103244693868029
-0,00291990826758251
0,00786022350140497
0,00658987972750155
0,00670471415303121
-0,00026932931255924
0,000909129293928882
0,00745595272635784
0,0116416912190193
0,0130849742107608
0,00496737796098578
0,00375930841733729
0,00627017627125454
-0,000983548332160939
0,00388492456533546
-0,00265068203079983
-0,000907928337540191
0,00250949503793482
-6,27280414485462E-06
0,00644136953669812
0,0131705068408641
3,5483650731213E-05
0,00927952123936883
0,00301634485669859
0,00963282805333449
0,00369760352102883
0,00928295556011147
0,0110126149400924
-0,000227678268077843
-0,00215520605330392
0,00340948859683763
0,0047796427946106
0,00331585390403938
0,00402874735479491
0,00436128724115853
0,0057288523790152
0,00283424163794882
-0,00142511136955818
0,00435055848666983
0,00596118432981216
0,000819099335458687
-0,00411401729349046
0,00242929183044236
-0,00277458264119132
0,00917917634835913
0,0150123467988041
0,000915984209678741
0,004508781440763
0,0150505638413798
0,0114880896343897
-0,000755905542584649
-0,00446471519592001
-0,00512080495435727
0,00387268921589484
0,00265802494073723
0,00622748446068598
0,00827178685823858
0,0067708200216806
0,0045069779324868
0,0103935228051072
0,00397803474083635
-0,00232623955040352
0,00424554564529851
-0,00484339830283497
0,00512687548251553
0,000706780538977249
-0,000106241155481655
-0,00483723500639349
0,00958437088543183
-0,00515878080658238
0,0034555667731473
0,00350038736678781
0,00696449027173239
-0,00331717642308139
-0,000133310011551922
0,000851716596880486
0,00268742991851594
0,00222818742355021
0,00946244535740329
0,00300652929503557
0,00388670662837711
0,00393542303654723
0,00110189711972995
0,00748934246881893
-0,00132790951076262
0,00751640886086352
0,00673436529336664
0,00922685933761679
0,00460987515245449
0,0125613153607286
-0,00605863358601219
0,00681207824819057
0,00207659902615482
0,00303715161862854
0,00154402801266314
0,00569885520258639
0,00841759668623846
0,00360040373285863
0,00655017178080409
0,0140352958267747
-0,0024467745575913
0,000200217838419926
0,00919050277666618
0,00174010053093627
-0,000628778441429435
0,00754059330576489
0,00466451757734273
-0,00177027018837316
0,00443806746583813
0,00427620031570632
0,000451524223402033
0,00636665328285946
0,0041839858277671
0,0104689647743841
0,00133771117809164
0,00355602124328442
0,00495073010901776
0,00912367498066416
0,00926903309804711
0,00579298821649031
0,00889403410350856
-0,00310340041014259
0,00582170614175214
0,00614849388956347
0,00446853400720657
0,00445077071873224
0,00810126125698253
-0,00318796472802307
0,00342147250670336
0,0102216960296804
0,00743022132916935
0,00724652682232615
-0,00523332033823594
-0,000838839110836583
0,00531993895583666
0,00277559869067802
0,00219379834060453
0,00324189117342295
0,00492630374048114
-0,00479598576134793
0,00440351923345733
0,00605481262436054
0,00195701078683017
0,0151188655304423
0,0150302930996338
0,00362984019633569
-0,000297355818555642
0,00360577534478703
0,0139400130636049
0,00900925266812759
0,000350634124725176
0,00265040595516079
0,00399350544604186
0,00231511659556134
0,00525813206868618
0,00914011915955309
0,00480980798114243
0,000154189145945436
0,013805938018592
-0,00670755754270519
-0,00309839713460994
-0,00278829750944437
-0,00306447858364683
0,00452681636952708
-0,00986973937557008
0,0069324504799784
0,0126216377522094
0,015468476271566
0,00632945433959556
0,00389884409903592
-0,000320286988410302
0,00678985493902391
0,000269014833983404
0,00586145854133033
0,00885369882959738
0,0184384329669397
0,00750679437380349
0,0136527951717637
-0,00783893561781198
0,00817561415988184
-0,0109924183438608
0,00820036659026153
0,00984633519851448
0,00857961544308312
0,00575963162126255
0,00629632894486707
0,000238849194085708
0,0104387852925502
0,0043233774768262
0,00354838557095106
0,00761176070939279
0,00466796437840529
0,00473963317742556
0,00638625343502646
0,00924665264619398
0,003974701769924
0,00675037986044903
0,00468038933808401
0,0113475142781437
-0,00276647967466059
0,0093148785802184
0,0163070175658062
0,0121634270616637
0,00838422256073089
0,00733004198445123
0,00653299086556004
0,00812488896049816
0,00713306196949772
0,00708593105621667
0,00920353682598017
0,00445180597836986
0,00982619950076908
0,0145262032745648
-0,0012092895439477
0,00916167178992252
0,00654120399421102
0,0105977545711411
0,00335384845295512
0,00943686263142172
0,00606539073711885
0,00723454624705566
0,00508355899577259
0,00393546950815421
0,0131446343430083
0,00921152091392351
0,0154312986472832
0,0183857568533781
0,00464455735675415
0,00896309963737419
0,00987695788078201
0,00180937556835688
0,0141567658205592
0,014414084018051
0,00775772988126479
0,00429439151643285
0,0100110930714793
0,0151119022053057
0,0142867074032198
0,00715314944758477
0,00715948753765825
0,00587788190725373
0,0280361121688345
0,0151618069949969
0,0170445880929259
0,0156032760517744
0,0110070824590277
0,00637163539471462
0,0170967133738296
0,017108671034018
0,0089612428436065
0,0123596441593183
0,0185668381103296
0,0153746338544854
0,00697077970773928
0,0211613935616571
0,0144780838748793
0,0246686167799045
0,0187890474713516
0,019395380622374
0,0236103639982233
0,01855379536581
0,0269779084496391
0,021304597393259
0,0186168338120493
0,0253963441382324
0,0200251166721481
0,0289754734346415
0,0242787020572763
0,0346675615542533
0,0360565223300429
0,0138083319483796
0,0208990166025352
0,0307804971790195
0,0233292765990332
0,0245214645959398
0,0346480724492127
0,0303991222574574
0,0318208434988008
0,0314605379187876
0,0303381961420316
0,0305468703736667
0,0357595876183308
0,0354030403723922
0,0401731286621037
0,0363567716973494
0,037823723277585
0,0323161150780952
0,0414386286092891
0,0497737467058155
0,04943533034721
0,0401454344962164
0,0494927023203769
0,0500983689642084
0,0459183076770718
0,0501445100630815
0,0493056873075812
0,0521351553505838
0,0540467442087067
0,0579978155314995
0,0523206723592351
0,056547668880621
0,0657094915318497
0,0624453871926987
0,0642963007080314
0,0567106007193799
0,0636989804869413
0,0569478698773594
0,06579346190724
0,0636850645269877
0,0624417192451663
0,0652918527518449
0,0646725010495948
0,0677528877561461
0,071175658208481
0,0786875276042495
0,0699628099808778
0,0690706646779879
0,0874882927231288
0,0763131575689911
0,0707020342381651
0,0797390852313501
0,100022954857263
0,0901875366971271
0,0850783998296301
0,0996213569216707
0,0971831139749048
0,0886619040752114
0,106495907747814
0,102420010643421
0,106939710415431
0,101028363503341
0,108502174857642
0,103305215562332
0,102913412556603
0,117957723906039
0,121792440946435
0,102008572988453
0,122884231579195
0,109209199848848
0,112998379075838
0,119696406269213
0,124198679084933
0,121254624970004
0,132512304759559
0,124653091060302
0,139018535912281
0,137180033044926
0,147153579102071
0,129183457961072
0,15155199892861
0,142606241708336
0,150471424030078
0,146417319582864
0,153766364473049
0,149741351198085
0,15958470401451
0,169497176314265
0,18130646038218
0,169161768652316
0,174100821267545
0,155505639491957
0,168888554001092
0,159030752096358
0,182617392101046
0,176812521548111
0,181342720461993
0,189943844306684
0,194969290521981
0,196062770653005
0,195575992097952
0,194076436819184
0,213171813441012
0,207201581225125
0,201403179994666
0,205533463906067
0,213900116187453
0,220080116782573
0,220731779690566
0,222061878650783
0,229940583061091
0,226780511717401
0,236861401437762
0,226194794591317
0,245252089180179
0,23956876657012
0,247815114719667
0,245443469701826
0,256726597496046
0,248814701398473
0,260717397670632
0,260959946486687
0,28721835425583
0,277101940739542
0,284682546999102
0,277890421486594
0,279452883397527
0,266271835558501
0,288377576328492
0,271206997934952
0,300406069237056
0,267852930223309
0,30985071203422
0,287227781558812
0,321718084916999
0,30366383661085
0,302784407678364
0,304809792417773
0,316712286050152
0,301137700367188
0,324868413584245
0,333546239089579
0,343590403289454
0,345372039539293
0,343705652811245
0,335383108582947
0,340243059775168
0,342075680794678
0,352610058051471
0,371209637497245
0,381715933457748
0,364652321223637
0,375308028799143
0,357237037333146
0,38768171721856
0,359654805736018
0,381971729306282
0,377177023440743
0,389984835965651
0,409526654656931
0,425588896187865
0,413857369216733
0,405657476917545
0,394620593935164
0,404183763897984
0,417445296644799
0,427236817393996
0,420037392001626
0,430148576234843
0,419625849468597
0,444944397241466
0,449592108600657
0,454007015865195
0,432119664245454
0,451861085329599
0,451707039882437
0,466619796409605
0,463060481262692
0,466815621289326
0,464734465343624
0,484263466319263
0,481430873335492
0,466113059671411
0,46578002509722
0,50197836774105
0,480774502725168
0,514755171327393
0,481579755050151
0,492135313937441
0,49773374235042
0,508062569833594
0,487046802919667
0,529463751714604
0,489486909266401
0,540718313025238
0,516839445131267
0,527456021627268
0,533450646146784
0,537937632829761
0,532403220237079
0,573254523532723
0,528370228441017
0,590672013926319
0,556158589162395
0,581351918964692
0,571538299308231
0,567608644324406
0,547565547632232
0,60227260438971
0,565045997751205
0,586591318729473
0,578775977749412
0,586437377224041
0,597276798914318
0,626634271627955
0,575222754328966
0,610735684814547
0,595092086789372
0,607200007825812
0,611713399835087
0,610564821963434
0,605792348662081
0,612280372505294
0,620808701822663
0,643681485140227
0,60422679747409
0,623427500957133
0,596091833588486
0,655189495229207
0,613490933711731
0,642876343788153
0,634465334383607
0,660990511081498
0,657541832831242
0,638328956892564
0,63628253177057
0,645221071281326
0,636708709967204
0,672098217750064
0,658148906521107
0,679800740414907
0,696085668634528
0,665518336366021
0,666925728607121
0,708569609558769
0,653260953051712
0,717766401966151
0,702843237881999
0,693712892314495
0,685530468128525
0,693700324839133
0,677056049415065
0,677678633890424
0,670392341891534
0,714708985690631
0,682784032796316
0,702494484606012
0,694174640267749
0,759806901838265
0,749265948544537
0,727083396486479
0,677916245664252
0,752588552645014
0,708547300022528
0,722536958129631
0,710592234840096
0,749292948680913
0,729959332324507
0,753671823966439
0,755529383652075
0,767539649604161
0,732805040429856
0,749497708673805
0,744250570090644
0,742559830397287
0,727011870474312
0,743658318797997
0,751961870968903
0,782707702432779
0,765428250400055
0,796469818335528
0,779382246934999
0,769804384361387
0,756029680843844
0,790905603022814
0,768587712603529
0,759112801206943
0,730854409810761
0,801774181046438
0,74782423986599
0,813298306827507
0,731648105092187
0,76933219645446
0,774358165880812
0,803847353239006
0,787052435144041
0,830563126946424
0,788955806197737
0,805187822336407
0,762544513617076
0,768594211652047
0,766431983272114
0,760920087784345
0,775257335324299
0,804793952767287
0,788336632996529
0,83070374896222
0,815602395399369
0,837459104915118
0,785741831750227
0,802921702242141
0,78408368685548
0,784088531131327
0,799049430004027
0,790574630925518
0,795288180485266
0,839551508738502
0,785190957752783
0,800603113008675
0,762568897158864
0,780725651496914
0,82251132019705
0,823997297001954
0,771904720936069
0,836626734432475
0,776051477772281
0,793672738929297
0,76896856853505
0,781663579474885
0,81971943602562
0,851311672437771
0,797632011754127
0,821353395637417
0,799004202235962
0,826320392712902
0,791437605791935
0,808149301830387
0,770170600841544
0,778924290687405
0,799349801265666
0,793184800840511
0,775587339008071
0,797607350852
0,767339415229744
0,829030963299917
0,800762828048901
0,807599228030577
0,773132398529807
0,800007275992888
0,783791135094267
0,812603861635662
0,782350434500331
0,799481829212583
0,798066398541514
0,80597161755968
0,762516350765237
0,808427892741509
0,749432351750539
0,809975552707099
0,779091537203972
0,780605702699055
0,754896888385711
0,781166257460147
0,758700816782039
0,796254743534507
0,732888292519101
0,770537689201032
0,780978633508304
0,786246391078216
0,774052524253832
0,78730250976933
0,760464863517483
0,760085651087399
0,766788581826457
0,782800184257286
0,757527011941163
0,779972767748943
0,750572452407984
0,800429900142905
0,754575086687088
0,761789633028486
0,76679389531036
0,773751394336465
0,744413120914704
0,739686606162297
0,746041825321346
0,776344802254865
0,758158354130761
0,758009348998604
0,72675524220847
0,747545015573577
0,738992513192788
0,741057349499699
0,733690211389253
0,779856871232625
0,722876650237212
0,744235349152565
0,714839498635675
0,739496161288042
0,736394074000236
0,741102309029236
0,723462835333711
0,739941564911074
0,729012557795589
0,72972743340965
0,715017399461513
0,724188302474408
0,730978868028592
0,721782366445579
0,711577860407878
0,740795502093729
0,712254924342511
0,71970678995464
0,70063720288899
0,707729290954132
0,696169404639144
0,722098240292758
0,692983833304055
0,709293898169544
0,696182818598426
0,705204139513384
0,678078807918732
0,717183304336488
0,686031831586839
0,707551435634409
0,691535890547053
0,673471937146235
0,661920109740844
0,687103912198809
0,683615579747002
0,665971771595722
0,651846920275299
0,682396517153555
0,655574185487449
0,683794154675093
0,662432435595845
0,650918891767084
0,653889562308678
0,667279805708043
0,652918846388449
0,663894941644491
0,64222841023937
0,648397164136371
0,627681029904373
0,646681111362128
0,619547625748321
0,630597987737762
0,628886083934085
0,64071673698678
0,611147026400469
0,623539017515124
0,617520295050123
0,617516961239188
0,609409899041966
0,610568211648824
0,615456799259494
0,621160345449725
0,598167543391425
0,604882323706359
0,607235416483708
0,602191859573845
0,59010090384925
0,606982588447854
0,591297489403011
0,583568129466199
0,577722290081368
0,587653453931589
0,582483434615419
0,579890022462655
0,572915327291817
0,584788432129413
0,566486644394124
0,5643565420943
0,552900164880407
0,555017559423456
0,556602248876508
0,573737678040897
0,550052413848251
0,573525187977181
0,543296144964811
0,539389804219762
0,539237987958885
0,547389593023962
0,536137800206404
0,53637833558159
0,531514383940766
0,541234911364693
0,521996303241003
0,540817390268035
0,52439255809533
0,513098123390503
0,511876265552902
0,524027796890039
0,513925558439929
0,508899842307142
0,502198692544671
0,504323215576837
0,498025877436317
0,501546246011376
0,493326210300834
0,498493244057628
0,482617177436688
0,486172919555378
0,474308222717412
0,480523482207029
0,470191090901234
0,479705173546557
0,47086823748046
0,467187723638933
0,455011425138
0,463206781742158
0,46678580522065
0,463367163018457
0,449815510680128
0,451106767098368
0,446292025755734
0,451772082924035
0,433297128193767
0,443707408072818
0,437190551158033
0,433434192682979
0,437677219461246
0,438916564046265
0,42890780231914
0,437237612510859
0,422093378316074
0,428781857884921
0,420089275278165
0,411974227764087
0,408738845047647
0,416750791230686
0,411798974903167
0,410356303623365
0,400074406664399
0,394061845273131
0,393261796996456
0,398722401541915
0,396394879342982
0,391881580956863
0,387604331788253
0,389284454410534
0,38748805927677
0,383341159256705
0,372115860140514
0,375869083483908
0,371895893956457
0,370083158143022
0,363859877469509
0,367697507650916
0,361210574549642
0,364017932152368
0,354652081164944
0,354339506389268
0,354182832561868
0,35764180000397
0,360420030162217
0,357134735633885
0,341888929584185
0,335942891136234
0,338275691514209
0,344684312742555
0,331748072706561
0,333842679873955
0,331192760912664
0,33327609216323
0,320177415985456
0,327627151813931
0,322671222419533
0,319969331112447
0,320666633037709
0,323259257693154
0,326000518496912
0,314960810864378
0,307297065232877
0,312108123589563
0,301293452017985
0,305065278224863
0,307632936364872
0,305283482498463
0,303744197106812
0,304569777950679
0,295120502948776
0,299803811186979
0,291794703322903
0,281521743116086
0,286646217521236
0,284214613165731
0,286466522850123
0,288319607760151
0,285092601067371
0,281649406671099
0,279152748600999
0,281992833264373
0,270458895978262
0,271800194443041
0,275147650165213
0,265518739377199
0,262524041338646
0,261740921942115
0,261010579100557
0,260648801623411
0,257671476951035
0,261756724868077
0,257987781508632
0,254971502362163
0,249864580813756
0,251135871577453
0,251218140375543
0,247413197944795
0,247076524829753
0,247220382309709
0,244149270474414
0,244698278587807
0,240358743959222
0,240513186737663
0,239977620533249
0,238486060811783
0,231820586948672
0,225606474617966
0,232145335372415
0,228554334941778
0,223944827075938
0,227180495187821
0,228087684720256
0,22684825853242
0,221708875910702
0,221228692686739
0,222707355894064
0,223953660508247
0,216563713817289
0,219866964351829
0,217881976365364
0,214810105678154
0,212400857825863
0,215419161071296
0,209170279662088
0,208766048914618
0,203951952238651
0,198813751391122
0,20466030363214
0,204584637066882
0,201713657706732
0,201406404778592
0,1921427497437
0,1945274776095
0,193176418808276
0,195085455981398
0,19621493377867
0,19381094300269
0,190275560565192
0,192703288722186
0,189606282022782
0,18574199080016
0,180228787498676
0,183245767713604
0,184482408399105
0,177068434673958
0,176216522532818
0,178189108209224
0,175995182910199
0,178015757228217
0,178284460905414
0,176446717593552
0,174144625188159
0,174763693197597
0,173240457127995
0,1713511861294
0,175249351463755
0,166942948799729
0,162544145019239
0,165175783503073
0,160732035888956
0,16469676913284
0,15999914081675
0,160820945298241
0,165847618774723
0,165578653288833
0,161545094493773
0,158396633554932
0,158035272396485
0,15563504975791
0,157796695346059
0,157652416142214
0,154447017883326
0,155797448830357
0,150452314561295
0,152562540650276
0,154086183510422
0,151908687893238
0,152851084402821
0,151829783486937
0,149529688083681
0,147287909367273
0,149269238083203
0,151637732595913
0,150606652906415
0,153312901190583
0,148868560270665
0,146748621555435
0,146408211596253
0,146911486297941
0,147473532391669
0,150962955757181
0,150473227682146
0,147169766670221
0,1467966216819
0,146576129655221
0,145638621412684
0,152133168277914
0,15389827330981
0,148728404685293
0,147485985682338
0,1483183872526
0,150861361965459
0,152844976959348
0,154694515197473
0,153478962143786
0,152502027770103
0,154289309099055
0,152422891727028
0,155078217404224
0,157903685307739
0,162153954048242
0,159457249574574
0,15810878116284
0,158040405363292
0,161603831742566
0,166958508767386
0,167039885996283
0,166972964982604
0,165515980490282
0,165911225569903
0,169529239741031
0,166513977291907
0,169389133638535
0,172818451545386
0,171535544061113
0,174117237887903
0,176867390982787
0,181854321071364
0,181081204267698
0,179554800606219
0,183023773550627
0,179413849217405
0,184153652373433
0,186267150280908
0,186191218984593
0,191162848801123
0,192436041928561
0,190809420072362
0,194347711475451
0,197506014066268
0,197446583853918
0,199234171039264
0,202918030170853
0,206747889321861
0,206895193054229
0,210518094594616
0,210701890240329
0,208004939074659
0,213743230388705
0,213624744769632
0,216285292519298
0,220745936132643
0,221999268619963
0,216647701300418
0,226155202472086
0,225685610562862
0,219113599213425
0,223606783433517
0,228606054495018
0,231208289347823
0,222812203932061
0,227858815597498
0,234362676570686
0,234124300151224
0,229740233692176
0,231748495420472
0,23496670561214
0,228245751120914
0,23052885579185
0,233856033198619
0,234373567125945
0,233536406583742
0,232679267432015
0,229549087360601
0,226829132865344
0,23349036764837
0,230669737002965
0,232371896636226
0,231390043401428
0,225692809222446
0,231530450052146
0,229792956041737
0,235443642596264
0,233028118173925
0,233058920799541
0,229278658885433
0,228903040529105
0,226966146543792
0,22649556529363
0,232719758595409
0,228291350208294
0,226938697430558
0,233172414608824
0,231489417714398
0,227789319130458
0,228464225457595
0,228810596464109
0,232625182365979
0,231769937474537
0,230418406150611
0,232306333249058
0,231812508648684
0,231765604258946
0,232697007959674
0,234209630735417
0,232604356187923
0,227857906453551
0,232554657785592
0,235880837308934
0,230252854857468
0,224526769176213
0,228639470769886
0,227266780304103
0,226278339819864
0,225086043680158
0,225871291846393
0,220698655382277
0,218183093815171
0,222815781183589
0,222384810579821
0,220562969935305
0,218877271208118
0,219703695411452
0,212924880843934
0,212702783698757
0,211320646638215
0,208451695584288
0,209622090967666
0,208500771394267
0,208433117573285
0,203726740263391
0,200929004565475
0,202257185378037
0,198291745842267
0,191909486079102
0,191946673005379
0,189981930798681
0,186227419033261
0,184834381065818
0,18407231515986
0,181593775714891
0,182279933993345
0,176224354007074
0,173874445853396
0,173759131745779
0,171379063054483
0,171222005383276
0,170245448067109
0,165752376960484
0,166752095526061
0,167318914759683
0,164695117893836
0,159816351841393
0,161780412950623
0,160503689577017
0,155727583341539
0,15557564945064
0,15350631885361
0,155658036642649
0,155324831730994
0,149557221549836
0,15088502306272
0,152109025383317
0,146760801004617
0,143774689855599
0,143108307421794
0,144062158577406
0,143553884988291
0,139630219999828
0,140199161358035
0,138697587728484
0,139463303355376
0,139587720000494
0,134521028311592
0,136530502729854
0,139372433268166
0,133580472229665
0,132030606125878
0,131075738485033
0,133000962218339
0,135140146772502
0,131195809210503
0,127135002485112
0,125621392971888
0,126813662872524
0,127726246174138
0,125292929569099
0,125274884575143
0,125018093537945
0,128116685133758
0,122951698224918
0,117743658894376
0,118831639118108
0,121345288908997
0,124339989082768
0,124434433740805
0,120592086267605
0,12193404258139
0,120030925208108
0,113373581146433
0,118616824168774
0,120757691556067
0,116693761385787
0,115358228586822
0,117642313342032
0,113463340566834
0,111996989742944
0,119578524023816
0,116310579557159
0,116495127526794
0,114324887380713
0,111984866721905
0,111051750382291
0,107471929215013
0,108027751487131
0,108804870366048
0,109725141214412
0,112146260434173
0,109612872921953
0,106268940792913
0,104832556814839
0,106364299830472
0,106200096364239
0,10726760583441
0,106558444102247
0,106442202426111
0,108857249622215
0,10524560471284
0,101004567049339
0,10398597789224
0,100374944917967
0,101872443205275
0,101124073020735
0,101529235422239
0,104820575828863
0,104404935384513
0,101966007575745
0,100557707700398
0,100795295906451
0,0976966726946766
0,0998976876310022
0,0996565815250559
0,0974399401289732
0,099183426075581
0,100199235796577
0,0976037310854234
0,0991671960004092
0,0964777185997801
0,0954080291108208
0,0990894191153856
0,0942898785500365
0,0978954386052998
0,0998623897415654
0,0982800058428592
0,0947789535995151
0,0966716636633361
0,096911309844662
0,0950548496512307
0,096392426252668
0,0971655118821936
0,093371806813634
0,0960605791761539
0,093103851549186
0,0913829719906882
0,090663720713657
0,090958780373506
0,0898552879026346
0,0918698437154482
0,0917876751371142
0,0936182523063831
0,0931795392550526
0,0922902504078853
0,0916204670475692
0,0915026862191305
0,0913074485372661
0,0937210769542566
0,0864492080591509
0,0924777932724367
0,0918936679604428
0,0908779395408647
0,0910801633744658
0,0887375068539024
0,0894927378724465
0,0919059359318917
0,0921564585074565
0,0890372745431831
0,0849116609408366
0,0899088393782031
0,090128114692276
0,0898815958648773
0,0865859502656395
0,0890599281339428
0,083051806573881
0,0869243766925841
0,0883752438175907
0,0910590109916119
0,090265073549534
0,085034183574049
0,0877595433649248
0,0866459484649371
0,0864957694379186
0,0879661775273632
0,0863519493438986
0,0858232008834205
0,0863080704588908
0,0893018914970933
0,0859247068838393
0,0820950195652386
0,0853095920672387
0,08406848608928
0,0840735424840595
0,085524182136664
0,0824821490433212
0,0821359228940412
0,0833301329101293
0,0829543092709881
0,0822669595514792
0,0833483439844019
0,0808691656683004
0,0809871655606882
0,0808861987068685
0,0829078074274674
0,0790171491929676
0,0786424853966595
0,0778855234401791
0,0787255415877468
0,0796684915843689
0,0778778396212924
0,0776726433085711
0,0812060894045468
0,0754736589787856
0,0753067765848062
0,0799177858159446
0,0793729924267979
0,0773178280326377
0,0736802907757436
0,075876763051938
0,0756126360848945
0,0726290537743125
0,0758109302784649
0,0780879472810729
0,076041859803598
0,0768381867276342
0,0745382601106477
0,0732697010422134
0,0729605231741014
0,0725846212236369
0,0692088274330007
0,072868129256388
0,0707532570619473
0,0723375884916863
0,0732713895256826
0,0694852030300428
0,0705323978587994
0,068504857998092
0,0707013606269392
0,0695546532362208
0,0681142586315574
0,0677360250365966
0,0691233212968327
0,0673749937442572
0,0648882418115165
0,0653296677781723
0,0675349679395179
0,0665688654792169
0,0655402659347518
0,0621534332466013
0,0641313631948581
0,0627795217184626
0,0690833220698253
0,065068561554236
0,0633240327029723
0,0632952694973045
0,0625480380415226
0,0625771720760773
0,0620268379449452
0,058693806715197
0,0599237304902592
0,061485957926938
0,0596584852723711
0,0597425297048242
0,0614075647122873
0,0607513383665657
0,0575766642234224
0,0613614322377472
0,0583862631140069
0,0610579085041006
0,0582345440204723
0,0556005240281964
0,0569081765721922
0,0585505627381199
0,0555632082928203
0,0554473480599117
0,0548771812028434
0,0561207251946826
0,0607226369726126
0,057331236159328
0,0565525907513176
0,0547712643725788
0,0538304561188787
0,0548571527735225
0,0570846418915312
0,0532538663843543
0,0533622565549015
0,0534858934604606
0,0545885432845679
0,0510909953718599
0,0498751769789268
0,0496172124985086
0,0502116091349297
0,0509919616072136
0,0531748075924962
0,0501380406154133
0,0526104388661608
0,0529726094089239
0,0522795427339898
0,0498648074814109
0,0563717885292095
0,0517031492808045
0,0509693283223289
0,0473797414500906
0,0536283914325398
0,0496489486707214
0,0494275234166854
0,0534470066909102
0,0494053446719403
0,0507423386070396
0,0522832978952138
0,0477889501637239
0,0477243124049421
0,0471444639010685
0,0493764040495247
0,0470413515164829
0,0501090130150883
0,0471593880436764
0,0455466880015635
0,0486325428425327
0,0490581939483043
0,0493720641728243
0,0496726806095595
0,0466524131230943
0,0465466181124765
0,0494599735248543
0,045023741876379
0,0498350747929443
0,0459584324411113
0,0458829820659485
0,0462795060365655
0,044681199136405
0,0443805560667448
0,0459514806514526
0,0440138223502039
0,0421479533977755
0,0464793059430542
0,0463042522807512
0,0457676965935974
0,0444947520564746
0,0494834731417871
0,0446749681112375
0,0414818340153242
0,0430395439164117
0,0460067983323747
0,0433004393959787
0,0425711879454621
0,0413958119028884
0,0420451643367129
0,0451487681618507
0,0478138383774963
0,0406142856801177
0,0456047198224165
0,0436208886959769
0,0447010919598774
0,043614019918347
0,0420781798962986
0,0448291255035668
0,0423328966447936
0,0440556839369224
0,0462173247013616
0,0432005798899333
0,0418718792569413
0,0438276329498134
0,0424705968878477
0,0419946913211835
0,0416948273922643
0,0413873086187554
0,0408618348118316
0,0374774826261271
0,0438278368223351
0,0428600780948754
0,040854672796515
0,0406465514875675
0,0408484260600601
0,0432291309673531
0,0419843998712796
0,0383484754948933
0,0379277132666089
0,039893683571987
0,0425451718223284
0,0422955183407942
0,0424936281300054
0,0404305603898618
0,040757875555001
0,0415183112018225
0,0405973896110208
0,0376373571544836
0,0398167411070084
0,038269077484489
0,0417676497400966
0,0395778897219906
0,0396137139552873
0,0408521323596849
0,0393177768050154
0,0382012338751352
0,0378366805508808
0,0381111192678528
0,0372589503964122
0,0377893077624708
0,0381394838004075
0,0398014253821743
0,0372364110814277
0,0394979621127017
0,0362706099672533
0,037570995867178
0,0351031789374881
0,0372623147889915
0,0380263219899367
0,0387490739914258
0,0376913812363286
0,0361869589020796
0,0391075684743441
0,0370391926075722
0,0353485925901884
0,0371957694242778
0,0359639615853148
0,0383961330926888
0,0368599458563155
0,035347155137567
0,0391490962483773
0,0353528545744891
0,034361727013795
0,0375809674422981
0,0358586713770771
0,0332256484032886
0,0327877861014754
0,0354599400760394
0,033022542596025
0,0336645129693761
0,0333849596439211
0,0336241875624266
0,0323729940827752
0,0357415433419152
0,0370154454158234
0,0357229058521824
0,0366678014973814
0,0344942468941982
0,0347665481450407
0,0293903202717713
0,0327771052901882
0,0330374561586598
0,0310769369620642
0,0347621952065721
0,0335606008561189
0,0305409996288338
0,0332553806366408
0,0343354877663454
0,0309330651121891
0,0335147676907702
0,0324278868131095
0,0278001482571009
0,0323769442746033
0,0306805909838974
0,029116096702653
0,0310567956005811
0,0285669476465807
0,0295034412945515
0,0311487793787773
0,0289986459696601
0,029101233591955
0,0283288741443684
0,0306596386459768
0,0278920267129129
0,026651426763075
0,0297191393962932
0,0292139063579463
0,0301172547658873
0,0309283190882653
0,0300223735259258
0,0262100866591575
0,0285892163005092
0,0282502412845497
0,0283043606178864
0,0288800359579065
0,0278737501373994
0,0270685211885783
0,0281538359706496
0,025770833600949
0,0277970240339341
0,0292454473997345
0,0247155997698806
0,0295864216821357
0,025793861920429
0,0247218730275809
0,0292149383388483
0,0243891628526875
0,027465682959621
0,0259200638327913
0,0276637595743713
0,0252200539745969
0,0249030735525488
0,0298416162801483
0,0254723476372509
0,0264694020706397
0,0260203583936072
0,0264355149113967
0,0248921656472532
0,0263014022616444
0,0251787004710669
0,0242568107100595
0,0263582786830068
0,0232777486543105
0,0254590541091855
0,0242649529304075
0,0236198009018688
0,0223038220738011
0,0236771249332799
0,0251149856245195
0,0236288259771059
0,0240608019320902
0,0221331064243491
0,0237410577698641
0,0228966708754744
0,023976193230318
0,0251702390322167
0,0247075040341069
0,021307311941215
0,0219377723997391
0,0243286748028389
0,0237895253392822
0,0248023984658353
0,0248046327871219
0,0195983169540684
0,0227308532688983
0,0247826293078256
0,0239758254821055
0,0220011802123928
0,0219088144602439
0,0226566270541539
0,0216301198849773
0,0209003548109619
0,0216245985454825
0,0220865093193272
0,0212663402078496
0,0204155901703001
0,022712256498238
0,0198532360272423
0,0184827517082615
0,0231667123514183
0,023066567519528
0,0225088932790728
0,0222915921581683
0,0188284941611736
0,0222035363335592
0,0238592328771059
0,0201893784272124
0,0205468151680897
0,0192753508006223
0,0214631209633024
0,0210574389028186
0,0196741226198633
0,0185591562984451
0,0189382899887991
0,0209969160009803
0,0186556803440324
0,0191668270843706
0,0207363781951496
0,0174809104074179
0,0179651551539413
0,0235871115130965
0,0217205767846304
0,0225888184880958
0,0181787157630953
0,0226450819699826
0,019780186014436
0,0183869425460331
0,0191278092101344
0,0187904648204002
0,0202671541269114
0,0211869196095369
0,0201119290566149
0,0196751451540102
0,0169525773922035
0,0221644314244139
0,0205048478637493
0,0202528506112904
0,0149115838627121
0,0181761696311623
0,019565578238793
0,0189689630999297
0,0208969963828725
0,0200351870627733
0,0172189614023863
0,0215635382311582
0,0174451311039244
0,0209507265919116
0,0215289962020092
0,0174501183115295
0,0270178797232203
0,0186931082111288
0,0171646882284809
0,01636615985311
0,0221252311031852
0,0179625371942342
0,0178715466526598
0,0151785592532922
0,0225733163455607
0,0165030400555362
0,0228819094056216
0,0165678153543941
0,0225990077961756
0,0161343983920367
0,0224662450367995
0,0167850294124888
0,0194173162709759
0,0183363654219108
0,0196015107732884
0,0161077771053635
0,0199060278394586
0,0175299165960966
0,0181932530400507
0,0209778047244742
0,0167835755123192
0,0191611766028623
0,0190860713496307
0,0175950731303709
0,0183959078874591
0,017198374421879
0,0188422741375304
0,016250945943497
0,0222295665261864
0,0160882685107131
0,0193699899523759
0,0175418115725851
0,0189711189181291
0,019522377948775
0,0190308541341686
0,018486363882729
0,017487196366654
0,0207990706578101
0,0178968261288877
0,0186064421763316
0,0205563932331818
0,0187305440415682
0,0206123367227393
0,0191212061557624
0,0192581052377875
0,0167790214467843
0,0186583473181829
0,0203690513280126
0,0178064421172157
0,0181547679612887
0,0161541120148359
0,0174805506518636
0,0169432688625077
0,018014632913675
0,0180597110893621
0,0180556954854575
0,0205476087955268
0,017328795288148
0,0193741550979357
0,0165683384197296
0,0179079809121499
0,0180615008502149
0,0168802697909668
0,0186037553265651
0,0187662390341399
0,0171355346662945
0,0185188756242328
0,0170704572102032
0,0170910710113143
0,0196434081045893
0,019760211081368
0,0181400505092653
0,0225917473582948
0,0207036962281799
0,0182119200930856
0,0194411663815771
0,0193165298049127
0,0170202965218212
0,0189064366722723
0,0173884579748776
0,0187141176747984
0,0184113253304772
0,0181948145612596
0,018166490258504
0,0192674430534305
0,019637037561461
0,0183195683888352
0,0185091377460236
0,0177760288221774
0,0190347603538153
0,0197731193206534
0,0189555072746328
0,0178818326253031
0,0181747062382217
0,0156436004900966
0,0195732246311653
0,0171791007572896
0,0185447583518196
0,0156211275682949
0,0182627744460504
0,0193600537297961
0,0183498003711609
0,0179566952955312
0,0175362881736259
0,0209220708017091
0,0211209371509899
0,0177837450974423
0,0190954789161928
0,0190498155449578
0,0200478524228868
0,0165810402987931
0,0192133112114217
0,0176027438813284
0,0193174869807712
0,0197204371351849
0,0177635908556581
0,0187791656537887
0,0175499227026813
0,0200188708804855
0,0161231139481693
0,0200157381493249
0,0184302557869187
0,0168677332298319
0,0183813718213612
0,0182059864989078
0,018321021397287
0,0191108207376188
0,0189978368506735
0,0184986923029853
0,0190794183266757
0,0197837837456068
0,0186966798063569
0,0184353922012821
0,0199451651570275
0,0190810891768733
0,0198007228153619
0,019298659289159
0,0197942576504895
0,0201434128543286
0,0208333576082003
0,0190170835097098
0,018427487217667
0,0204555747461098
0,0183703350611437
0,0194369916874326
0,0236280952457702
0,0177543639019053
0,0201944405309508
0,019014385929931
0,0182019664788023
0,0190852136426962
0,0224651831091431
0,0182862118741857
0,0195405371186513
0,0211680741919251
0,0186137747146557
0,0200624004238185
0,020242727160157
0,0192319649859332
0,0192291089418899
0,0196598197332235
0,017868746502693
0,0184319242050281
0,0195503729447435
0,0205019802229981
0,0188058084720741
0,020699276105782
0,0183925275747681
0,0202478235549786
0,0192842546210355
0,0207174759980269
0,0190405518464717
0,02008647180379
0,0226062214936435
0,0196547027596953
0,0210719023932827
0,0193070521851908
0,0202928471265392
0,0214331920817922
0,0217918225282446
0,0202558196323488
0,0210383509901387
0,020920157274792
0,0206904325780686
0,020626163893432
0,0216647610472068
0,0230892119347403
0,0217557146456692
0,0206973204384974
0,0212964138236531
0,0197995200032709
0,0214543961751638
0,0190659686436458
0,0205297402405827
0,0196494195458219
0,0210729678541875
0,0208670088289954
0,0226039865904862
0,0175400899545695
0,0192926905216944
0,0226226279733772
0,0169117798451426
0,0173324310376465
0,0211222996187671
0,0212591669137172
0,0192358071042541
0,0175824974850862
0,0194700001535783
0,0199077598932733
0,0198494368219219
0,0199781800340545
0,0215924263633685
0,0173121366622637
0,0177316871392444
0,0180365970864457
0,0182017479852631
0,0179223282708316
0,0176895447358487
0,0205250763084518
0,0192926465170385
0,0186034242280445
0,0210357598480372
0,0182673209020908
0,0175713989416278
0,0209706060200419
0,0220427575584614
0,0181680125006972
0,018008661203288
0,0196558501976235
0,0197882659638332
0,0195517086971013
0,019675983586612
0,019849739504375
0,0180321817350176
0,017898691981605
0,0181267598126891
0,0198879715287172
0,0203229150359445
0,02013314422679
0,0174397861732878
0,0185328714651157
0,0180197788689089
0,0177973269784322
0,0190078710901448
0,0189572661288975
0,0191989108411189
0,0186021792003713
0,0192155058209468
0,0199334388502297
0,0181364608434877
0,0170843736303231
0,0180314305741715
0,0193700979922841
0,0202043159842424
0,0186601862902041
0,0196195060291007
0,0195379809477623
0,016897595260246
0,0187236529321731
0,0195871719371654
0,0185901944471299
0,0175497850159855
0,0177510760533379
0,019668230354407
0,0202394931718538
0,0183324859253099
0,0199770280927897
0,019178225859678
0,0201426701691138
0,0211457398258581
0,0165990209045729
0,0169068811549785
0,0166373430370033
0,0178387068163769
0,0206407037689631
0,0186645259367067
0,0147429646696594
0,0173995033623314
0,019649060034338
0,0172530447684453
0,0180747369119858
0,0187171865486889
0,0180257733335691
0,0161863239374736
0,0169121854132338
0,0181865915395167
0,0180725913101461
0,0181075362058682
0,0164160504845951
0,0179563042881956
0,0178263334682838
0,018880315669473
0,0198821908565856
0,0173423922957531
0,0193062215166268
0,0176738053274322
0,0200235393224653
0,0184245191791231
0,0167330313954858
0,0178784973482364
0,0171283257208211
0,0188965263500088
0,0173743026940679
0,0176830868416394
0,0169600179965584
0,0167288098930676
0,0178373848619869
0,0182892380420944
0,0169614745964821
0,016544497182565
0,0170833215435014
0,0169135764131786
0,0177329261136671
0,0193169857335934
0,0159751458602331
0,0171995501992098
0,0184145430842459
0,0173012874867923
0,0166055062855366
0,0153748206491621
0,0165050337401523
0,0173323181457882
0,017774018143486
0,0162303249814709
0,0152578841449697
0,0167533916950734
0,0170845115411429
0,0158098861517293
0,0152494266629812
0,0178886080697336
0,0144601716379585
0,0176070694760162
0,0157816530249398
0,01694101495305
0,0169758815218772
0,0155810071748762
0,0156774693250899
0,0156657662641886
0,0168426860495022
0,0154604503462567
0,0156532314871268
0,015606118203016
0,0151120645654338
0,0158829761557954
0,0166728205341096
0,0148174015033763
0,0144168567012262
0,0176202075905432
0,0165758754842435
0,0159637764919458
0,013970346493709
0,014970244280249
0,0157914133967172
0,0151778781908345
0,0138209484576469
0,0166262914281468
0,01474730241332
0,0158141402958107
0,0163045529367645
0,015526283557141
0,0152905531426283
0,014311118532275
0,0148685943320633
0,0149417341479484
0,0151240076853468
0,0140596145922804
0,0149989812846556
0,0159121484539029
0,014916830166702
0,015500314866487
0,0157954100544395
0,0148939823731828
0,0150431062674921
0,0139893777604053
0,0163359232987237
0,0144893200807897
0,0152330055974683
0,0166061347634259
0,0173435651261562
0,0154073502727323
0,0132818793093223
0,0158852711780508
0,0133590447700736
0,0146397665711564
0,0149005150654923
0,0140553673208533
0,0151845514379903
0,0143723244038736
0,0146460248892766
0,0128754541086346
0,012890891953932
0,0159457316291259
0,014165941921072
0,0135060563657844
0,0138212746764117
0,0172670822236714
0,0147013329048143
0,0133002755802381
0,013336381219091
0,0146349050633607
0,0145242633747231
0,0143875777236032
0,0143805421954435
0,0168276054455727
0,0148268034009038
0,0138441096335046
0,0139111915270166
0,0140628462157125
0,0131840169052547
0,013674537234218
0,0120425932581263
0,0133510753132147
0,0141689871155689
0,0142313791951604
0,0149174803585945
0,0135867920890014
0,0144838038257062
0,0138331792485316
0,0129066710705317
0,0127630020067595
0,0135372450305666
0,0146461543835325
0,0126455252006008
0,0151225904687774
0,0152157125356014
0,0136356890292104
0,0146138412397389
0,0167658766137578
0,0131684727240809
0,0125928224210446
0,0147895142867622
0,0154131508244518
0,0138512179969673
0,0132278756425061
0,0133075042613717
0,014075339515376
0,0151234955903007
0,0127774459322013
0,0128565529613448
0,0156352585319862
0,0140886751693069
0,0123941608264285
0,0142917082425821
0,0140737662656151
0,0150745071416922
0,0146824972453863
0,0138109981093191
0,0147425212072479
0,0127128139773441
0,0126112521884232
0,0138441055954438
0,0133656183476347
0,0136525902471195
0,014144376542496
0,0134341698474301
0,0128958604277019
0,0147177446085711
0,0130976019476012
0,012480335013839
0,0139421578667669
0,0144160842870004
0,016511406275655
0,014430516139725
0,0108254407183569
0,0137475280927322
0,0153358963249123
0,0140312939009237
0,014910846236337
0,0150849057445663
0,0127486436710686
0,0142151810514815
0,013459211846286
0,0126682204930903
0,0130029845546816
0,013977165461279
0,0145888796626272
0,0133588307686747
0,0135738133256144
0,0117892511063409
0,0131331316432923
0,0146499983498491
0,0135559058309876
0,0124564384354706
0,0128924432630341
0,0142249737480836
0,0142874743257854
0,0127076949109991
0,0131513626398693
0,0131764325817863
0,0166542633695611
0,0152921510465144
0,0111608630282263
0,0114945656325926
0,0132923821771424
0,0145643697950818
0,0138418714408851
0,0139736407467964
0,0138954619482064
0,0139049244713621
0,0139861134225673
0,0140622622597647
0,0135412229569535
0,0140499747984647
0,0142576593822341
0,0153972945076739
0,0134792672801987
0,0156607985918125
0,0157284428168523
0,0148833602671886
0,0140504464577967
0,0124720859695038
0,0143557432776586
0,015447156930952
0,0158173158849854
0,0161729964407306
0,0142677858874778
0,0134647997168121
0,0137041741817305
0,0135834434482851
0,0142119768658275
0,0142019022287589
0,0120712766904794
0,0135886627231916
0,014377172699637
0,0142405101486096
0,0151030200463899
0,013911490483177
0,0157527441212286
0,0137706972722734
0,0145982573974154
0,0148377053733096
0,0147244420390413
0,0171867492442039
0,014206916439047
0,0142112593183
0,0149686169689169
0,0128831904351345
0,0162153888716134
0,0158265556154701
0,0134958603156935
0,0152504581974729
0,0186117602026684
0,016143878385614
0,0152790257650439
0,0163757259019749
0,0158077070552346
0,0154440294874252
0,0163376775656656
0,0151712716336246
0,0123676840541414
0,0136052412180575
0,0144253218908886
0,0156532229024175
0,0156296962549205
0,0152271260715436
0,0168815421211056
0,0160329521140749
0,0143723817624556
0,0146617811914238
0,015341033610334
0,0155969982721301
0,0155293032725669
0,0151644500856261
0,0148175706921868
0,0168284878956153
0,0169139946304077
0,0157041243664342
0,0164846969085733
0,0184793269867728
0,0154042024242533
0,0158366458957373
0,0166228059596793
0,0168051137709389
0,0148066189640855
0,0176094245789319
0,0164325634389618
0,0165895081585013
0,0169621487012694
0,0201450907048579
0,0174934744805935
0,0168093813756668
0,0174380570615285
0,0149601718339263
0,0173060063027576
0,0175328117532547
0,0168423260334199
0,0175194726738267
0,0191871255226639
0,0170856414114524
0,0173846362646535
0,0174191045948271
0,0189594457925802
0,0185104244338243
0,0198160219914165
0,0172857736372736
0,0182773265999737
0,0187053349833191
0,0182690503466379
0,018635257868025
0,0163293906356217
0,018942174632464
0,0193435711136198
0,018462730575921
0,019537785837552
0,0201242122224393
0,0238204520416183
0,020263991399636
0,0182090127292471
0,0193300759449589
0,0185699154362673
0,0194489495417049
0,0198006746482157
0,0198427655986514
0,0215359159360461
0,0201315473594401
0,0189479968637289
0,0198917505906015
0,0231219394614571
0,0210974614151056
0,0241416066969483
0,0214493383287297
0,0231023811214974
0,0230283250987766
0,0235820302808555
0,0224169211648851
0,0231790066056229
0,0220954935757885
0,0235222138964414
0,0223176061650451
0,0246620734535813
0,0249913077076717
0,0261357786082328
0,0250820459290489
0,0229227635152653
0,0233315505664435
0,0245906409040545
0,0278854608882721
0,0281548458435268
0,0268297967082863
0,0306822598372589
0,0288115324293516
0,0293070081386174
0,0283361204190403
0,0285646200422903
0,0294695123294995
0,0299439141118898
0,0318769941538248
0,0314013777738349
0,0288437850985857
0,031638076263667
0,0315613195657741
0,0330471674492872
0,0412059258387936
0,0351203828073918
0,0331383620662069
0,0365480674867807
0,0341283176313999
0,0364194037279494
0,0380755780339063
0,036200936078815
0,0385160946188582
0,0383387617189015
0,0372415689646123
0,0394717242401113
0,0407120101957133
0,0401506289048562
0,0409942989447595
0,0419794372571959
0,0410318263003105
0,046443062583964
0,0406141192795477
0,0436513052455011
0,0503942604486759
0,0479403329934041
0,0530895677838772
0,0521392399397895
0,0543754922236664
0,0551694355029081
0,057524037186656
0,0593278839916958
0,0631018311976815
0,0636960985018583
0,0664810477119029
0,0670254127218506
0,0734922351567224
0,0753789687299282
0,0757030218385476
0,0758708915472534
0,0844749275761282
0,0885943454302941
0,0873179652928679
0,0880294230388424
0,0902669965483283
0,094503950491242
0,0978356125931198
0,0989038956540664
0,104277784004002
0,103217699507311
0,108605273334364
0,108359888088442
0,113776858629506
0,116038129779262
0,121227624373018
0,120493520779803
0,125675579034667
0,132206775777397
0,131131460756276
0,138585277820501
0,136200780781812
0,140138039945811
0,143106521689772
0,142142466537923
0,142532456318861
0,14427086353928
0,150013296592244
0,15077736345729
0,151774848861631
0,149418059478524
0,155736984067932
0,157757188640078
0,163358525081285
0,16609613345012
0,167891950654273
0,158621759274617
0,159650201792441
0,162506492973454
0,161960581305768
0,160253443341491
0,164993270312458
0,166433730313957
0,166993635275943
0,162151540888769
0,16395978597146
0,163538860803451
0,160029765740352
0,157490163457175
0,163407946000858
0,16465007326768
0,168403941106085
0,163813844810408
0,161441625072247
0,169238238033621
0,16571901615667
0,161150142559239
0,161135826048565
0,165887536463079
0,166510036080968
0,163199280011741
0,160035952074145
0,164004094108043
0,163851871194036
0,160333521184142
0,161734276784396
0,161897103262313
0,165340808608371
0,158961134885922
0,161202869894036
0,156171826989022
0,15719031199034
0,158854146415574
0,155862480144817
0,164216545634087
0,154326175957447
0,153861839194185
0,15644988474293
0,152574716282012
0,153120027686958
0,150150289110825
0,147494429810498
0,151688231054389
0,150926298636265
0,149457988192052
0,151281829748525
0,149698618757126
0,14240678378934
0,146005794134719
0,150312058308983
0,147240282099296
0,146261962622987
0,144563863857589
0,148645480759129
0,147786523143299
0,144747290722716
0,14558883491809
0,147468788692316
0,143861820568083
0,143252379938519
0,14360441122567
0,143121811375821
0,14235753271896
0,147548256830969
0,145008413504397
0,143203789558865
0,143280613744594
0,142828193682399
0,141382500979385
0,139038310538709
0,136459442599585
0,141154648447472
0,137578936636832
0,135089827072249
0,136683911322108
0,135864106418671
0,135370893625301
0,140223422856757
0,135614298325227
0,129749592853583
0,130586462404482
0,128914752312861
0,127562700044824
0,132013441905043
0,127082907318502
0,12522610226697
0,124902192393683
0,124461950686619
0,122527487689763
0,119925151689794
0,118531072296244
0,118803268854904
0,117173345877498
0,115208422623336
0,109214066159917
0,11981933290815
0,112380960047551
0,113851951329097
0,106026849059844
0,109108825380649
0,110196773558099
0,110735058159049
0,10629271890511
0,105474066135006
0,10324556613533
0,103473288745069
0,101427407315484
0,100027244549446
0,100697834650956
0,100658791775256
0,0980590574581587
0,0994973816156334
0,0956729252199584
0,0946557311400329
0,0978485838707464
0,0973502432365759
0,0978040802590998
0,0971644651468127
0,0940125502778497
0,0911375072302753
0,0909348969067124
0,0891786867370073
0,0895812036496317
0,0892343871403967
0,0874416114892167
0,0840332696918479
0,0870779105621874
0,0840417112610771
0,0825016039358613
0,0833778682579618
0,084068694116567
0,0852179187683581
0,0852116963517044
0,0834227396936301
0,0773784933859406
0,0837753045875096
0,0837059007165248
0,0800745247090507
0,079662018465257
0,0813257962272458
0,0829965081934408
0,0812343679544102
0,0816009400739342
0,0788679439100011
0,0798754813374465
0,0787367183416832
0,0761066551613311
0,0775253110639598
0,0773989558944125
0,0777330008387985
0,0718570006903605
0,0800165965293809
0,0749605239184026
0,0798640930313997
0,0753567706956989
0,0766365647140679
0,0768853405298515
0,0784375890967883
0,0779434662140082
0,0783867472848639
0,0747088955036593
0,0815323641632792
0,0799823040678241
0,0825945490018132
0,0833853279344599
0,0815110963792728
0,0832783358897998
0,0840726197662563
0,0848950782848557
0,0890272034757131
0,0867604241027177
0,0895966293527749
0,0879593275617631
0,0942217938977901
0,0951274938669515
0,097170729028089
0,0970680670930423
0,101034699271438
0,0994414131146042
0,105637282728745
0,106346267727003
0,109906621504874
0,111436262065725
0,115292904303455
0,116705103067614
0,122507807565038
0,123701568872316
0,127876481987488
0,126183052718592
0,130258838796055
0,134808508013431
0,135720370615645
0,139563353404997
0,144305521423599
0,142292290675526
0,146035853344435
0,143431021706507
0,150945520232756
0,153166933174682
0,152354589105549
0,155910361666438
0,158191827103173
0,161540082853153
0,164330789513585
0,164361716406837
0,169527027637855
0,166819523370082
0,166654511848218
0,168120589530643
0,171540629141894
0,16819346782134
0,178657052721084
0,174847633804071
0,178349395075637
0,176418401896915
0,181154543279089
0,175123451544601
0,182849656223823
0,180030178207936
0,181442115261735
0,181463582058391
0,189517581295029
0,188791014559114
0,192045382923123
0,192629468241181
0,192560473254378
0,190355414192113
0,204304932001653
0,199180978330402
0,198525283512958
0,202791914910577
0,203748798514995
0,204988698573463
0,207131682859494
0,209748510217364
0,20982819392727
0,20931845879554
0,214358900818296
0,210191075415759
0,216399921693998
0,216000258756139
0,217922434487958
0,216834634724649
0,220939438941354
0,220853890581357
0,221134996956398
0,222516962184596
0,226038842358147
0,224816208435786
0,229039824849832
0,226776828369052
0,228825250897346
0,227993757400703
0,22901704393927
0,22989037820529
0,227675492176118
0,228530681448533
0,230434772463414
0,230037661612724
0,229598770317849
0,227419329946043
0,230410166531096
0,230352544084512
0,228664966180258
0,230438779689734
0,229980050588854
0,224036216789667
0,227821400732629
0,22657639549526
0,220732494918081
0,223137798725116
0,225330628898665
0,227893516547412
0,227544423622739
0,225622000110407
0,227614468203945
0,227451222800474
0,229264209844698
0,225597324114502
0,227317741672544
0,226081868625692
0,229063789729822
0,227275516704308
0,227776566382934
0,231149160006289
0,235114677952735
0,233041427562023
0,233928361902737
0,235598335314684
0,235603840940906
0,238028015696277
0,236623158816697
0,236687135312485
0,236769389904213
0,237659942986134
0,237236830931254
0,231690879334879
0,232878794445817
0,226540306270821
0,228648959327292
0,227014307297038
0,225683581966143
0,223229381312885
0,220396737526021
0,220085911098988
0,216112520042778
0,217441617215697
0,212436309988165
0,216019857887798
0,208096383190206
0,208820130699187
0,206531302057633
0,205304782949474
0,203156583034523
0,200569747460373
0,197361572831738
0,197719602524308
0,198384160421938
0,198164348964443
0,199091328908945
0,196207919340957
0,197784861354086
0,195074999748891
0,195485643096077
0,191598602650818
0,191951494658365
0,194314570107986
0,191323890197368
0,188777608689609
0,191400606525807
0,190913825438453
0,193963686708155
0,192684818578022
0,190667961423668
0,188221161811572
0,193813082158894
0,192647583812702
0,19230918047341
0,189567982141157
0,192829022082648
0,192392712340485
0,190533946193845
0,186310457060063
0,189484317819218
0,18971491268461
0,188071700088815
0,190433830748742
0,185478694166523
0,187704390490721
0,186346575481303
0,186228470439708
0,188846883933402
0,187104418772785
0,187015588525998
0,187428626126027
0,187323636701083
0,187746023760695
0,187836237630115
0,187910829873142
0,189916429686844
0,188741697368126
0,188751473421477
0,187359871413814
0,187912176217434
0,185525793171811
0,187791274206729
0,184802718840553
0,186710920100641
0,185240827884125
0,182511773283219
0,181232066754674
0,182788320255394
0,180737474878239
0,179922116642626
0,177921309772335
0,174884324234922
0,173175456891562
0,17205569114752
0,172030350069568
0,16970229199152
0,168495373113085
0,164793807184902
0,165085961939812
0,163190276483693
0,162233376444113
0,16313755956432
0,161855939217432
0,160334202794932
0,159127336937584
0,158159119366917
0,157956034356202
0,158276447020732
0,157189394507892
0,157098855341553
0,156940476727776
0,159370893562213
0,156709960871562
0,159461566656202
0,158620127408235
0,161572062651856
0,161326736952799
0,160729636252806
0,160523139154259
0,162527195584405
0,161037457856409
0,164400683502154
0,16304351669789
0,166024185771692
0,168082986893667
0,165957354514155
0,168602022741918
0,165448383812712
0,168282453033885
0,169127423009391
0,168760123219396
0,171562184743757
0,170283428107317
0,171177715832573
0,172895921422674
0,169972162289614
0,172140442356459
0,172857529176375
0,167947095971675
0,170208330198421
0,169971547613171
0,169694599716088
0,169751909687782
0,168808657988532
0,168683422078037
0,168266739699505
0,168754099724429
0,167879751672921
0,165201688263556
0,166402524880257
0,165278509522126
0,163252515791518
0,163102427798855
0,165218727800031
0,163121299411408
0,161265158463818
0,160416214383857
0,162080628645988
0,158406183668694
0,161055780123273
0,159573953895874
0,158960558048794
0,157964983178543
0,158040733115407
0,157103110171278
0,156080221549553
0,155638726879522
0,154989313227943
0,155685665012382
0,156243758058113
0,154326668792904
0,154656242706237
0,154242464061189
0,154153320208222
0,153096930842612
0,1532291639294
0,151965012341074
0,15032914286577
0,150238182707413
0,149180846470309
0,148715772305885
0,14667496778063
0,14549404100544
0,144687030787349
0,142987809288482
0,1428937967602
0,142148556819109
0,140986025935973
0,141157157401781
0,141986427062679
0,138587783961674
0,137610604240718
0,138143308753625
0,138526836443884
0,139705214043683
0,139271822288404
0,139353071421642
0,139444722751631
0,138434714217773
0,137136326575319
0,135308030319327
0,135128255010194
0,134616415561064
0,133442117507618
0,13136029715736
0,13229135142016
0,129764868110834
0,12893614734024
0,127263916653934
0,123939473152755
0,127099986564238
0,125705768665263
0,128281660788126
0,127103122949572
0,129378375951868
0,130323650512491
0,133405040872414
0,138243384361673
0,143620553967589
0,150060338469621
0,153942603201661
0,16158763168457
0,167744343639631
0,176160206561408
0,182825720315269
0,192721484119475
0,199705941347805
0,20930694865759
0,217928296457626
0,222822354342977
0,231661998996016
0,24236743370853
0,248315794111246
0,257133286090595
0,262082370961985
0,271957654782122
0,27821080833626
0,282962299958799
0,290077360357467
0,297749347718966
0,302109364005735
0,309465013721575
0,3109296922029
0,314160695946446
0,319816315823468
0,32381537245024
0,325342426193543
0,33101197319464
0,33214397660967
0,332564668770206
0,33429787644992
0,335445154916434
0,333546946108724
0,338076166496925
0,334582006063362
0,339152267418089
0,339945820043429
0,339233877050049
0,337493153448415
0,339764739225173
0,338820240280294
0,34299060270995
0,341975735738312
0,344006643741567
0,347182077001094
0,348240822176612
0,34941689457297
0,353279264530835
0,358287204866816
0,360740061126055
0,365611827830368
0,369139477541462
0,371361944463764
0,377428242245713
0,382322323404239
0,384790366173061
0,391394858250819
0,398610768387265
0,40351875011791
0,406450835503332
0,417737895940686
0,424121385870364
0,424559974726792
0,432035704021582
0,431759705897927
0,437902177890796
0,440135391836546
0,443587575090132
0,44253554159138
0,44564796625794
0,441351168861717
0,437329545264511
0,436682491298833
0,438207424031399
0,438530283290987
0,436817182815477
0,432914921236894
0,434525630388039
0,439375027031156
0,441642502174289
0,45067911016781
0,455413519430682
0,461963085695956
0,473890650836877
0,479259136776733
0,489654613186972
0,4967545801511
0,510268890434165
0,513319006146184
0,521299153208927
0,531763294948572
0,541694289044794
0,549956234901541
0,558820264907359
0,570037055601356
0,576725271637859
0,586992200987504
0,596459962817174
0,603190468774253
0,615047849019506
0,620542856674592
0,636855373868479
0,647538533950623
0,661285256768644
0,672621178468586
0,679919673157644
0,690265415872543
0,701344304503822
0,713275296570459
0,713837459720346
0,719736979166321
0,728923004762591
0,726182835385391
0,739501466592186
0,743658884408085
0,744174893079924
0,74220128804101
0,744279859184264
0,749318264470854
0,749477583589594
0,735004145897541
0,744833810222665
0,726744233211636
0,723389422495429
0,721562268336008
0,718719704283529
0,71608132914964
0,706915408254237
0,703969866602751
0,704934145215685
0,701607867190332
0,708374278758801
0,707024429117515
0,70935399690984
0,713745674531434
0,723239175251559
0,726408530787669
0,729824507734476
0,732083876795689
0,745921521004274
0,752405091837416
0,750713441695058
0,75075079595134
0,757028110728163
0,766921575422918
0,759204911004694
0,762241086681903
0,775542247850685
0,762961305251628
0,774365691075506
0,762468237606899
0,76156976413338
0,763168547628323
0,757124678166352
0,743339442299533
0,749452422260055
0,749358924213581
0,748877375557559
0,736730934860422
0,743664385683921
0,734222336677381
0,724030539505973
0,7233222112233
0,718381105900746
0,703952669007854
0,700394751810313
0,690115440935673
0,685465962373291
0,678904957521537
0,669084007314533
0,663700335361481
0,649888300539456
0,641324278193909
0,622874631213566
0,610543459938679
0,589700961093284
0,575168701065807
0,55221895595318
0,534103999326353
0,51831156727126
0,494777632580213
0,472990219005583
0,458076980213955
0,42792077608075
0,415738971887538
0,398388129287752
0,383777352888072
0,373556909612204
0,362295552956586
0,354631244192075
0,349418824979266
0,344311938684809
0,339720129314204
0,335097288724557
0,336642794081149
0,334273583265659
0,326882140713944
0,326234750454519
0,322085665677105
0,313850039355756
0,312483331679976
0,306511025192954
0,302809301801455
0,298197705750878
0,289870947616732
0,283808335175652
0,276047853361737
0,270094134632506
0,259753177013872
0,249140972221348
0,24437372715252
0,232763673764887
0,223578178335169
0,214261932174459
0,205291028363825
0,199957390614489
0,188019669349182
0,17730489914638
0,169344331990679
0,160457767498192
0,151281371724013
0,144619119146007
0,136832233258755
0,129894533769133
0,126501004502436
0,120165496640738
0,117649518205492
0,109703741053267
0,108471421911498
0,104125160677214
0,104710098820638
0,0995860989550449
0,097575839533237
0,0966305206863719
0,0942076919729337
0,0948314775447215
0,0969530552581219
0,0947190745275961
0,0910287310714602
0,0904808965970943
0,0948096745310854
0,0915684618201362
0,0942999500410686
0,0960805243735664
0,096493284178746
0,0968668475984582
0,0990210750345717
0,0983833129112278
0,100231431535126
0,0973999888993859
0,098953289287206
0,0966847373619442
0,101382193597766
0,0933888451147386
0,0975241609470773
0,0973569585068672
0,0946460898338726
0,0972382967092144
0,0915356291353092
0,0925128092719219
0,0931139809728445
0,0952924700986819
0,0952394940490316
0,091875078120463
0,0893672115195321
0,0956474547893255
0,0933636347757259
0,0944299096931181
0,0959476321887832
0,0945617009434991
0,0982617201410994
0,0977859610028319
0,100832242523011
0,102732811022898
0,102440589510862
0,100493069262942
0,101304643453228
0,103829603413013
0,102883805808777
0,107655747654456
0,108308494393447
0,106538181419216
0,110489791139104
0,107135398373799
0,111261495316685
0,111793173963779
0,108087452150227
0,108442513108032
0,109294972817002
0,113764728925424
0,113202491859705
0,11561546355674
0,11674743915242
0,119192815637046
0,118649283299862
0,12054112895765
0,128105873729236
0,126460072355048
0,130731253808868
0,136725108702698
0,139355470242949
0,139484761310532
0,148675345188146
0,149817415703731
0,155517987420562
0,153487367877408
0,158407823840303
0,156541232605457
0,159848613027508
0,155285421808258
0,153866050790665
0,149909906786095
0,145009178544807
0,140696207481044
0,138223404009262
0,135437552824131
0,134032233314604
0,133128303768315
0,132865128678473
0,132507468487458
0,130944252262449
0,132491421036892
0,129947800199563
0,128928417199295
0,136183050177042
0,135663101355393
0,133123137806765
0,130781080464804
0,126346650637419
0,126983223225384
0,133790675165513
0,128042509396897
0,121103677466011
0,123226409301399
0,121044484502878
0,12370706909922
0,122420665638416
0,114245123543955
0,116508137711554
0,117946634650778
0,115603414373617
0,111546280355848
0,112054827356847
0,113611944353192
0,110433354662781
0,110833244988648
0,112674445977567
0,105029136732792
0,105832731072166
0,103566741375484
0,10886368436046
0,115298847763619
0,110093548214542
0,105228391672383
0,104902095524781
0,109992478420017
0,103187988309895
0,101622185233632
0,103642649939306
0,101698048178266
0,100332613949133
0,102479023075302
0,0967258494876957
0,100303588056786
0,0956217149041778
0,101740000717787
0,0961918630289613
0,0910015820701704
0,0964358588095172
0,0899710922318317
0,0941560582746838
0,0944546412960949
0,0950500793040913
0,0967427228433227
0,094871283438193
0,0969963574855509
0,0875300707930314
0,0911623643006482
0,0935216426427626
0,0911189091040583
0,0911704088045714
0,096026702718069
0,0971249233674851
0,0993532301123625
0,0939985025178375
0,0953450791999941
0,0996645286417803
0,0897553489368337
0,0985073293882306
0,0948883064595154
0,103337234220654
0,102548919392187
0,105637785822975
0,104235806504101
0,104281753956788
0,110648824008081
0,108668651175346
0,106456557240086
0,106526937387928
0,103680764327224
0,117364884497201
0,119761175177979
0,112415077483399
0,114151884838008
0,113897330163181
0,121213422011113
0,123576471656217
0,126547659864691
0,131221440592212
0,134312977131997
0,141473226038829
0,15096580632786
0,154291659161818
0,152524547905946
0,162728945627149
0,167824346742019
0,172296423655612
0,168731018775492
0,183018209111155
0,193705461424407
0,187133256508582
0,188660130085119
0,190181598317618
0,191219827761017
0,193184844335153
0,186721722138631
0,203954637429403
0,190943042953849
0,188029306527244
0,187234894263363
0,187456452364326
0,179539390344438
0,170112357623196
0,168011487954517
0,181164768474466
0,19139343964779
0,186385591888598
0,180404635073358
0,173838544334915
0,167329760204479
0,179386154349645
0,191094226096108
0,182184719379147
0,171016864534147
0,172422386568398
0,171421885734257
0,170231315878727
0,165452849770882
0,164692033596591
0,153793449840899
0,156381084263794
0,144936952247126
0,155727733931595
0,163642343985159
0,158191684173867
0,143162023593527
0,147150170699201
0,148550033543287
0,155635184959651
0,161213679175028
0,14965678624113
0,14894983969869
0,146698005664294
0,143049227547341
0,163745835287085
0,148299519985595
0,151806519292026
0,146249884726231
0,148782325811333
0,158745619074648
0,15327890657744
0,136698538834843
0,139849178135281
0,160929062571591
0,158947582656006
0,162437317293894
0,160469759375713
0,154037882539881
0,16217460943569
0,160183589718098
0,182775919080814
0,172552852983844
0,159802734474697
0,139078341427853
0,148613595272956
0,18150524916259
0,202986313695882
0,202595979293465
0,188161701687236
0,167226120093897
0,163646585754262
0,168775108908681
0,183603225211707
0,183252161515409
0,17792832959119
0,204108244584082
0,175675236384263
0,168926404557739
0,197236173970499
0,17859239325724
0,205939596722028
0,239711186973934
0,20202406376222
0,245253052683441
0,257730410027518
0,212402008795172
0,234278640374663
0,247612928248988
0,229414377039866
0,208374168036162
0,247788698560386
0,234494378761085
0,219198943698486
0,247673234670627
0,236444550539892
0,192502961808147
0,219898776890236
0,222863282460871
0,219990753442946
0,228108704096827
0,217133799117955
0,162649911368001
0,189913631153117
0,201675317394553
0,211290380168337
0,238388796789432
0,19784791051689
0,210626136652186
0,241434854445371
0,217301283543865
0,183090924609434
0,212247657310375
0,253012861312064
0,228741614750397
0,204155850821498
0,203523753117787
0,242120699627798
0,234903144681515
0,319890186483433
0,243531125933071
0,157262784434913
0,192125006846311
0,186158396942848
0,226684325378354
0,199428410696118
0,156039229552345
0,200472513608585
0,26527090528698
0,0850652693646949
0,248729801859909
0,262229477536147
0,16243021708756
0,171873427354291
0,118794078798328
0,225079456406908
0,345687542518471
0,247185813156658
0,172022761261501
0,254222349254514
0,36091538033389
0,294729072785708
0,0769757448920145
0,330213997655174
0,367188513671609
0,33356240948383
0,19657401559584
0,0224106439098559
0,21383801276795
