3596
4000,36533379555
650,420452594757
1
2
2
0,0160846018238778
0,0174217032336946
0,0176168635438312
0,00795428149166407
0,0163333423537489
0,0109160556141628
0,0118117919905431
0,0128329057179218
0,0122105240418666
0,0122409025477301
0,0189998978608553
0,0100927660567771
0,0100985227160672
0,0139008136447794
0,0217472231837375
0,00601878903496743
0,0124010642052306
0,011364946746525
0,0117975691675597
0,00951441040993723
0,0162022260587512
0,0107460110416077
0,0124169103215253
0,0198284688022063
0,0196895372419904
0,0189705273488088
0,0212624058703732
0,00788292117998007
0,0149525649840669
0,00484225228324846
0,00798860154002984
0,0150190126373067
0,0195896337059202
0,00615606626911974
0,0116529449399555
0,00975207442177044
0,0156789291172784
0,00902432248226517
0,0153212410600535
0,0148025664563902
0,0129009806254521
0,0149766849081888
0,0130704310659159
0,00527755470689804
0,00826222207723955
0,00925306201685485
0,0210170099489765
0,012010556800957
0,00768859822208927
0,0151454879278343
0,0160236280680213
0,00557923050571486
0,0109245414125104
0,01157105113407
0,0177203204602747
0,0125308430877845
0,0108857088626342
0,0162209535894957
0,0106893613482932
0,0121512237410697
0,013547267717712
0,0241180138632837
0,0154834974579643
0,0127601688401854
0,0101238059354948
0,00853599024521322
0,0124872604724272
0,0103593921197887
0,00974550120386653
0,00817645684832765
0,0168425598810854
0,0136901337991298
0,0200132114696492
0,00429866385639859
0,0126929185182284
0,0122543221692562
0,0136298500815187
0,00978823876367912
0,0169690812105293
0,0182198392782312
0,014152541438991
0,00643670833661131
0,0223023213075041
0,00968491598897104
0,00997435382996062
0,00440737200217378
0,00590307767205776
0,0109138014498098
0,00863825768864924
-0,00273604599695352
0,00657746446326588
0,00473943134454358
0,0186034244242223
0,00615664539568842
0,00780675849742204
0,0128448654804272
0,022159957104035
0,0117313332227047
0,0147545824393954
0,00961791398420322
0,0127637114765521
0,00840894300389875
0,00325992810836015
0,0141309496692185
0,0177636198605056
0,0146890695475434
0,0167734078345009
0,00577457729153376
0,00823353631544689
0,0119244461612068
0,0136803017587374
0,00393837803304309
0,0104774698961815
0,00591197813397069
0,0223630677824548
0,0190215795900205
0,00821410552124042
0,00222508627384828
0,0101479718861733
0,00104408539378535
0,0214096296922663
0,00517480598652903
0,0108811481423751
0,00503875325735858
0,00392141477767634
0,0033565657425944
0,0211391084171275
0,00483705270521538
0,0136466772251564
0,000362284034342845
0,0168876195963883
0,00620876464328259
0,00976576173553278
0,0103852275862995
0,00761352698108792
0,00672940315652658
0,008665778877142
0,0118275651322503
0,0181757968717703
0,00454389271628847
0,00760830481989274
0,00338227883011416
0,0133248694522941
0,00289750297014347
0,0108014166393603
0,00685232419503479
0,00987263455352757
0,0129430967061059
0,00687147985553905
-0,00173301953355289
0,00446688096079395
0,0120844141425853
0,00754930427067822
0,00452028634075553
0,0245678473211397
0,0111539237042089
0,016639209719723
0,00211280828215746
-0,00802034585297521
0,00907320559620977
0,0044661143690729
0,0070900879303427
0,00665237583144914
0,0123217229959691
0,00782757531097504
0,016749667957381
0,0103970078228017
0,00793401260334362
0,00589686328636116
0,0063601242747139
0,0130058415089261
0,0094716625137337
0,0152253373062075
-0,0141143400496541
0,012701055484112
0,00391344162634516
0,0173685026566709
0,00425767580541216
0,0148853269985181
0,00768433065342544
0,0126436035289348
0,00733198963588579
0,00673866833797659
0,00410088277782578
0,0145901461106584
0,0140124225671904
0,00729591485375887
0,00608456498118677
0,0104053660177908
0,00966917392206067
0,0122335959959646
-0,00279563455013764
0,0163447684420219
0,0157629054970134
0,00517599484316023
0,0211002090891104
0,00388679565936126
-0,000380186137997712
0,0112276265930533
0,00834490955859109
0,00499636498914699
0,00975094844264557
0,0126871400645056
0,00614618274682026
0,00825440244796167
0,0184345463763156
0,00108007430145086
0,00785120058724217
0,0129664822795086
0,00307711854306049
0,00748859233373925
0,0162949736216206
0,0143496771779053
0,00529290679274773
0,000717844548777467
0,00782650655377808
0,0139153793136001
0,01091267813294
0,00769459834159
0,0139590988967301
0,00394169606649802
0,0038440506868073
0,0128126704206351
0,0165697934418333
0,014602736869112
0,0120247720873652
0,015246235538893
0,00664081497484596
0,0113925534556486
0,0152009428086983
0,00591987214464362
0,00602608950052725
0,00891811531919462
0,00181051642592087
0,0162573056347168
0,010051742086836
0,0103154543231836
0,0150863245187599
0,00174022273815866
0,00680361155146416
0,0191294827652885
0,0121944298090121
0,00792947057244778
0,00532208294225108
0,00989610642575369
0,0155134802954155
0,00323870774479136
0,0132816753039285
-0,000649103306515628
0,0169257067088866
0,0123866073199644
0,0115497184514445
0,00491535695158794
0,00848240667348765
0,0111765633130552
0,0179585530402981
0,00713010581305952
0,00676486238606928
0,0101409633679568
0,00671638327166591
0,00582828476566493
0,0142771647195761
0,00856004132798024
0,0107255144667908
0,0310824613983896
-0,00836397311581736
0,0120994593803778
0,0162035972865571
0,00690362107135323
0,0159897783188978
0,00674178534220345
0,0159418086957828
0,020205915452244
-0,00871651723049164
0,0114726741868044
0,0112029226259193
0,00654340952444492
0,00687826740121582
0,0070778269580907
0,00419911068710739
0,013318344849991
0,0155682937759969
0,0158251668477671
0,0290558106904902
-0,00759301066602147
0,0196825923518488
0,00166735045874871
0,0120954050711992
0,0104004973387659
0,00639162355286566
0,00944497996502169
0,0177720405559104
0,00330017604445132
0,0155351464582367
0,0136955049994398
0,0149281040582471
0,0139480981131008
0,00139888159518935
0,0102705438579527
0,0178855172141104
0,018197391844324
0,0049887684772313
0,0195573117612526
0,00982721590101453
0,0209019766033383
0,00543442974656924
0,0133372496972601
0,0286919882893567
0,00682397378566796
0,0139831949714778
0,0229557227806296
0,0105495908793281
0,0169634678087915
0,0154428059262856
0,012589229517216
0,0187943212168247
0,0167525148298413
0,0144681715446984
0,0313379036926494
0,00179117694662404
0,0169864641474101
0,00935050498864498
0,0116274842550771
0,0142271941647408
0,022287204843064
0,0113535478492241
0,0149515872944631
0,0154580134260044
0,0116231075891964
0,0232944947616457
0,0148571089009888
0,0171477354514934
0,0302617128103653
0,0187112883427494
0,0135044290182556
0,019591095982583
0,0184529426382732
0,0246856820662712
0,0217375820318643
0,0251452250630463
0,0151056735929837
0,0257231566143741
0,02139661164828
0,0206490697237295
0,0232526510177118
0,0199100283893519
0,0261881385589396
0,0347240980396887
0,0221952156746677
0,0245442648007072
0,0200769650429762
0,0321558385493897
0,0257329476895311
0,0271270191995032
0,0378960217344265
0,0185214258504141
0,0294011944798457
0,0305331351459835
0,0302274671559379
0,0284603322356343
0,0377113989085359
0,02787414296006
0,0353729704271777
0,0332118614201453
0,0344984198021019
0,0355206092522716
0,0365052367128343
0,0452089179080666
0,0324484087935785
0,0360178609915579
0,0395147508658878
0,0382349583043942
0,0552835051968558
0,04103785912603
0,0419291332407641
0,0412405587374582
0,0295736405982206
0,0557943991548288
0,0412153683069288
0,0481141951291072
0,0529522144152195
0,062408800889653
0,050593179264871
0,0571781162763889
0,0556855582543316
0,0617353518590051
0,0581788243505701
0,0603455124984751
0,0581713409081971
0,0732053999414196
0,0571790314841584
0,0740766310710182
0,0538614499682669
0,0689786591667405
0,0705729144032973
0,084068050279667
0,0769450772027499
0,0967568983920953
0,0677326937198548
0,0699678908128908
0,080057400638992
0,0843063118960919
0,0809412976237224
0,0812892570769983
0,0894732903083884
0,0926776945805741
0,0964067744919974
0,0946354820700491
0,0894933206873436
0,0991540998601054
0,0867502345727287
0,102624988968548
0,093937735646924
0,0986727664150075
0,114506224902617
0,0915549274288943
0,10317516518718
0,110582587863662
0,0976576419862799
0,105380929574504
0,117055087084919
0,105991311133032
0,114538813848754
0,126890407353513
0,118803688462684
0,124673596047911
0,123503530132168
0,129479254774219
0,129953610613867
0,127594214633945
0,140575215838266
0,133337441377446
0,149098665603901
0,153767356679817
0,148516613508563
0,150751265292449
0,149087920354794
0,14779543134139
0,142425149332964
0,163837288639038
0,158963570514638
0,158492619516873
0,15703682919917
0,159441488118886
0,157103292580009
0,17365009351337
0,174077858579417
0,178303325689756
0,179950673960379
0,175349305402635
0,173870978713117
0,186326466180322
0,191759310917176
0,199265818945053
0,199602748275312
0,213054000589656
0,200670741033221
0,196025440721391
0,190028798532589
0,220828411221216
0,200416733323456
0,211473742643595
0,234232014204348
0,239085763576317
0,226321311233771
0,229462189786263
0,22369490160435
0,22936697299989
0,228265118547209
0,230147539902794
0,23442546637476
0,235576487266494
0,245010028388166
0,258904966306334
0,247313477765654
0,260158223889161
0,249595983926756
0,279055685054904
0,253976300251196
0,265450391685314
0,275724458028226
0,270312010453714
0,283442669586283
0,285482677020834
0,287374670781142
0,299699770888822
0,289235978922095
0,313626738023013
0,297750126469305
0,324171856064117
0,290229867878321
0,323919354268388
0,315963014181982
0,323064706661314
0,320869626978439
0,335883725238551
0,341628008157403
0,34549687182729
0,334115513934395
0,349953801190609
0,331544797959783
0,368508194639197
0,338386346538364
0,361135241095672
0,377464645508612
0,370436937234042
0,353617631043689
0,363374015569933
0,383099906061536
0,375978061655515
0,364048163293463
0,397507808170599
0,400606021262301
0,408727866284957
0,383251549379266
0,414271610620124
0,389949084710248
0,412226631553246
0,40858431101904
0,433482499649146
0,425638365497086
0,414420353672798
0,45042526216311
0,463778089341796
0,458370750383744
0,475803970034639
0,459702077071114
0,472741661155308
0,444002675019921
0,465402214057146
0,42377995752349
0,490134557012448
0,442737937737295
0,485991551614347
0,454896667707181
0,486862608192332
0,48384797396188
0,526411735741606
0,491743033060803
0,51594727041443
0,481222317751841
0,515390979483129
0,513661495576502
0,536919629684984
0,494340596848313
0,533674729784156
0,515547780220567
0,549017731004125
0,548521782650814
0,588735413535499
0,528077615079236
0,554906190860413
0,582355198023347
0,571738648738471
0,566304274577037
0,559157950970276
0,548035170779492
0,574673177349216
0,568235973418774
0,599595369292253
0,573558142494003
0,640943778905424
0,581003364611829
0,605606324135151
0,571064947460257
0,6372750121339
0,622958188079546
0,6491623190418
0,582175100756343
0,635417688068402
0,598359903898605
0,638955856235319
0,611752008069617
0,667167300439433
0,635971686473272
0,643931985240519
0,648838983556549
0,691996481571185
0,669186590231244
0,654303232630443
0,6805198191964
0,721695881575199
0,663204923068865
0,706318530321319
0,668111417227803
0,729576992855262
0,689648103048709
0,727126064929547
0,673722335191907
0,739901299513327
0,677060397787085
0,722559445128969
0,681296068765459
0,80803895709732
0,717745825710953
0,759312633535518
0,691628332697261
0,750862379635386
0,73296362420519
0,739537125964232
0,70177503154605
0,763638833366721
0,728454396211778
0,775242791483723
0,685157734441912
0,76908314107629
0,782379209750579
0,778839844664147
0,723468951745717
0,782847306840807
0,727431538091246
0,791608329037945
0,763628813273712
0,829922849380933
0,784286571434879
0,825492442912745
0,791919054526186
0,818933538986978
0,806237660338457
0,855489225657933
0,82140794195641
0,818850248846229
0,85418114987583
0,812083256145688
0,778359455374584
0,878835407576729
0,796354496864318
0,837329930302001
0,765353470924165
0,908820010815595
0,813067446506865
0,889366669639615
0,836827883064275
0,930800085676901
0,834974656174541
0,880984845750153
0,863038906715957
0,893993256717819
0,826627131245947
0,861549569551466
0,84252891445297
0,888817654738054
0,82935578392217
0,89287666230472
0,875926107834726
0,935154045782943
0,847245212709793
0,953634423819628
0,900281196050072
0,880814882332798
0,875202962848744
0,922742130257922
0,890756097221533
0,944897615077357
0,906695230310464
0,954638346464675
0,888373352162104
0,903188897969423
0,884214279116529
0,932422416051604
0,890569699199178
0,909307990342131
0,879424984073135
0,936571054743226
0,902794181250077
0,962762221697975
0,916357320578431
0,986068886644359
0,915242856097135
0,985745136538406
0,894271180819959
0,96902522091642
0,908298133744413
0,959743486709862
0,903196977106165
0,946173241982201
0,97746350955635
0,985325232773965
0,942483488978272
0,988270546678229
0,94050244853106
1,00319699324718
0,976134833798631
0,998629588170899
0,938731377896275
0,982413565736795
0,973133869094993
0,970825906251928
0,923932413959232
1,05573252931436
0,93048191163694
1,00642844876404
0,947359660969948
0,970508215777308
0,916569981689513
0,953077511653651
0,979688464852028
0,965591010973138
0,946195692680012
0,982993703139511
0,950348276448711
1,05323047809751
0,962149295332107
1,02738202949265
0,948239891010357
0,999146216428636
0,946578769952118
0,953562491302286
0,970076043183885
0,998758703771281
0,973779198727279
0,966912956530012
0,999103823834324
1,04395285940017
1,00308652925974
0,989695638236777
0,96887409631966
0,987271540017193
0,958418036949921
0,984120640436588
0,96237691143389
0,970367789516479
0,910890537505014
0,983729043196311
0,930129330489293
1,01155213700581
1,00958202224885
0,991333451178401
0,921900702743255
0,974422809305688
0,911388170126144
0,952211944638655
0,923679123888751
1,00354672320918
0,932052802272252
1,0187655839634
0,958047862231269
1,06827931314466
0,938877758302259
0,974727051900585
0,929842754937776
1,00183424028038
0,949402272697145
0,964874261401747
0,984428210415742
0,93866520211927
0,93924479763046
0,960857485555726
0,924114288931145
0,97424028373497
0,923593786817925
1,00148152132061
0,904446156472963
0,97435940744177
0,917789115271063
0,922931144455211
0,962757199103657
1,03152668836308
0,988228758930513
0,978294811874339
0,972733952791429
0,954003569251062
0,926813837233233
0,973630170726598
0,91588314768605
0,95482805443812
0,938585876067002
0,998775572358938
0,92167265861813
0,956549601314387
0,938397705851607
0,928978511346321
0,943179267037319
0,970562671334693
0,907696864200239
0,938125287391903
0,90816945487568
0,958337744368402
0,908313321713083
0,937028417394723
0,922282576583157
0,952227360418477
0,913424311810723
0,932815623187299
0,904643271257172
0,890835391213464
0,883448091241614
0,945030580336203
0,897019822090082
0,922032258907053
0,904578399331991
0,918274399879074
0,873453612648112
0,89250027553425
0,897522401006908
0,89642145000706
0,864507494277604
0,863778855224077
0,87422815066485
0,892586242096331
0,86012395552159
0,879015734168624
0,865219431997765
0,877123010388752
0,830708776607333
0,873795679731279
0,854043164521909
0,850103496597736
0,849024048234559
0,880633024758808
0,832264516207851
0,910512908392142
0,865887883665911
0,884363149072495
0,83159694935233
0,837763860046969
0,834657331070986
0,841119947542946
0,837008027996908
0,8525787902936
0,816038920491685
0,858902152079233
0,838101412526483
0,846443917198246
0,796895156343282
0,828312205463414
0,819844300644555
0,812606433405667
0,778888868907942
0,824023378202569
0,804220807277044
0,811868373680029
0,79158344821842
0,817035207887699
0,796826803940255
0,831416122097024
0,784439627628743
0,79585335366452
0,773759479049764
0,802172580105861
0,765423558498257
0,780415881270064
0,761473287185132
0,774573505862417
0,740403994242751
0,796470903029721
0,768682632873821
0,762191266808516
0,73771677515623
0,747781832358504
0,735607591530943
0,755264081316728
0,733426935043852
0,727158895093122
0,717211626457182
0,74710165113309
0,728433822564416
0,745035058268864
0,738279657017792
0,742375209974755
0,725614473365367
0,740588914619656
0,710061664220966
0,712201062537591
0,705456447669354
0,704941572901833
0,695500769252489
0,709884671950395
0,685988156230046
0,70215193370734
0,680309345621287
0,687812000918707
0,677517352473156
0,701551220709378
0,687022440993276
0,663995539181565
0,666821529792975
0,701302011961624
0,674716472682919
0,67988134268069
0,630716168507667
0,643433154625701
0,654495415271541
0,662046770075737
0,626227190549081
0,660197047393181
0,646303011129167
0,637640886906081
0,624522892789228
0,627834974724597
0,623253957644334
0,638179335937306
0,599817646665239
0,62027885489595
0,619062345475221
0,628297662999584
0,616496682362889
0,61000521427585
0,590009246049605
0,59717614209586
0,584636569650225
0,590863510196406
0,586422550153315
0,595184045058573
0,582481877770593
0,583511528727687
0,564773921780991
0,583105297426795
0,556514274166445
0,555335080686431
0,571681546052384
0,564813097643458
0,549208100589652
0,553708431141045
0,554742177671269
0,549738523105616
0,5344228452852
0,540520006353732
0,539818652188791
0,56065410085174
0,52898874998129
0,529794431188666
0,531568792186017
0,521214885929136
0,518014258758019
0,532408383416296
0,510546272998948
0,516081180678001
0,507566796355272
0,502432643449172
0,498838430110831
0,497195866608509
0,493080908674273
0,508020216982092
0,498177986629214
0,499002958155455
0,481629819046047
0,484515631968545
0,481110493082765
0,47915347060913
0,473776777281669
0,479688872202076
0,462321083198522
0,466448147314441
0,464809132289508
0,467663335801724
0,449766495166016
0,457987697487108
0,459829114840487
0,463820821090773
0,449438404402554
0,449096437005254
0,441888827254468
0,451374217733558
0,439669113933133
0,439398454439488
0,443533819738915
0,443240425682766
0,424470419567139
0,428601412087869
0,425472801984049
0,41813972758209
0,421185566757901
0,431737672350484
0,42741967725834
0,423751914498626
0,409964644007595
0,406978621969841
0,404275175483859
0,415827939381646
0,404994906060564
0,402211536509018
0,391632443503316
0,395666753826437
0,386407358444697
0,396298181876708
0,383193183934598
0,394034279717092
0,386682615818346
0,387214454795686
0,384404209344072
0,384422182072242
0,381809292623023
0,37439556450705
0,377902802426249
0,377370762868754
0,369744161734633
0,376322076663176
0,364055670840771
0,365057829718325
0,366034195667411
0,363512877548696
0,362308296859501
0,347946614373158
0,357632678085186
0,353880169633342
0,345130073689669
0,350435474359831
0,341447263568823
0,340678853812299
0,336781131973007
0,337201172260577
0,336329896977859
0,334756678675005
0,332189801875758
0,336825436272969
0,324264670409737
0,329998091673547
0,325535684345797
0,328582750137166
0,323443012762071
0,318362557351413
0,313925432640464
0,309974104762982
0,317838101836823
0,314106998717786
0,311432681222717
0,30885389711388
0,305963942541025
0,309169770875427
0,297999200608708
0,301507028222971
0,303914026129635
0,299703520094968
0,296135882790631
0,298143500767036
0,290544436123023
0,290510940916531
0,287619001292513
0,289408029926677
0,28821974394174
0,284655235426706
0,278800888055467
0,281609806658324
0,272518266968293
0,276850292862938
0,282135780828587
0,279241096462431
0,270685103512478
0,270353866450592
0,26418130621775
0,268349184458199
0,265890454286926
0,265945253405196
0,262873623832546
0,264307312312205
0,25936955281631
0,258066210181974
0,256033770731103
0,260107016444478
0,255781941035842
0,259180890874399
0,256020646070189
0,247496639852107
0,252440869342112
0,249988959782832
0,247762762446312
0,249109469630659
0,241599026468258
0,246339121489611
0,24251119431173
0,245683796568773
0,244596439027435
0,241193818231984
0,241233225078423
0,23523089047687
0,229712638847895
0,235310174978635
0,234628734628821
0,236306398962333
0,232213249948188
0,233128454957534
0,233283587547415
0,238557020047762
0,228239531306947
0,228821473875715
0,233870180862904
0,235887506197309
0,230690598879818
0,228827880772518
0,231058490470293
0,233511657588665
0,231499749287133
0,238264126885982
0,243042652720779
0,235250945464139
0,226936780307153
0,228610535142569
0,238202268853911
0,24027708691195
0,236694738153221
0,239503556148241
0,231246948750024
0,232053889584121
0,236375172279788
0,241181796959923
0,244035074576711
0,246433734438118
0,246080627244753
0,249103458509735
0,242713310404225
0,241031675656392
0,249712969152171
0,253531168851351
0,252351178752529
0,254844357112198
0,256197574442959
0,259129136223419
0,255200486489878
0,264400751357644
0,262231423041388
0,261489367509164
0,264165879766592
0,271642609507772
0,271745787458702
0,274757177127576
0,272874778269683
0,268198257610863
0,270821947450033
0,281841127675698
0,27331367889669
0,27660870796661
0,281791583117251
0,284907376544985
0,294674444368524
0,297821515884852
0,290034019033185
0,293471265524713
0,300122723118702
0,299835819710392
0,307309989770654
0,310983105997627
0,30435144003453
0,312096808096047
0,3105523320296
0,307972771750175
0,314357447839971
0,316020697952641
0,318686244544551
0,327943757848749
0,321810735153561
0,329306263912316
0,330171086203455
0,326011631904918
0,32797532214001
0,335453117532012
0,331984998255748
0,330308657375733
0,331718328914383
0,337067183481512
0,339180507262982
0,337915842296783
0,338576916992146
0,344384331910461
0,340381017610157
0,338731394771618
0,340440211512676
0,344310497897627
0,33781730091329
0,338287249325597
0,339599509502811
0,337024448565605
0,335664867821371
0,331782984563972
0,337300148645269
0,335562263319201
0,330298880168887
0,338690814190811
0,335252919683425
0,336097873462866
0,337036273737617
0,339853903728345
0,336037205340255
0,336644781406559
0,33630844108444
0,333256954978436
0,338820004775138
0,336418056392364
0,3360880749945
0,341382829426462
0,337374788481518
0,33315560800666
0,335017238697917
0,336493815537942
0,336320340552473
0,33964305782783
0,338365564088135
0,338907360151178
0,343447937346355
0,339074544164381
0,338032218736708
0,344910134440424
0,338446611042513
0,343073343017188
0,3421829279318
0,333692185854402
0,340225315826271
0,340034125893538
0,335782057730219
0,337096867206754
0,330194205807431
0,333570630302648
0,334137484673696
0,32645770140526
0,327980892811102
0,331969622996183
0,328560845691027
0,319617111644914
0,323130203572759
0,326989262914137
0,319083146765615
0,31838575914901
0,315978831965303
0,319178152210926
0,317856644513679
0,313412000140715
0,309035063036925
0,310061064862847
0,305308785533835
0,298818108194653
0,300476439770671
0,289846206754706
0,28652846654279
0,290835799336731
0,288915459631052
0,286675023161834
0,284645716316328
0,284762075633453
0,278716187339983
0,273914104433419
0,270626929915728
0,265092749872345
0,263039229073545
0,262021248388933
0,257936862967587
0,2597571683109
0,257847669214622
0,257323014197144
0,254252910450586
0,250392300814087
0,252610788885155
0,243344245961355
0,240172662488706
0,245671141919192
0,238400681670111
0,23946095811612
0,239664286789831
0,234309683553829
0,231609818770997
0,23344439955351
0,232057134108985
0,232137169458806
0,228276587585195
0,225485598929801
0,226332276120156
0,224584430470636
0,220581792023953
0,218364050606564
0,218725294898834
0,216557773385034
0,212171022570327
0,211369416614078
0,213557674449583
0,212638510810221
0,210779867704064
0,212176515749505
0,212245890790053
0,204530833893522
0,205850070712239
0,20399733495604
0,199964113004194
0,203217927888827
0,201524816208336
0,200047033964258
0,198570072592243
0,198525617244856
0,199293387385074
0,199299887326834
0,197243373476157
0,191644477751127
0,192483272209925
0,19550284383102
0,193609027551927
0,189991717077257
0,188086048022102
0,188668132995279
0,185863278904946
0,191713579755584
0,192420732241677
0,189337373176386
0,184503099170314
0,184397732696954
0,186463006475154
0,180348617903927
0,181128618187425
0,181987659224305
0,181963404638355
0,179123400600844
0,176112931642342
0,178120775297875
0,176944296413821
0,176640021960401
0,177536581609625
0,176979069349104
0,175147409709095
0,172357750659589
0,172936841299985
0,173708269967645
0,172026785754146
0,171654619761674
0,171058376506322
0,169782864868419
0,169973177840682
0,171842383104627
0,167754532430079
0,166806060323879
0,170188512349651
0,161612464163003
0,160000388886268
0,165482348527593
0,161636038487363
0,161445805865186
0,163636156408129
0,161052137617271
0,159235785117904
0,162492807782424
0,159013273406252
0,16307242433343
0,157148891262495
0,15682670188869
0,160058830430004
0,160239226175641
0,158901830987464
0,155864605829287
0,150378158920392
0,156043778533738
0,155742385636511
0,156368910002735
0,155904469286409
0,156252755345962
0,159958547905163
0,153129135491001
0,152849379345431
0,154974306249386
0,153848744142695
0,150846480819779
0,149207829379897
0,15194028184668
0,153348975648057
0,148814120312474
0,151742541910976
0,149301523680583
0,149708691476105
0,152820274078043
0,150597235241257
0,148558229435867
0,147239924421922
0,149216911507817
0,152769110959871
0,14886037808573
0,150808920290673
0,15039916360439
0,148573412155554
0,144582004987905
0,146218177344807
0,149117016370648
0,149803167183429
0,146725050178215
0,147972029463327
0,147617484969035
0,147828578246579
0,14775193040825
0,141584912680645
0,140798027782784
0,145858447784823
0,144063933754997
0,14009647771318
0,140496787271677
0,146039319964458
0,141088000970894
0,146569654658079
0,141957130424665
0,140992198650868
0,144360234441311
0,13790625173558
0,138753273235172
0,14091738136152
0,137957987542799
0,142180422730388
0,139579029451782
0,137644522268645
0,140502934132396
0,140900780160295
0,135487020267316
0,133966486235277
0,1406010504473
0,135841141576137
0,135199687999927
0,139221864877567
0,135035636967492
0,135661579378461
0,135506004501545
0,13109246735396
0,133131275802468
0,135078443458141
0,133558275906608
0,132754191661603
0,128308022234937
0,130144976129358
0,129572762604167
0,129316414062945
0,128304310613832
0,126852433500593
0,126497879991995
0,12684017931312
0,12988244780069
0,127202700282289
0,127197201068618
0,124490009622302
0,125123983703754
0,125871372457162
0,126210755982857
0,123112909638087
0,123895932782875
0,123369560130632
0,119901106364737
0,12320838236419
0,1249208165239
0,124579119820848
0,119866322379097
0,11961376275824
0,11925227959311
0,12038189172534
0,117939047938338
0,11734020706366
0,116969273516198
0,115780674082108
0,116847164194165
0,117354332510791
0,116633989014604
0,114178324929931
0,115252308548684
0,114508223624625
0,116082661440048
0,109748440932155
0,110503779886902
0,112724426983851
0,111084767604301
0,109966537897126
0,10697025358751
0,110172119380654
0,109359800075658
0,106271562953992
0,105325393027683
0,109973285048816
0,108451210242361
0,107400662655327
0,106812233866125
0,102998531439755
0,103723715615051
0,105606135912932
0,10344188924395
0,0990278119682705
0,0997630850707177
0,100367559359267
0,100872379481452
0,101598982754319
0,100847962508818
0,0997006475077281
0,0977136749030343
0,0992867800363301
0,0994002886842158
0,0991013324522189
0,098818648695415
0,0980468974418105
0,0976221513819119
0,0948519919727411
0,0960069144489184
0,0957293441200332
0,095497270475645
0,0936844690021059
0,0930012201378126
0,0946230615069273
0,0942275470927998
0,0918041699607693
0,0896910450874163
0,0906150069126221
0,0938556452415797
0,0914499388357501
0,0886371830046194
0,0886536076535038
0,0888900043364163
0,0911461125832943
0,0866438042470544
0,0865904835515064
0,0871798058164066
0,0844621332807142
0,0875997208509059
0,0860861396646445
0,0849788011355346
0,0854956385350593
0,0845894717999632
0,0836732815245641
0,0852412922849736
0,087542010389013
0,0833506997523166
0,0862561270687285
0,0813816073328419
0,0859845231963562
0,0806469820914332
0,0863605941192784
0,085305538370103
0,0837499881100677
0,0814934688937568
0,0835767322490749
0,0835472891678291
0,0800472586644504
0,0815857840550956
0,0799635291037976
0,0819355882785283
0,0798535322133055
0,0790390803428279
0,0790566460842502
0,0810782597976241
0,0782685199968739
0,0803527833392326
0,0798481960172782
0,0798414850828812
0,0774410463918558
0,0799952433279919
0,0746147570119967
0,0759524613818448
0,07529562225816
0,0779192392352997
0,0785884138141958
0,0771277471845607
0,0766685736114454
0,0754385841778353
0,0774748453323984
0,0741866663483517
0,076425580335036
0,0762155514907708
0,0741070964342373
0,0746025368859538
0,0783448026500236
0,0757044542812342
0,0737894892928125
0,0742550245210871
0,0746809152867323
0,0721930307898965
0,0734143322056607
0,0709661143721435
0,0725347776244444
0,0755244027619075
0,074304957815327
0,0703156446455664
0,0740280764850696
0,0719787140494147
0,072664900328068
0,0708299992273763
0,0688559025581674
0,0719193426821973
0,0700917842608617
0,0702035582835822
0,074626402959559
0,0702640363124919
0,0717760594555004
0,0682412587867673
0,0694669155973629
0,069015704309988
0,0708178896716322
0,0695185871435687
0,0678805414238594
0,0673783808677524
0,0718504450630351
0,0703153820077397
0,0695492398728367
0,0677518151066809
0,0709947159662406
0,0701089482930815
0,0668469230130811
0,0687781387988219
0,0667060110006347
0,0661453379014288
0,0699596957830651
0,0685101470081852
0,0676035380019324
0,0683490509145411
0,0678916280831834
0,0665189727601984
0,0665763069996694
0,0645828288791417
0,0669695247067319
0,0662044879338385
0,0640275266382382
0,065714791073313
0,0671512903104444
0,0639807344700503
0,0649862942615497
0,064370234501806
0,0646391199518252
0,0667581238696907
0,0662007375188228
0,0636105038033464
0,0638353555721326
0,0613229591035021
0,0638971394728396
0,0647687639989371
0,0613008351461699
0,0643338872227858
0,0623977564334435
0,0623028600927766
0,0615185232938867
0,0614495383741677
0,0599411254396496
0,0625204345637653
0,0616112610528707
0,0628408983286543
0,0624458347232052
0,0633357172279574
0,0611659715881312
0,0654325934558691
0,0580915770821643
0,0607328346478284
0,0622012936632532
0,0589094835453326
0,0587346747523245
0,0630201236601303
0,0582676726082167
0,0601520337313213
0,0580997646776264
0,0570946571106114
0,0582989732635259
0,0573144890257321
0,0578972366078781
0,0582240160411174
0,059048336674935
0,0586780969772296
0,0563101990812606
0,058071323280847
0,0588362842538224
0,0572381152107245
0,0559675787931522
0,0521927269523696
0,0560651616384487
0,0546806939708272
0,0548362367163084
0,0562540434436968
0,057286606422638
0,0552243847350391
0,0528341497160168
0,0546110930577548
0,052533270760232
0,0529403306892852
0,0522304373390813
0,0512876837331518
0,0518930310411646
0,050984710922555
0,0513231014368125
0,0489458429634646
0,0509718852528853
0,0509679782535318
0,0523922168908208
0,0529137994350913
0,0502880273219782
0,0518292381478113
0,0511415048345612
0,0485555466113313
0,0477463754469475
0,0517064764443995
0,0507203222912712
0,050450049320396
0,0484761415638918
0,0511563376167169
0,0481782272840884
0,0478631721217181
0,0470679632162708
0,0456308724811141
0,0501073358154042
0,0478598171914347
0,0482285180642939
0,0470853097204692
0,0452440875484932
0,0464705782971009
0,0495615356292302
0,0455351610433494
0,0468675455154033
0,0441590363846959
0,0449372586855645
0,0432974014672444
0,043581045273346
0,0450465208205296
0,0449098354040158
0,0449869056337787
0,0452487366255331
0,0432404667266522
0,0480350527581273
0,0422616856233885
0,0452971882711215
0,0426582303330332
0,0435289675912823
0,040645007377672
0,0437719263642069
0,0426331661228398
0,0416735963064443
0,0456294230338301
0,0419333218918662
0,0449236304482824
0,0417833866959363
0,0384141639722355
0,0427472287913204
0,0411639014029293
0,0408416086631095
0,0421683632074723
0,0436231313372204
0,0375142785845409
0,0423968979850863
0,0399113086336126
0,0400179407741394
0,0409684899896872
0,0417516869268451
0,0384141683645211
0,0437537368174983
0,0398737198008233
0,0389480501290175
0,0381002180049194
0,0426744914797342
0,0383245540896781
0,0380401477720007
0,0399123510091251
0,0382967071287607
0,0391817852604145
0,0391342701689467
0,0384992193011362
0,0384334471599633
0,0384056948509305
0,0404401153850314
0,0387488486581694
0,0386242407730948
0,036244806780513
0,0379356961126486
0,0346360838294408
0,0375104041631284
0,0403435071569232
0,0410673198711288
0,0378771561777817
0,0385080421975613
0,0300139687957742
0,0364813727108993
0,038671990707068
0,0347650875458346
0,0349196373564317
0,039454582160039
0,0364580463844978
0,0358929107142616
0,0344032572846935
0,0340069678273207
0,0342831521734444
0,0404553829874943
0,0366879845421706
0,0391165386674634
0,0323473932071669
0,0348032069424608
0,034512495557075
0,0401897239591422
0,03445823090435
0,041425850401345
0,0331698439071574
0,0364858277239109
0,0317282720724176
0,0338120707726076
0,0360093895456495
0,0384305676721367
0,0341560564474955
0,0363056497041337
0,0305003957993662
0,0386267799547615
0,0320981885903193
0,0380573685279647
0,0336085476448885
0,0343673212847067
0,0306270850039283
0,0367810395721248
0,0366637078933771
0,0395664269900093
0,0360689879307706
0,0374743881817013
0,0341989003055974
0,0367839003718022
0,032764781949112
0,0364359611799694
0,034590296722323
0,0308505571007483
0,0384077676929408
0,029115655753468
0,0351263003379066
0,0291143427310676
0,0382328617845505
0,0272512355304651
0,0399075760682582
0,0278734818129063
0,0391593560331687
0,0261340054356821
0,0435305329909039
0,0234201932226906
0,0430661691410821
0,0255155728575769
0,0438578908075733
0,0281547865395238
0,0393013658302764
0,0297751196448207
0,035262419354116
0,0294973537101517
0,0374997486240605
0,0328132860581583
0,031279062308659
0,0350830337502192
0,0294611195408274
0,0339470505836048
0,0331974222927601
0,03030440919511
0,0338375289064543
0,0318632668606964
0,0337815413682898
0,0315714645953062
0,0368971931392381
0,0290749496341001
0,0338721631811571
0,0318218571509963
0,0317577262521165
0,0316208727361532
0,0348776022184651
0,0337624654896337
0,0305253202353739
0,0349097257219161
0,033448871940312
0,0321413387491624
0,0344154304291245
0,0332361590497407
0,0336894984533193
0,032136989300984
0,0313003617241426
0,0312583422320431
0,0315767744020286
0,0323471382157988
0,0333203288714855
0,0332926053194978
0,0310775700674889
0,0309504835288984
0,0311725098403017
0,0306000045729371
0,032643271734083
0,032565497475818
0,0335182698150138
0,0338006086241565
0,0351400699871243
0,030557856685667
0,0330303183290034
0,0336055890730781
0,0327253607925364
0,0321570502197926
0,0349570677083252
0,0309403230975229
0,0342662314968745
0,0309862574263597
0,0311034639013528
0,0328170128180293
0,0336641394568917
0,0326922802641326
0,0346354128207754
0,0336441870236319
0,0348055734978684
0,0321928910194474
0,0321518899863843
0,0324714057163768
0,0336076783153996
0,0289278408078316
0,0328694556675139
0,0334653603436631
0,0322922512375954
0,0332280516046036
0,0327666058977824
0,0313239931451047
0,0328362598229107
0,0330058607900317
0,0346978597243262
0,0346067223606844
0,0329894653579831
0,0338275127997758
0,0330023458347244
0,0325011888690039
0,0312496085888146
0,0341479786424212
0,032280277619346
0,0323720081644826
0,0313472805553687
0,0329836126259808
0,0323955184450579
0,031462705010716
0,0321333248419457
0,0316723731799559
0,034659281109723
0,0346615968467051
0,0343533626654262
0,0338199461118297
0,0329003332936466
0,0331580696771997
0,0312891977796275
0,0313686324741613
0,0322806168575193
0,0342321950321721
0,0340494091636529
0,0325707874366472
0,0347168241790127
0,034272590552338
0,0331984621406889
0,0321123914742483
0,0342349749573167
0,0318386986264571
0,0322347379079649
0,0336663076630144
0,0330170929347964
0,0337900456522423
0,0352438889648836
0,0356011569630896
0,0342552760218061
0,0335670539873531
0,0314853881172628
0,0338821906882091
0,0323100180353823
0,0340105182247
0,0348694243321161
0,0353524195982926
0,0334549792122609
0,0345405860687284
0,034727881422179
0,0352549502783266
0,0329522140191756
0,0325497944915524
0,0353352246438854
0,0347532633920964
0,034932852327794
0,0371903984443803
0,0348664054216082
0,0351423345872657
0,035445954374926
0,0355393171195899
0,0352994097998418
0,0348062323500551
0,032814149514358
0,0332436476019433
0,0349952224246093
0,0346242469726941
0,0362020517340365
0,0369431427999683
0,0357031585143839
0,0344998180323245
0,0365391429333742
0,0348201759760894
0,0344209273871121
0,0361919801399352
0,0369207510181109
0,0363544577570239
0,0352562186725945
0,0345580830764649
0,0348548788187263
0,0354592776843438
0,0367097502811943
0,0360309562432668
0,0365817683521259
0,036754972279316
0,0348092028793528
0,0358954995464343
0,0348982521517961
0,0354749364999415
0,0346781824543788
0,0380639290028568
0,0373055898981138
0,0374671241255541
0,0362453938720196
0,035844653682416
0,0350634032061082
0,0373480184701975
0,0385316670586716
0,0340871796108843
0,0370748080185933
0,0353995621953903
0,036319124989559
0,038227307298455
0,0366953333302532
0,0370959312376732
0,0372686156673036
0,0363082634849989
0,0357366977306423
0,0377635389496448
0,0347001477318551
0,0349699966173541
0,0361438955344279
0,0328677647313962
0,0351797196974056
0,0382959687795619
0,0376180358921645
0,034563818206438
0,0339986697768066
0,0364615900279535
0,0354289880587913
0,0350878717762633
0,0355998203494883
0,0365168831427065
0,0326899443113837
0,0332802618988926
0,0344157090608815
0,0350420940144307
0,0332526723103638
0,0331822007971755
0,0341089883675202
0,034541756644581
0,0329389621595544
0,0369523168130773
0,033610172244477
0,0333451615184127
0,0356932018561848
0,0351869617487401
0,034313383474098
0,0333069936357863
0,0362858715473352
0,0343042670832598
0,0337738079983272
0,0349916257869324
0,0331702828396651
0,0321125125770337
0,0328792160573946
0,0355932614914303
0,0345455003136367
0,0330546117802068
0,0342008679429941
0,0341542678722585
0,0321066955971868
0,0336510216324773
0,0309547469713155
0,0315212592195844
0,0319545803957738
0,0339600925541951
0,036539429790912
0,0337676363735018
0,0322396304650358
0,0336951442921954
0,0337824280296346
0,0322440710997072
0,0336962093472035
0,0351225425952337
0,0329437831935994
0,0333350028311895
0,0336845059973977
0,0323676585647825
0,0336270605693276
0,0310895717634753
0,0328979042796475
0,0334626640698836
0,0325645265114935
0,0329999827924002
0,0336004360798303
0,0326869556063521
0,0339023730066033
0,0352083842099558
0,0338163136227942
0,0332181773971749
0,0326278255400098
0,0324459222847547
0,0296730155567562
0,0316869473560056
0,0324654001682708
0,0326590369673056
0,0310983269438639
0,0322301438777178
0,0324799246815221
0,033155434327783
0,0313711040181808
0,0328160844475981
0,031271410748237
0,032441003928773
0,0301426598892268
0,0328041358519676
0,0318302623546494
0,030980759434994
0,0313678633908481
0,0313990282959781
0,0330996257550571
0,0323384395590491
0,0345526078713163
0,031408125097892
0,0314716147570761
0,03257854253776
0,0323813399978973
0,0322792393581453
0,0319677534837049
0,0322627794169181
0,0316092559377899
0,0309965428652615
0,0316871749732382
0,0321359723972882
0,030642948022466
0,0288361292367539
0,0301606656935442
0,0323088315859002
0,0308554994288846
0,02994786125907
0,0311911002203839
0,0315990177237713
0,0295429258151851
0,0313828747531916
0,0301340449323409
0,0304713980906261
0,0317604397277558
0,029797505280441
0,029626296294382
0,0293778980957853
0,0292233079543957
0,0287097755825933
0,0286770585993243
0,0289647394353465
0,0303413344037425
0,0292516054198785
0,0299224926531154
0,0305020904837397
0,0286529952587062
0,0299133912235526
0,0287868447639135
0,0294193205423448
0,0271062423554012
0,0292423632203258
0,0290777861180435
0,0280337896141961
0,0269678882183406
0,0291845620055606
0,0281034875061149
0,0282539180734381
0,0276565845835625
0,0285764646280631
0,0279103922233032
0,0279189428622924
0,0277950436211496
0,0274538857649194
0,0275298355189053
0,0283315176568254
0,0279304416374992
0,0278496711874224
0,0255362517851402
0,0276415443236531
0,0281728758937137
0,0268958474631864
0,0278085160785921
0,0280342538321514
0,0263622501107547
0,0258060607013955
0,0268232933068667
0,028450882674789
0,0279027365698882
0,0269824663359949
0,0263973123613109
0,025657353440007
0,0264330408675372
0,0262046396034236
0,0277319966909654
0,0267112402387516
0,0266558709505745
0,0273987940000597
0,0271657316882798
0,0252983810462411
0,0277797712932298
0,0261847435390488
0,0280280305334747
0,0243156475177221
0,0246720590804823
0,0273279899111319
0,0282066463175913
0,0250061804773925
0,0227826701761492
0,0270996163472707
0,0255298706766825
0,0252737537732378
0,0254281590871043
0,0240732168276548
0,0250119866869801
0,0245059813015142
0,0260776013094534
0,0253093510873453
0,0235118156026347
0,0263908250229128
0,0250764860931721
0,0251666251215181
0,0246923362541146
0,0281968392448886
0,0240103957469611
0,0232019705013638
0,0255224203632881
0,0245347907665391
0,0228941404455543
0,0251945868264248
0,0262698991130832
0,026304198632171
0,0251557204607853
0,0259853147898566
0,026291991373722
0,0251003444843501
0,0234464936348487
0,0237639824362429
0,0256185083620369
0,0253965640739994
0,0223964537041882
0,0239357068882051
0,0244028454212086
0,0246773435546379
0,0233932441378117
0,0251970174762624
0,0251322775715559
0,0242918018319327
0,0249617315199382
0,0249847340540534
0,0231557405216819
0,0245303787452074
0,0235876409198497
0,0253838475116893
0,0257991212404398
0,026863061911281
0,0249670961095624
0,0218143765502364
0,0248068772042515
0,0288784587557143
0,0252383142720885
0,0250074520276358
0,0225210221137884
0,0246875788041464
0,022805697811791
0,0223991073450716
0,0210323677146456
0,0249639599452957
0,0233811067532635
0,0226607931117377
0,0244724846689471
0,0241024809598632
0,0242511481929128
0,0241080880325323
0,0241288787540286
0,0248995116741209
0,0234733364047782
0,0223353540068928
0,0239319828806925
0,0216169720342746
0,0224183368287537
0,0243345725304441
0,0239627388886812
0,0227074147616166
0,0244323178274924
0,0241285053754239
0,0239658676364539
0,0238954704472205
0,0245279277183907
0,0258095168812766
0,0226622675689094
0,0209375680564344
0,0233775474633534
0,0242447508982955
0,0243736166550511
0,0269758656858443
0,0262982222379554
0,0213454263833698
0,0244095140065657
0,0216041864877985
0,0222770285333867
0,0231493345719249
0,0239086921325044
0,0229746329096383
0,0218680614799764
0,0222423132412014
0,0226019002424312
0,0225953312622159
0,0240801799934604
0,0234886908439603
0,0234675821756503
0,0230110997371405
0,0223428001144307
0,0241772095815358
0,0221788114843728
0,0221343642068765
0,022269722139121
0,0248980638361893
0,0236230268882606
0,0205000823433001
0,0235134032021911
0,0230376157285753
0,0223212599297828
0,0226700555215238
0,0239769530913083
0,0233138273041804
0,0228471629590906
0,0234659594352188
0,0263797920500782
0,0244566680798561
0,0243829607719665
0,0231721393938966
0,0246586177248866
0,0244081062605549
0,0260052674176456
0,0242310936156379
0,0247732814434222
0,0235885115244075
0,0247373948699614
0,023214764657738
0,0245823101135194
0,0240139031526702
0,024218342608395
0,023762381057351
0,0273453773676276
0,0244518531517973
0,0225193615769551
0,0245366587789442
0,0204981013406276
0,0229943611518126
0,0238573903559619
0,0243271009670837
0,0255688125165088
0,0254648820561113
0,0244696635205225
0,027514358041699
0,0236284928932585
0,0247221018067963
0,0250289629060718
0,0286465312339901
0,0273987473613601
0,0208215330759548
0,0229164472903718
0,0243299615917942
0,0213090711256278
0,0246458149431022
0,0242023485028581
0,0245048167302382
0,0249116618126528
0,0282238018401955
0,0254703774142201
0,0237497723369308
0,0274046657635606
0,0270278494160194
0,0251417724308522
0,0269578539406238
0,0239931811663137
0,0227441101555578
0,0248349868172104
0,0256696587968802
0,0255225484801066
0,0256513846722601
0,0252568475480836
0,0264492240762687
0,0276522301688725
0,0247817056784092
0,0248968131302763
0,0252040604123647
0,0256843717732053
0,0264966418212189
0,0269839458322004
0,027327530728102
0,0276827369071014
0,0262038167599583
0,0270953834163113
0,0290329754615999
0,0301073438948241
0,026162674952777
0,0286327063746885
0,0292992548338157
0,0296206012476638
0,0213668192165944
0,0290513214956133
0,0252082220883386
0,0280310497498702
0,0289856745145654
0,031638741943876
0,0277790065978536
0,0279031627538377
0,0275363364765837
0,0271745800902204
0,0274973992078676
0,0287780370214132
0,0320780842515157
0,0288361775173949
0,0313547532517444
0,0303388216948481
0,0315048841079366
0,0289986703375201
0,0312992756349925
0,0305593635020691
0,0340994704566576
0,0268580119784873
0,0292798466595245
0,0318020923969499
0,0292384223389001
0,0305808569009299
0,0276336798501718
0,0307976767714117
0,0307487573742089
0,028514679908633
0,0318074884498703
0,0334479446449127
0,035863218862993
0,0294423822351686
0,0304700362492625
0,0326164953997452
0,0311474700208104
0,0351671909442894
0,033483776326158
0,0325902394498691
0,0342820352955147
0,0345425176150411
0,036042279224961
0,0342201144532368
0,0364303991425932
0,0348960089357315
0,0422404309793169
0,0339765870307181
0,0377477622739394
0,0367904866102738
0,0406234824479467
0,0368719553049346
0,0378114003318509
0,0351481821842885
0,0392085622546143
0,0353603956759795
0,0400135038773847
0,0388451518397037
0,0426299237851987
0,0418053538448894
0,0451443457761015
0,0420964452861684
0,0418313004240551
0,0436137203184743
0,0457314603304307
0,0446023527303471
0,045765493717065
0,0453329988189434
0,0474548876375336
0,0472624872682203
0,0482021187924163
0,0493990006524635
0,05025214808982
0,0505512139544885
0,0507137801073245
0,0487392335052516
0,0543215714534154
0,0534834028832362
0,0575516226585501
0,0598082037714326
0,0582791247034139
0,0562386309532229
0,0617271918350627
0,0582249374976005
0,0557269103237059
0,0598554030071481
0,0599252149496724
0,0620130451828537
0,0637334096429464
0,0633092935479112
0,0652535624770351
0,061428583295106
0,0672482869681298
0,0640269214662355
0,068126095289192
0,0691515478997208
0,0759036280225944
0,0759617568680776
0,0777789420310497
0,080441130381653
0,077286257918207
0,0871678424275927
0,0892198699537036
0,0942738527459977
0,0895047581969082
0,0943937948728443
0,0967727960541276
0,101815515531769
0,104567652006267
0,108023064618736
0,109729883102493
0,11922258281971
0,121510745895331
0,124485500807341
0,128440717481794
0,141727217194353
0,138731798149188
0,137499112139725
0,140805033202242
0,148834260798558
0,149956991530679
0,155160158888527
0,15690897779394
0,166804028838807
0,163133533365446
0,182018303994307
0,173382511417466
0,181048491331193
0,187595744142166
0,194382788003553
0,192844953028502
0,192205517758852
0,208493504014167
0,206047094506071
0,216956932900649
0,214760236427238
0,220931084000952
0,225132916657269
0,227371726727047
0,231659986035069
0,232341672451547
0,23385359001789
0,236137114911268
0,241240294108599
0,242315767967896
0,245493697779347
0,247819844817525
0,255992014506432
0,270747276705377
0,272559847960373
0,253985640721075
0,249292535822965
0,253241577361543
0,254635875200856
0,258124037463429
0,257738244947097
0,258240547146877
0,262128562007278
0,255148388139936
0,257945671151745
0,257878681160085
0,26087821485478
0,258647908142239
0,257403111631911
0,25927362567819
0,260358472478553
0,259773541524553
0,252437801221784
0,272430193107262
0,256951704057125
0,254950302521322
0,255512840763985
0,259012074837545
0,256301569827842
0,251842079033595
0,248274993110588
0,262279108948324
0,255219323423528
0,25085759084103
0,253238589055632
0,248458469433246
0,249346437629493
0,238885806171018
0,241913561049294
0,240755400532248
0,240122709230436
0,243886714563584
0,236064649283382
0,245704363218572
0,236606783476491
0,23036407253592
0,233060172915104
0,229991001737521
0,22737015802774
0,224881817272339
0,224905355219308
0,227647929750871
0,226010874034664
0,225765220524163
0,226298112835606
0,22123498772193
0,222096049072605
0,222790062748262
0,226340055923334
0,22071021568962
0,222142223765952
0,216035241529171
0,222838780392142
0,221515631889546
0,218720382402933
0,22208131412098
0,220108213007939
0,216721691570745
0,218317619093876
0,217037970855645
0,21639106978141
0,211109899556027
0,217447424855071
0,216536190420195
0,2166451088219
0,21457756884849
0,213487765438147
0,211874382358935
0,213160798769812
0,206759958406624
0,21221825167735
0,212563779401093
0,209317244159245
0,205307589416348
0,206984098025234
0,212265699545744
0,206296153557821
0,202677190815025
0,202815946565194
0,203191651724223
0,199033791348047
0,198232598197732
0,199889391892557
0,19960649212881
0,198671239323694
0,192537105700709
0,18966562919167
0,191386523370042
0,188407349948702
0,186125481550199
0,184560308250149
0,18270324071105
0,185897793312454
0,182355960159476
0,193696328731805
0,173016880575276
0,180423882625348
0,171451781849971
0,174641043077744
0,174928249066559
0,174566112579882
0,162634686258452
0,166667326913309
0,168395643726223
0,163658773669185
0,170532374170677
0,160221415566966
0,16058893090896
0,162723459556054
0,15661570118699
0,165143946886871
0,160967753334508
0,155865793556383
0,161109439427508
0,160627496263128
0,158444320393464
0,158687523775914
0,147791781727992
0,149312897984644
0,149525287389386
0,148612396643928
0,144052444180925
0,146439733722429
0,143863210503538
0,13800795234676
0,143158839027003
0,13822136707098
0,14118941780763
0,137314543387009
0,134083032800053
0,13932753031639
0,13021804900504
0,133078490839807
0,128230818633321
0,137189650637651
0,131578799081881
0,134626803199307
0,127546575011993
0,132574121256946
0,133928923304903
0,130463619298722
0,128512301972683
0,128053636330188
0,126782847867269
0,126581763144775
0,119327280276614
0,126234166302735
0,122793093037581
0,123924018080779
0,117721035581956
0,124078448165197
0,121888385220558
0,123114366007268
0,119788785197584
0,119120277776813
0,117947699748824
0,119964948752099
0,119110370099538
0,125483249312957
0,117420936488438
0,126474933529106
0,123184955278366
0,124854178401517
0,126082819082313
0,125430879478751
0,125818474858826
0,130260865052521
0,129300340815061
0,134716414909893
0,134778470807649
0,137359225526166
0,131313895383739
0,143187362213506
0,138314324503579
0,143302707081426
0,144961336040345
0,150754600419381
0,152040272037542
0,158835067762192
0,159146403160584
0,16155028716899
0,163977143640361
0,170225615610197
0,169548042423565
0,180961540213073
0,181253844074896
0,184153032023163
0,196859052633558
0,193713571797845
0,199650291302311
0,201376860802627
0,20404953389849
0,207748028824577
0,207237792966468
0,212927531145445
0,213919569935949
0,2256818990124
0,223640488339892
0,22209651615852
0,228961711016545
0,230383140133546
0,236582942106676
0,237810644630573
0,239534036058922
0,240080825031205
0,241600266117132
0,245651974458318
0,246710966841962
0,251533490011764
0,249475210737917
0,256099491102023
0,251594310813873
0,257276009227928
0,257316436979329
0,25600923157423
0,256678259499233
0,259467102560725
0,265104938812732
0,260711171404225
0,257260412293177
0,266191928878714
0,2710621811179
0,272446160173738
0,273837092704109
0,277166618450812
0,279643263601287
0,280768313885485
0,28668855973018
0,282660326759682
0,28729123002196
0,289949103944824
0,288705881212354
0,29151070027825
0,297473713039147
0,302544001994825
0,298556062319889
0,303232204637607
0,302838149085548
0,308140670942919
0,308133277196388
0,31117719875622
0,313897166645386
0,313816283251693
0,320284231333926
0,315296206203006
0,326424325012275
0,315738529724954
0,321601068782235
0,325212449050078
0,319899327524831
0,331194014275211
0,323090094566528
0,328014385610526
0,326204595187772
0,327439375953476
0,329799787962915
0,332178832827867
0,326262278671129
0,328497142757693
0,327307452844041
0,331708335444976
0,323935760519024
0,324802226614083
0,327979741704282
0,327722378285144
0,322214056059405
0,326891498958615
0,328982992657017
0,318251927861813
0,323769647583958
0,326402028510193
0,331789584541149
0,326189469861095
0,319903641225561
0,326347549215204
0,327577145428987
0,325077008605687
0,32606640872152
0,324814419544265
0,327785146459204
0,332249242192058
0,328263781804827
0,331164187582231
0,333599172055537
0,335477033251885
0,333111508265597
0,33712246295844
0,340104169726176
0,341501809447104
0,340597104615247
0,340264952336113
0,335715581154507
0,340220409135245
0,346209807851401
0,339759705221807
0,333965356352174
0,338104467661539
0,331976033775761
0,33238070970097
0,32925385157955
0,332540339186196
0,325960793902415
0,322979073857705
0,318059154758001
0,313243642568705
0,313344566112036
0,312629177098534
0,309302209938422
0,30751806012838
0,301964239558319
0,304259528691736
0,299305983471686
0,294330433958881
0,295424526934938
0,288076335708547
0,288645963144041
0,291469874396961
0,288841417813746
0,288555540091782
0,286015868845309
0,288176592372498
0,284528814711591
0,286081225071042
0,282241546162194
0,282870981272149
0,284147477837644
0,281725140412128
0,279709570904016
0,281325137033014
0,28144425091622
0,281713401609664
0,28344268250211
0,28176248039898
0,27998246612006
0,279809050979225
0,278198749138221
0,281204181966872
0,281054509910563
0,280081028256326
0,278764329279217
0,277963255110429
0,278460233889216
0,278199686934225
0,274000236528281
0,273581905947861
0,280617875694122
0,278593436638467
0,275791381332231
0,277871085970076
0,277614336865921
0,276345196854721
0,275534967033669
0,275726969052067
0,277075620592852
0,277742641730241
0,275148595785566
0,274888005894911
0,276003905199557
0,278155660657865
0,272422688718572
0,278232098096488
0,275010768813165
0,275081750682666
0,272463757759187
0,276788090799965
0,273547542330677
0,27173966246598
0,270015698265723
0,272924289759733
0,269066268250347
0,270262605830032
0,267255606381808
0,265145516844876
0,261898584675329
0,258560930956628
0,256133334570671
0,255996598276564
0,251354743683571
0,250168414527391
0,248727519539585
0,246480659256359
0,242547401009445
0,240996231445734
0,241557681252003
0,241590986032467
0,238156709827984
0,238282522941978
0,233343848399065
0,236162630071022
0,234794962280208
0,238277627110299
0,235100987982068
0,233378906367144
0,231879535281935
0,233206917124495
0,233595749769022
0,237321973032129
0,236143875370155
0,237747324245998
0,237285106586434
0,237127578675954
0,238865714347751
0,240756448112972
0,240111772683281
0,24149427060374
0,242900770167727
0,244789733880144
0,245104371955918
0,246391316308779
0,24672605167834
0,243497418434251
0,24686672656727
0,24723292758062
0,2490847916813
0,252808604831583
0,252199753074355
0,253697155153543
0,250606241810908
0,253778799841332
0,251981912877016
0,253408449845722
0,2516798927927
0,251563261915196
0,249130787772709
0,251527014584114
0,250625678283518
0,248332538059919
0,249574265111252
0,247807578783985
0,246238778018783
0,244838103476968
0,243811518860289
0,242708333520403
0,242558230805178
0,241743709983306
0,240195337228285
0,24277551453663
0,240375766786671
0,238846438431327
0,238245284353895
0,236190938983408
0,235710243786641
0,236480745849166
0,232916357417796
0,233677357716827
0,233559007684047
0,231496425388157
0,228604830742786
0,231697240851814
0,231815290437019
0,229202110187322
0,228930750941981
0,226421256426384
0,229063605472474
0,230340976498004
0,225013407262681
0,226373113102991
0,224981191350085
0,223611147782204
0,224268705447983
0,220850679725437
0,220840513977547
0,218448060316709
0,217147484485283
0,216172019649032
0,215999618489679
0,211945758778076
0,210521650620389
0,208949579187122
0,210647776018375
0,207096338057739
0,206160290107608
0,20563096966727
0,203527794441962
0,202865799254992
0,202548158849291
0,203262188575309
0,202221342276797
0,203905927078056
0,203131645211235
0,202627479746933
0,201079763785512
0,199777029359027
0,198145779722535
0,198366666665563
0,196161279645853
0,195894789198216
0,190892518330366
0,190046247369475
0,190919870314777
0,187680238683354
0,184404252115867
0,182739594634323
0,182876923726994
0,182293344068624
0,182611465025564
0,181478196250899
0,185169857770545
0,187223305470993
0,194397337437146
0,198267439899555
0,202445598138961
0,210115701268275
0,217378825700846
0,228248800820575
0,235008854829776
0,245218933761648
0,255845284991381
0,264819918956541
0,276179384068242
0,289463987741193
0,297857706759409
0,309475407883239
0,317018139779108
0,32968747577593
0,341683084879566
0,351958497330441
0,360818953135439
0,371503790014921
0,380689627689
0,385059118461391
0,395714902607544
0,404525628946013
0,408646607797533
0,415332467059756
0,421992284731701
0,428375650766504
0,431137454385411
0,43806830455796
0,445430202415348
0,444761977303144
0,451165732327479
0,452311912014992
0,454837247291279
0,455805006240911
0,458214084274089
0,459375447696409
0,455422136447678
0,458095420290366
0,463651557139028
0,458488163936497
0,461579857925162
0,464498585651867
0,463645833481772
0,465265961463411
0,467893403583674
0,46862564428837
0,470277076169433
0,476145563740803
0,477326676515636
0,478560427697641
0,484913597431853
0,490779494512625
0,497248159570782
0,498183497640955
0,501895285059506
0,513160517036353
0,512390780715109
0,520607301046252
0,527651852123536
0,534649443371141
0,547204102995719
0,548522358979433
0,563793150120513
0,566592136918658
0,572212629553092
0,578570111712693
0,582592782658455
0,586513279679851
0,594429613288393
0,599199513530814
0,598864203217713
0,598865705451026
0,594577690219099
0,594725963205607
0,587786728504421
0,589624422349709
0,591468352838436
0,588042245255727
0,588357710960635
0,585519075101848
0,590417314153135
0,59885247629927
0,598881010211001
0,607212230119979
0,6163683606613
0,630353846876777
0,637816242288475
0,646142978503889
0,654848203230012
0,668535734671843
0,681657500375802
0,688762788601141
0,701190286484504
0,7109538364056
0,718969847235578
0,737605912089806
0,741904935448869
0,754334024294602
0,768326733936301
0,780000052088054
0,790151957106271
0,809633228519365
0,815541926919237
0,833246798350962
0,845137440622621
0,866779083193597
0,865059049000825
0,884595279708221
0,898020552266383
0,915841870005857
0,917733854026896
0,939883297488595
0,951589219462546
0,963998373123358
0,951266613205324
0,976754922244286
0,974783817122367
0,978667961607462
0,995477721728193
0,986064776516149
0,987542990963591
0,983912001119828
0,98357321407471
0,984591770763233
0,980441949810272
0,984180507520025
0,962539302675884
0,961651334150431
0,965911609151378
0,956556954311202
0,95867903506448
0,942644327156902
0,945963948594047
0,960484022400608
0,952301094552298
0,957741755749358
0,949787656763065
0,968642972218725
0,977777598839051
0,979678196946919
1,00004112802557
1,00389738323028
1,00600577547328
1,00701753993187
1,02276091500731
1,02476280688115
1,03317962852186
1,02725164034641
1,03518549450837
1,06561430319447
1,05087923395042
1,03821473902332
1,05310975490271
1,05543814153617
1,04761439313898
1,04823480762473
1,02074908636815
1,0526636940969
1,04637978733351
1,02458204465368
1,03353586493051
1,02320340106801
1,03032389883113
1,01370700539983
1,0145086094932
0,997645351591641
1,02027114232558
1,01162094820593
0,995294388485854
0,983921098262361
0,985193546268808
0,972387811713821
0,959997558447054
0,94754379863294
0,941744021716797
0,923543789230431
0,902772339792416
0,887219647435088
0,84297248443123
0,831835865148855
0,805943701043622
0,780759848793984
0,757183788753937
0,730858840286059
0,692379219197151
0,66215711767821
0,645265307683172
0,619851984752453
0,596834108131509
0,585914588536644
0,563281001067532
0,547482892076369
0,544647570247531
0,539788604854605
0,532533744275846
0,522621599375194
0,520336585101783
0,520221147404533
0,513398241392334
0,508728113309075
0,506250173540165
0,497679359760459
0,485252442718614
0,483635265042261
0,478233043315739
0,471141804068162
0,459086484567334
0,451695191109607
0,445936147777157
0,432276868237965
0,415671924789823
0,404751029464698
0,393047815894044
0,380597216272196
0,364535535773558
0,351035692222659
0,336395170008269
0,324441707900902
0,306962180907482
0,292539927972549
0,279885282353011
0,263447497360456
0,250130110209884
0,241837151179042
0,228363301772126
0,217677575890601
0,21144364295245
0,201144358228689
0,19411810171933
0,184519942461703
0,180936050854645
0,173340678193067
0,173843648451476
0,166645836123645
0,161170822067499
0,159556016170035
0,157453529735054
0,15417760632667
0,156222765817036
0,16001322890158
0,154105649590563
0,155417682165321
0,15467001208199
0,150937027766427
0,155781876398316
0,157396061929842
0,158141479248241
0,157825417370587
0,159706345446941
0,157467338044483
0,160399088573371
0,159623403738407
0,162506725135342
0,164264917557156
0,164322785335157
0,159016551049573
0,157904718988692
0,160572049213125
0,156240574546818
0,154238416469303
0,152926438279773
0,152957404316022
0,149172985128905
0,151889070906781
0,153066999888176
0,14583192544949
0,149203414392883
0,15125854719938
0,155218105817718
0,15421270405848
0,158498513037951
0,156250525386035
0,157762662398236
0,162106791715757
0,165379253815949
0,164223193025705
0,16388424297071
0,16590753500436
0,166264780445447
0,167883906101935
0,167738871612319
0,172180070032312
0,175161351815008
0,174969118250915
0,178333905271239
0,174545686109149
0,17776204938075
0,175436294748663
0,174424975435997
0,177511896559645
0,177972691528669
0,177923446824976
0,176348996913294
0,183143150776061
0,187283507971455
0,189810596363897
0,191676443078362
0,191222874285032
0,201416986373733
0,204524367009533
0,207196584474409
0,215887674335184
0,224446097979291
0,229818129020283
0,237844188447028
0,239118064482218
0,242586095105913
0,246676764565691
0,251549415793651
0,247966955981759
0,247461151595949
0,246024095206797
0,241364556059937
0,239120272146031
0,235844229937343
0,226742357095457
0,221371876113301
0,22339232528647
0,213243596025288
0,214494527108641
0,212923740320018
0,213913848287219
0,217005133531869
0,219095959415399
0,211568515943393
0,212074556214706
0,217770680487794
0,216204742774639
0,215153109705104
0,211137872012897
0,204764294695523
0,210159307347992
0,210158123495185
0,204585854102851
0,198989279761565
0,189832969332196
0,19915992329043
0,193377311722548
0,192798026424845
0,187796393761113
0,186740959418484
0,185481759433172
0,188650679042963
0,185700269452883
0,185851527832526
0,177346721708901
0,180722115309465
0,180969918578491
0,181873158496038
0,17202429556927
0,173725789926078
0,176269808523391
0,175417122951927
0,177471037196433
0,175564601428434
0,172736739384579
0,172448654794335
0,165607206521515
0,166165286565329
0,169734783500222
0,169981276170882
0,169451542174666
0,161417631488863
0,164043922613
0,166597909051573
0,155374596597112
0,160758207690186
0,160341648192301
0,159602504498948
0,153542628575941
0,152427357642304
0,158867754836508
0,158840318076063
0,154064964248768
0,156168072633397
0,147597950248265
0,144031646633112
0,155348722932727
0,156337943590598
0,148808048886872
0,157798088594223
0,155784470106329
0,163161672897573
0,160618510342342
0,157017182287751
0,162181269844561
0,15456507522578
0,156692504379406
0,160752702977703
0,152998930648489
0,162921553811107
0,161037005393712
0,160050549954874
0,165108114663488
0,169437013219759
0,164536291320634
0,171791381216638
0,169689237674629
0,170014264737846
0,175274366255177
0,172485435104656
0,173827609679557
0,186947478353915
0,182173244578396
0,184245951029493
0,189214513755045
0,191610059277197
0,198371171588266
0,20700477359162
0,208230619105939
0,22056226532377
0,220769256314623
0,229703907851057
0,233424206436102
0,229975782892418
0,247370114010353
0,266179985586435
0,258731040478056
0,262608487654717
0,262423056821197
0,286550974554636
0,290127924451342
0,301020026238166
0,312469613929298
0,297874578929429
0,300579609015193
0,305577306039918
0,314881750157
0,308777180671468
0,300708750068169
0,285442709280815
0,293392824379221
0,294039588376089
0,292733997922249
0,290875245861008
0,278283745731193
0,282535569672577
0,287759752798605
0,295984700228401
0,298813582680628
0,293223348949531
0,27320162771183
0,274015234586472
0,286866021869211
0,271956010687618
0,276724604072387
0,278427638549832
0,26246483975851
0,270002629483869
0,26139821939245
0,259667355951014
0,253402990550184
0,26674077532218
0,261903646674146
0,243364018378072
0,237482660753787
0,245417844742962
0,237372538613716
0,238616864641716
0,252410239431432
0,241453537012828
0,236485637642599
0,232358480888045
0,23941950225701
0,246617898232702
0,235682238633503
0,251254037588605
0,234758082276976
0,242237843832117
0,247662853852766
0,24451917393124
0,255670968449469
0,248850036572735
0,239075215971821
0,248232237381651
0,232702990824198
0,261053763862061
0,243612740420543
0,256268079129346
0,249531288874718
0,239854505693285
0,248915238171906
0,266494297852865
0,260408194739294
0,262553881357108
0,249348816556622
0,25384587136988
0,272866875671718
0,282745207003147
0,2882130393846
0,29690520951295
0,305129710718223
0,272028107809366
0,250656714085104
0,289749805083263
0,299007921969086
0,260217078732168
0,2986352783694
0,304852272893352
0,282227394984383
0,311795854402951
0,337641439347293
0,350606915583626
0,342289814123696
0,369546102054956
0,399386801024625
0,377550884731848
0,344724812628721
0,354274325048998
0,373556989557511
0,361397873014753
0,318430469005012
0,387544065464548
0,337514317779901
0,377563483609942
0,383543469614845
0,321544845213105
0,320496744738928
0,336163489312088
0,331754142863116
0,365524855025543
0,364504374763122
0,345950861786998
0,298295288469389
0,327554258412661
0,329440644107864
0,35661276465599
0,339817747109305
0,321158848765051
0,333393209190197
0,305750847801277
0,29870597573179
0,362683706378718
0,324141739120483
0,340985386444092
0,32105850232984
0,342429832153426
0,330847829468636
0,29463817957848
0,347040276373641
0,467465006151952
0,393189511266388
0,331037926880293
0,369679777839754
0,33320132731069
0,328673832174803
0,365461405226815
0,350824330283588
0,341367815807957
0,250320871010177
0,244302380878128
0,315910035066109
0,418203981368327
0,317194950516491
0,217370981924071
0,295238209710527
0,507338516951188
0,525383972451516
0,390459979308835
0,33439301139209
0,285749936833946
0,321548828573915
0,473438548071375
0,325609942467569
0,502494394334451
0,504470246879664
0,334293177128958
0,405101707848296
0,392666077521901
0,201538853312622
