3596
4000,36533379555
650,420452594757
1
2
2
0,0116782814224073
0,0101492947504638
0,0156047374887182
0,0118342015595033
0,00877293558784225
0,00502945212037779
0,00980266884924816
0,00693299842984651
0,00573192221767929
0,00758585058089889
0,0131850860554528
0,00500994367022537
0,00916887638394455
0,00490789166678558
0,00880234997422396
0,00467035966606219
0,0103554744076124
0,00412438072825949
0,0105235384400511
0,00311853995867755
0,0155651647268749
0,00116766836897084
0,00124544015404882
0,0127500461148016
0,00606246312677911
0,00886263632001991
0,0154787014602595
0,00288368022473007
0,00959847603946766
-1,81187524346895E-05
0,00833756404472229
0,00793764799736756
0,0105402261011388
0,000413030266029148
0,00996870684068507
0,00508843119498764
0,010345116324764
0,00707710889855625
0,0125004360370548
0,0108206115959014
0,00815407680358249
0,00352965633800301
0,00552667931170677
0,00408272456538867
0,00554606525000051
0,00476543771097544
0,0156764730847389
0,00853670995322582
0,0124399066234478
0,0110768982539244
0,0145274363580792
0,005606985838504
0,0122076886630868
0,00770654896034958
0,00393425743608773
0,00975402180405586
0,00693005990565374
0,00146343172007909
0,0092307722653959
0,0133545599708736
0,0133761440051845
0,0146225836590308
0,00506313559446214
0,00528101851444278
0,00621585179674793
0,00599885480864241
0,0110306313020509
0,00431252712438627
0,00376371624464256
0,00602991976897559
0,0149593470146556
-0,000855763393366547
0,0215679298406748
-0,0021930322939439
0,00405378204735672
0,0119278385938394
0,0116426055746385
0,0059853799485392
0,0103028562025349
0,00869474475310542
0,0130008595994994
0,00529766157671033
0,0186434182799789
0,00606632684681163
0,0115404402430861
0,00683921509615436
-0,00336508212475928
-0,00764279862614311
0,0142300736625172
0,00265864732602765
0,00228292969216618
0,00182120652145561
0,015202686994745
-0,000366718398936789
0,00923973622804238
0,0101272939267543
0,00839730674453375
0,00207568800790781
0,0102545903696289
-0,00205739025399674
0,0172604715666727
-0,00228022615134195
4,58769422873804E-05
0,0226134611760221
0,021942943864634
0,00718055491717366
0,00584749070110915
0,00930022878331084
0,00927428443550486
0,00266957729819497
0,0133359023668746
0,00280918711066551
0,00701143936065534
0,00226485114222878
0,0176333045002606
0,0106870770620241
0,0133919901408827
0,00798833577891747
0,0102525826079304
-0,00950712361658726
0,0214146322501779
0,00440312872523139
0,0036369567523559
0,0022696195340807
0,008714738046545
0,00577331579647716
0,0109746674687847
-0,00224737014503178
0,0146090615939848
-0,00488002257329371
0,0101916960479286
0,0042917638013626
0,013849813854427
0,00962280540223638
0,00176003772133631
-0,00413323075580362
0,0069479665448424
0,00522950767398518
0,00722838289783279
0,00147735769192218
-0,000980194323658087
0,00568638628155392
0,0155646370588464
0,00849844647191735
0,000672121110072426
0,00204351286962384
0,0133980447432649
0,0116905702627277
0,0107292361029262
-0,00273938965137763
0,00182419919107518
0,00864613767354672
0,00143637971389091
0,00156238489606524
0,0248838794077527
-0,00550047527778502
0,022759276509399
0,000766665464031279
-0,0107684555148193
0,00457274262615749
0,00232207486920641
0,00150123942127202
0,00295071141540219
0,00767657939086012
0,00529906145846144
0,0127914119514983
0,00744820467097869
0,00487769453161458
0,00917510715688302
0,00727502291737669
0,00387363345258724
0,00139067933967308
0,0165369031147842
-0,0122442638055466
0,00765026401276621
-0,00630224726529161
0,00851650689971321
0,000390496171904445
0,0111268406715854
-0,000784277289835463
0,0103976784406428
0,00654703902996081
0,00908822116294961
0,00389847796230004
0,00721219325480388
0,00814285768698239
0,0121969215793923
0,000701392027144771
0,0080250510242167
0,0146519588541928
0,00869109797232823
0,0045784287399186
0,0113675655007144
0,00987746777532016
0,003655526911345
0,0170619697378571
-0,00377277448703652
0,00249952047525123
0,00671826113879668
0,00699669878032857
0,00971473280487305
-0,000553425691961952
0,006130481925576
0,0039526645398169
0,00861408647038446
0,012493387804263
-0,00418838695323384
0,00706757728840032
0,0125273418390345
0,00587604530698956
-0,00328442862534973
0,0140319274596878
0,00478897352039934
0,0129945926123066
0,00144522827588428
0,00900156109615575
0,0072545084553228
-0,00361327997853451
0,0011311813598151
0,00902804383672713
0,00162272537608087
0,00617910409492245
0,00273743746029336
0,0108449550122401
0,00950019826480527
0,00792762949432554
0,0109974674915005
0,00717184174586334
0,0112377659680999
0,00783003257298494
0,00385715003373562
0,00355359305451586
0,00806943756097881
-0,00326457212974973
0,00851814607967325
0,00592423837794691
0,00446787051842815
0,0159282896409922
0,000542779317416622
0,00345810577879765
0,00533517197417203
0,00423047736133885
0,00438925621198791
0,00744717403012107
0,00393574572116202
-0,00082543897284353
0,00724869636040209
0,0110970082990244
-0,00418416765239704
0,0113912720368164
0,0105158341593803
0,0118889739370132
-0,000259993721907182
0,0108942240831034
0,00948549046441466
0,0159260930298541
0,00670732316787026
0,00674698050441829
0,00588379238385881
0,00994048636209112
0,00663902452091138
0,0100911584377275
0,00405585743102843
0,0020939834705121
0,0237087604897742
-0,014255390420456
0,0118042992708419
0,013640475794525
-0,00579449197287664
0,0112196813529483
-0,0010415574228682
0,0123113736600195
0,0291324871210577
0,00643864012445267
0,0111778186809317
0,00727483084420945
0,001902012717353
-0,00220568356868786
0,0068896545541308
0,00558029404191798
0,00617149721749003
0,0111338984921754
0,0187316371442931
0,0219205025548312
-0,0103597142417393
0,0223806660141999
-0,0103557746372453
0,00554790274953228
0,00594267850265938
0,00531162332858315
0,00416459193957224
0,0171240069008611
-0,00171611960864359
0,0102289996206918
0,00302665139881043
0,0102105253712237
0,0135113400490707
-0,00207732144548888
0,00450593883394981
0,0106232404830189
0,0128500811618828
-0,00176941102088695
0,0110263397933479
0,00490091494774498
0,016178586007997
0,00221592528676225
0,00811378392638113
0,0183989464610752
-0,00124558354858917
0,00953845328836737
0,0180223351761623
0,0049600466800072
0,00533390224996745
0,00518631039758961
0,0106026587803909
0,00799563471888297
0,00834466532802425
0,0131853961497663
0,017461185042979
-0,00505784806622871
0,012976657175476
0,00430670706567374
0,0101150555659225
0,00846075620411997
0,0101222807937565
0,00823471714068312
0,0125568286324143
0,00580267481182268
0,00611150300760377
0,0148562725020533
0,00722835157835111
0,00456014102785228
0,0290997209467726
0,0122140399485144
0,0156465298113525
0,0104974934402343
0,00590215011712432
0,00979316383813885
0,0124476357350403
0,00990722631608915
0,00892154824780908
0,01669468176156
0,0163243331391192
0,00738802882611069
0,00645547275128781
0,00901324522763306
0,0153552692100273
0,026182720737763
0,0118195134225899
0,0154585496684956
0,00845619699288429
0,0207608561234823
0,0061373858419044
0,0254635449102344
0,0200241421791746
0,00895868016742154
0,0211228032417329
0,0155886132739113
0,0182359786696837
0,0104419233626096
0,0227341626896364
0,00811741377627324
0,0242797293702152
0,014520766262945
0,0161619112864425
0,0216644132698982
0,0213632271754284
0,0223116293515069
0,0230686430097112
0,0186159218093887
0,0186192427020816
0,0142725661325523
0,0322580894685987
0,0250201565203809
0,0325606729153677
0,0315605520789737
0,0232444039658948
0,022149388628885
0,019851607817161
0,0299137333568944
0,0221137731974037
0,0349318442207405
0,0277362469825017
0,0256890451133584
0,0332676003642903
0,0374258460638321
0,0282711270324345
0,0349277580703337
0,0321690582077551
0,0376984528484602
0,0280361647193478
0,0442852756016402
0,025796936031971
0,0380131807005567
0,0371451457550529
0,0475259213051154
0,0361651027669581
0,05658592638399
0,0341385101668684
0,0376284439766636
0,0496786276013943
0,0468725148650692
0,0482506791867156
0,0440323815782897
0,0528097171340454
0,0435393330026605
0,0533396179200586
0,0537036499804242
0,0542976456243602
0,0640482935746168
0,0373409004256589
0,0568645737026596
0,0431826474571315
0,0603536530169964
0,0644051534759621
0,0488060005687049
0,0562004421329659
0,060877984142519
0,0602203109987005
0,0560342793094155
0,0749255766772422
0,0585250971582355
0,0622352290859415
0,0681783168129771
0,0670505119044238
0,0648603727671295
0,0771418022489015
0,0790712895957434
0,0788830071526007
0,0757602940539155
0,0757612539194602
0,0784184736177964
0,0816950027525016
0,0829665127764741
0,080361503812219
0,087029823735406
0,08392649226889
0,0819482723812571
0,0769995530427622
0,0973587220859209
0,0997066134318169
0,0941661383911395
0,101433028000422
0,0887219322367324
0,0949409007546449
0,0916391688038949
0,106150799154258
0,106959617115694
0,102685456763901
0,111776050178517
0,100444710720395
0,108351222915694
0,111824591834883
0,113290265934794
0,11220422830364
0,127628402960774
0,113852837765816
0,123405304601689
0,114978457241249
0,132967745965825
0,124095537231741
0,138480958166953
0,142914006873831
0,138465806268459
0,137166297161984
0,134134133747228
0,140226248096693
0,129210189725962
0,133832877747778
0,124792957558655
0,143176581068702
0,150570253328671
0,148144507334512
0,15637434649242
0,151171801064519
0,15483802905642
0,151917167212926
0,165844077067573
0,167014779805145
0,155240795591476
0,16685088927411
0,16982694336383
0,178146508472601
0,172663281392452
0,170592891688464
0,175737687563471
0,168872082145874
0,189201250592242
0,170970482943955
0,189148813088931
0,184446479227513
0,203899258438266
0,187040174458006
0,204095537099625
0,190969347016861
0,201652045098724
0,203017651457365
0,215809646774628
0,212099790921491
0,228357797373674
0,205584825591929
0,228033707202143
0,21812562258236
0,228768989547809
0,225915019359136
0,236824614567844
0,22858208693601
0,242423211922563
0,222848383788988
0,219192075949064
0,223285466855126
0,246606160332416
0,242625982590794
0,254497596823259
0,242064425169698
0,256831985385291
0,248576316227883
0,262620933593182
0,261549202154669
0,252940269836686
0,251896282953158
0,272263085207025
0,27793275547901
0,293920388784364
0,269094915870468
0,296001936013396
0,278593705992984
0,294606960271643
0,274094371080975
0,285707927684304
0,309037584968936
0,283247368694432
0,289774244918946
0,289838214711351
0,291281943479359
0,291539035831729
0,296761030761975
0,307065771326956
0,294939770355911
0,312384742821859
0,308853702571332
0,308133216292146
0,323169860687967
0,333837831836768
0,32374783637756
0,331903217897458
0,31877476080283
0,361941613819974
0,3232457646914
0,358852557500697
0,326470220087785
0,33035134886391
0,338469270670891
0,348746624384081
0,340267738336907
0,362264377363302
0,352788602990403
0,342717411481451
0,342470439658802
0,368117186477018
0,355800235663088
0,35874120856851
0,360844095471806
0,385141769360778
0,352962541884798
0,38777567286948
0,375040458289745
0,367519785279449
0,364135603052707
0,381158404698973
0,363458349667121
0,400800801429751
0,386118295919539
0,379272542809807
0,385843446207415
0,420047081581317
0,394940271386269
0,39851822146363
0,403365055887697
0,411739974175908
0,407685685397053
0,412035712058788
0,397385064662227
0,4293357054596
0,406062479766936
0,44699484976374
0,422212586829833
0,436026637704218
0,435944015934152
0,446322208930108
0,408780556226407
0,457321862155579
0,414384339834488
0,448419006043176
0,451059610787478
0,475962174741803
0,421735892442026
0,462463717436875
0,436230733333473
0,447594975034546
0,43233954736028
0,458905604568538
0,418270110320797
0,462710029607226
0,441578220855941
0,47757998950739
0,464725085040235
0,464524712828192
0,455949942686757
0,474593268207173
0,461825990235513
0,483372981318824
0,471573512448882
0,469040446965325
0,475290732105988
0,494163248912938
0,496850455848567
0,496703957266089
0,488321585160252
0,490694595192559
0,495286085271017
0,486254485911496
0,490378455947442
0,491765735864999
0,490252343993987
0,507589931000822
0,489392358311832
0,490762674914138
0,497445718173914
0,515743418386866
0,505770704683452
0,512976032835651
0,498755697048131
0,51299678749575
0,511660670610504
0,510424857755616
0,487335061794378
0,532638998575156
0,498959732497319
0,531161658254703
0,480153388597159
0,526522841590674
0,519451318657893
0,536402581172831
0,526545990078017
0,548528468238223
0,551174196391527
0,541067772089797
0,520297045737945
0,553331991807398
0,527503369372243
0,55838154343407
0,535655210763205
0,549406481154988
0,532895081137146
0,546014946640996
0,526696443061643
0,545979877110401
0,533138595775651
0,548448173199319
0,536461675067545
0,543890253840467
0,525262249135933
0,555923336388551
0,528926181659713
0,566738870037605
0,516055311700479
0,594724187050849
0,551333123284323
0,560047828825203
0,539258690496377
0,558015556252449
0,55264117041129
0,553120444490531
0,532099385391312
0,556474567052078
0,538862239614247
0,553098678421198
0,546694113798173
0,584397784046705
0,543654361976221
0,582372933242426
0,538051417382043
0,576569708378214
0,560776809563211
0,551146066805237
0,54502925702417
0,587954517021273
0,559631602231563
0,575272293143498
0,551052611805844
0,57041060970029
0,550384262475839
0,558063183777372
0,546465621069089
0,586283033380849
0,551514339316807
0,579220293548764
0,568790706338916
0,600469165175473
0,567536541552237
0,577537951919333
0,546270876724264
0,587229417314743
0,541795051483764
0,566524358929587
0,558354367550055
0,56749803579637
0,558579427027385
0,568708068150655
0,554561335820744
0,585203134537273
0,570039413635145
0,569323375100558
0,555098110867214
0,588540922305845
0,555870411702033
0,585651739628705
0,567002266143313
0,585032598973962
0,56703302618726
0,576607512308003
0,533745770332006
0,571004922082985
0,565221973181828
0,558556729945926
0,554339583333351
0,574633458509691
0,562258285846975
0,571160681839326
0,576952595597043
0,574785596503765
0,541895647613706
0,58130646636586
0,547503802761225
0,569630767870362
0,550544637487767
0,560552297499513
0,551986410184843
0,550746058396947
0,568529763461875
0,571910830174296
0,547113412111716
0,555023714778699
0,544792880130402
0,564664133121896
0,541365766443258
0,564533133696442
0,550984492768275
0,554132035538678
0,560652972381231
0,557095996273257
0,538757642144244
0,548004805871713
0,568551644342149
0,574509632412301
0,542256162848374
0,549151363859584
0,54717598072865
0,539677571877319
0,523479867775643
0,565773129721872
0,546336205239018
0,556490351081926
0,534846610396279
0,548845319750458
0,528274124615323
0,555308509682227
0,522990903413504
0,544683363121889
0,530525903151584
0,540032138290603
0,527991835921199
0,548390487131928
0,515616118009381
0,532319139997688
0,520740174008559
0,537386140533627
0,52462225567254
0,537232471010505
0,511318516996906
0,544433192605919
0,523641179383826
0,535232846197449
0,522975760588848
0,53010422036654
0,521628562336341
0,540389861536728
0,52078680034498
0,525752553947983
0,519210724724838
0,537942824575585
0,501070018664464
0,517361921446915
0,499103757257948
0,528323759593292
0,498874740078981
0,518979295091116
0,488800075338713
0,503833165874203
0,492544893183502
0,500570469131991
0,492940240709648
0,514400288397902
0,489802598199941
0,517934911687563
0,487521326409523
0,490565414977348
0,47574791530048
0,496193337208106
0,491486589621406
0,506912815363732
0,492220120648296
0,487988666904648
0,478009857928217
0,489837465775997
0,473615544164415
0,479539716884797
0,47531849251214
0,491441719456452
0,462493183465815
0,476132217922363
0,471929451867972
0,484538674036686
0,461402336746824
0,481963162341666
0,454577781892061
0,461543533740731
0,44774135049558
0,469165463437797
0,454503318940763
0,468413342183525
0,45515485207981
0,465398491640174
0,450897663191751
0,455366875110606
0,442617364710499
0,436955814154515
0,446318696169465
0,456807273656051
0,434183702286428
0,448931253998445
0,438409378584597
0,440617325305293
0,444636663665052
0,443613022965447
0,424580565060275
0,432101204679959
0,429483697413837
0,426023110374927
0,412978597571654
0,4341561783205
0,418730960688664
0,437293929449127
0,424221853117857
0,426163380086663
0,417150625924272
0,419291978394881
0,413231911913924
0,419665656024411
0,403449000891534
0,408711408046991
0,391652757950841
0,404340528614305
0,401666467284179
0,407455003647422
0,396807152113885
0,396355767388394
0,396572083594957
0,385176235401434
0,383343762039624
0,39641078379604
0,388217910058172
0,38782940584842
0,384888843421625
0,391257380476555
0,388541737550719
0,385939729208825
0,366289341097688
0,373226192387492
0,36820689940747
0,380445870497786
0,374032157811042
0,372930611958157
0,362825758597322
0,36386260910831
0,35683921087134
0,357805515356749
0,345893691278033
0,360280799749387
0,350422352174083
0,358296093855904
0,351205729435305
0,358311514584192
0,343637522216065
0,353170303244879
0,340518832508567
0,355663241107241
0,342180246089072
0,336327285491806
0,337573144762034
0,338684875031997
0,329627685373874
0,330655794931676
0,327188926584266
0,339636137570741
0,327112871998154
0,33016665602326
0,324809164101778
0,322193696610955
0,320804847442777
0,324538134868135
0,316291496734898
0,318995345332811
0,313925294831618
0,315802177715086
0,306916511594766
0,311825496792678
0,298721090846429
0,306701795453848
0,301434694091489
0,300683289959606
0,291357266928911
0,298188820323131
0,290799865977873
0,297711163480149
0,290949639420903
0,294052128182107
0,283143686296987
0,297311069609801
0,283992423289631
0,286939125635206
0,278626389208801
0,28286718842836
0,280266785345626
0,281848932801718
0,274160211670782
0,274193878399377
0,271884306069031
0,267245712876679
0,265365059042619
0,269211540617898
0,266292083366622
0,267169631638176
0,258800979224416
0,260736279893206
0,257970750291031
0,260713119795584
0,259205175512523
0,262164933958258
0,253898925339609
0,251501775167974
0,252926444032638
0,256553131966495
0,247271539319971
0,25264983374747
0,252044126748182
0,252417895930169
0,240913635702244
0,239888314848822
0,234621584799391
0,237761298080611
0,232222759899758
0,239484506085234
0,234293985565965
0,23331490820941
0,236432575005877
0,241723846769952
0,224899316212708
0,225820008345564
0,231625656036819
0,233956045143694
0,221224141409585
0,221761154781761
0,215684575889811
0,222722419282942
0,219013954582947
0,217646585848687
0,215009197114001
0,215119459550467
0,212189200144887
0,216387591184199
0,213859146839931
0,21075133790249
0,207508746298849
0,212921438651896
0,207671329544442
0,207187174064292
0,202281719651349
0,207341532858617
0,196938797926573
0,202947711305354
0,197504784850543
0,195501067173712
0,197570879343494
0,19978576582515
0,19223668727866
0,19894554228038
0,191187627337492
0,190728176494402
0,189129841199496
0,188489141360959
0,18803653683756
0,195577477579252
0,185077048007303
0,187925052295994
0,185107796118731
0,183319946109142
0,184916425878649
0,18538843370149
0,181257241734884
0,179614244477488
0,172575261044638
0,173256090343283
0,176036785798542
0,173397307431059
0,174090900827265
0,172675930977345
0,16920338067136
0,172156721662851
0,170192170420067
0,164965387149022
0,162510522206409
0,165433440302552
0,162441302576071
0,167241074984355
0,163035584812388
0,162195048917457
0,161579579352339
0,158293085991569
0,158149304152725
0,160033178439203
0,155053208153703
0,153018974696498
0,149623954316167
0,156704919816465
0,151965340323515
0,152950799783248
0,151005027500098
0,151477352814503
0,147812437933961
0,147887542758517
0,150354326978273
0,152557009467554
0,143768624962042
0,146858449358744
0,145761195828225
0,147139127333003
0,14535035942923
0,141033313080104
0,143764271514674
0,143429997904881
0,139710650115077
0,139779852769873
0,136805818196712
0,138936233912435
0,138140660921052
0,139641644017399
0,131237094271131
0,134828787684263
0,132894671609603
0,134009371593796
0,131683408338494
0,134248920416863
0,133533785615419
0,130182341966892
0,130055956128523
0,135813732448196
0,134998272112751
0,133817193160646
0,129460477387298
0,129465741976198
0,130703478430725
0,134446169655556
0,127227724357176
0,127725858403383
0,131633932513097
0,131543291410213
0,126685786974965
0,129545516140617
0,130288760991201
0,125956167840327
0,128086429357504
0,134767145277644
0,134914018843938
0,133522789129065
0,129331464522222
0,127798724464852
0,130474211006253
0,132541076523862
0,132750598069971
0,136874487554918
0,134114425688281
0,13297731638311
0,13540167660108
0,139222860749966
0,13724869095181
0,139561178877718
0,13539420569154
0,139433886282264
0,135688397527752
0,137323154899287
0,146109321246314
0,147666971676196
0,140446094874429
0,143037980780683
0,144111009778923
0,144810241355636
0,142997230589591
0,146934632511977
0,144332519816903
0,144724552793651
0,147965131810159
0,150634788076171
0,149182035471995
0,152566207280422
0,152467394001964
0,155346106903751
0,153821108525406
0,157785537103617
0,158175917370031
0,16057879848205
0,160720428198729
0,160626471654047
0,164423006585142
0,169887093314764
0,164296656268743
0,165824406572242
0,170782796536593
0,171837123978057
0,171504545894764
0,175492945489599
0,174354618421458
0,176667307374596
0,179684259852597
0,185381566560426
0,181392383244078
0,180638974757082
0,18412751213588
0,186749158746395
0,18523335564426
0,190517908723035
0,185480282854628
0,184907836849204
0,186701084102726
0,191911948517486
0,18673859080169
0,1896203946748
0,190188379267429
0,190064641434624
0,191137465271766
0,189498619750237
0,192705943949481
0,196735973820473
0,189753964414311
0,189130276957433
0,188492733571049
0,187776088459463
0,189442096969079
0,19630249642887
0,191105852331432
0,189189705165733
0,189038648039476
0,188205501940469
0,189656141596503
0,194498764267749
0,18865692410123
0,19030751470873
0,191729152961774
0,194038561029874
0,189475596175161
0,19206665009578
0,191667388593299
0,195146048019852
0,191117982281924
0,188825338733674
0,192994800247334
0,188442707937737
0,185250433804411
0,19358341638994
0,194944787385622
0,190794428548362
0,189468789583271
0,195407929518934
0,193186106928422
0,191891066326313
0,193507512513524
0,197148279291867
0,190759019385641
0,191765731457136
0,194512685587651
0,194700051519562
0,191272982685981
0,189090484307064
0,193242907298512
0,196304196502164
0,188990210859218
0,189835896886407
0,192585256154964
0,191360305993114
0,186363702762923
0,188912439799088
0,190994167433467
0,186191659554537
0,186251849450051
0,188977366003082
0,182697475610475
0,179459729306247
0,184565680092364
0,180741659013269
0,171296257895814
0,177882159784753
0,178399179626329
0,178984593474798
0,176422456926251
0,174914732204739
0,173828312289319
0,174568334988361
0,1675445581355
0,166350771943603
0,169918490928721
0,166590925877564
0,163007854032613
0,162268825393086
0,160563433563295
0,158050911920181
0,15621771639513
0,155110398618829
0,157207833810302
0,155361689054635
0,151012436052695
0,148374034631979
0,146301893122605
0,148492133004026
0,14178906044168
0,142719913627223
0,14228427618384
0,139197617108692
0,139729733822605
0,141039258146319
0,139555204391869
0,135694090280649
0,13468579315543
0,138487165561887
0,133340598080593
0,135142223667075
0,133390436961406
0,129806447464232
0,131384474044461
0,130878036798585
0,124036931252896
0,126768083040565
0,12653267728427
0,125811660428058
0,125495954366359
0,123736149792157
0,118541641102459
0,122388597644787
0,121703777193272
0,119800672716177
0,120122041253059
0,117869416018319
0,121366855390076
0,119175354580402
0,11355830580291
0,117162319499723
0,116884355576324
0,113719505602216
0,117219939112135
0,115109690636374
0,11289924313438
0,11552219534966
0,113562570253921
0,111072721480667
0,109436862074146
0,110777292190928
0,113928121617987
0,112412359206169
0,105338993364022
0,105050932256245
0,105487937362601
0,106239591744954
0,101954703678777
0,103065452525994
0,10570210156693
0,106279757009897
0,104904994877796
0,107269694884292
0,107073554390299
0,102904505566257
0,0997779760719384
0,104271906465083
0,101696364717386
0,102055083094157
0,102074671598255
0,102450516807827
0,103858820852117
0,103423696676721
0,0969258466388445
0,0959641866640757
0,096261838631513
0,0960320497139924
0,0958657927692
0,0997598383841812
0,0973938449980442
0,0974518288443706
0,0959648375823199
0,0935511853457933
0,0935853048236866
0,0942634616067005
0,0945231535006154
0,0965926727800567
0,0946635928041129
0,0955357223749357
0,0952820715413157
0,0938613259863627
0,0898097032652149
0,0870696628970907
0,0893306898371858
0,0919083236994718
0,0934835141058039
0,0932243411310964
0,0913392406656364
0,0915186314429685
0,0870926373977314
0,0873034989225459
0,0909978928369594
0,0873153101670995
0,0868795969726201
0,088403297820071
0,0878651810689043
0,0891010149454837
0,0864229172278979
0,0866138706274372
0,0854343798302395
0,0884780678965957
0,0871678393623
0,0864556568150881
0,0838059069380395
0,0871906267792157
0,0884477338004014
0,0860880772885208
0,0840891569633574
0,0852040551909154
0,0874544382538376
0,082845825521837
0,0807401288243324
0,0828711991078569
0,0868583957306587
0,079276585822724
0,0837567899702416
0,0851921935857488
0,0812257222582509
0,0844297999631124
0,0819339883022634
0,0807887294169171
0,0830403176903358
0,0847627385468065
0,0827657088375742
0,080999144421895
0,0824136039479442
0,0817979927009769
0,0818187637020993
0,0804122741443223
0,0795482792084942
0,0829447248665059
0,0804372807393169
0,0832677578893738
0,0824473559953966
0,0826758152737021
0,0839147623509375
0,0858663482822909
0,0806208792683053
0,0758949989746515
0,080620522672706
0,0809727453582094
0,0763136643199963
0,0776657598529439
0,0807517647987894
0,0768851149738206
0,0790469903940184
0,0804292837109138
0,0805530925258738
0,0797030651091383
0,0759312472772271
0,078068501983723
0,078717220105346
0,0776672551644338
0,0788501215870182
0,0772313289104822
0,077410396060404
0,0781278410910547
0,0792369226574609
0,0771358479483797
0,0750478583223033
0,0761645133984607
0,0725231064385713
0,0764632686260859
0,0770350200901293
0,0744334078989268
0,0768091536161506
0,0753204079848363
0,076085939826557
0,0754438569185974
0,0728979009854096
0,0727725158906554
0,0766547328064433
0,0729688348396882
0,0737080941789655
0,0726989800832997
0,0742818201724385
0,0708637030209758
0,0703170135268399
0,0710685637445284
0,0708425541041896
0,0708452906968444
0,0729486575408983
0,071192624029374
0,0706365129554048
0,0694169126140954
0,0692103701946299
0,0692512568719896
0,0684580969113757
0,0703520294334316
0,0645433644917637
0,0645214675035008
0,066182254593225
0,0724222140093432
0,0712920457279087
0,0677663758344919
0,0676004008077471
0,0682022479186332
0,0647286623228539
0,0647612191567233
0,0648411272878624
0,0670927642411077
0,0655780379571205
0,0655007911635033
0,0644152097339
0,0649560286464969
0,0658609375045569
0,0636610699582985
0,0624355361057094
0,0647654365802592
0,0603476219532492
0,06199173715982
0,0601800244871277
0,0594399336999118
0,0601305527041197
0,0557095095327219
0,058386303796305
0,0596000237118874
0,060349080532523
0,0576819055309696
0,0608325370223369
0,0586489818292702
0,0649512380547297
0,0626949236421798
0,0579829422679809
0,056911804879147
0,0584733120207312
0,0540930570819409
0,0559357700418829
0,0535018769799844
0,0559637540814815
0,0587747794801595
0,0540751414112326
0,0542125008967417
0,0553090113306564
0,0543701533363819
0,0519902175240345
0,0553771610137688
0,0533290930088361
0,0548517998456152
0,0564233284269442
0,0521117137287872
0,0533178548251848
0,0535775503359558
0,0515515267636582
0,050823547581725
0,053124690179168
0,0541200937722911
0,0529877048570133
0,0517206984469725
0,0527003030023898
0,0514517429973873
0,0514128878549115
0,050755003088719
0,0497986085072806
0,0487894643707909
0,0483006044728004
0,0498815788588291
0,049563760994404
0,0485041901086213
0,0461790486915197
0,0482525161193046
0,0498804445771408
0,0487362619250943
0,0498338657841526
0,0474819399238902
0,0475956868003755
0,0509642474558267
0,047256546365994
0,0491046139658697
0,0481812743400131
0,0458044079612572
0,0501281183028984
0,0451674808531964
0,0469665146448392
0,0462397847187079
0,0469411572283821
0,0462952742263432
0,0454963383331594
0,0430237008963978
0,0467502382317298
0,045876722948818
0,0428655959972273
0,043356593683578
0,0461277080718837
0,0447259101682606
0,0446964443812949
0,0445892007016139
0,0440946139804779
0,0438261216965076
0,0440928036526856
0,0456645582849851
0,0440915041137644
0,0456351529351223
0,0427996952684821
0,0433586050868991
0,0411329747166084
0,0440960293530526
0,0399860539677721
0,0434271236056637
0,044704322436381
0,0428080179261776
0,0427224438004331
0,0426981515303212
0,0432547851566567
0,040368002737225
0,0432963556434405
0,0409520669728678
0,0414844458159039
0,0421787073978325
0,0425492989461042
0,0436941899592699
0,0416674958194144
0,041202841590218
0,0398702354946474
0,0398719814884072
0,0381525802690676
0,038285885829991
0,0409349951120007
0,0409304378293121
0,042239923656926
0,0386271891507151
0,041243240696416
0,0422982137479883
0,0414275394489762
0,0400517288643221
0,0383091936691382
0,0403841407020191
0,0389032924760335
0,0399400637106022
0,0396313532489065
0,03900174977586
0,0391081585662304
0,0383257394831081
0,0375589102712588
0,0372925631158024
0,0395714134410446
0,0378237255516778
0,0394485709711186
0,0374672854305737
0,0391461408607532
0,0381572939267019
0,0388960146676938
0,0388902373400908
0,0402434475623174
0,0385706295804055
0,0357081408801507
0,0362783639532486
0,0338852574111135
0,0369261351624328
0,0393513266498132
0,0367608448941985
0,0391915535599524
0,0380673299308722
0,0374455682507074
0,0370465489043977
0,0356402257692162
0,0384409341949447
0,0363466401351016
0,0350978521958309
0,0386525681845575
0,0392766130742821
0,0378185564859536
0,0374384921255583
0,0367700065148175
0,0355052062691559
0,0379314535123493
0,0374578306144099
0,0353552092472112
0,0365232452268028
0,0357129404543039
0,0360469050307648
0,0357775124561137
0,0365158872829224
0,0347257431538814
0,0331101703861976
0,0344016471685259
0,0365325680653824
0,0342075182138763
0,0351373354707838
0,0322811170808821
0,0331956112069277
0,0343024075974296
0,0345526236671331
0,0336429188003539
0,0348904048833211
0,0345643060607048
0,0377310877316957
0,0321735591008572
0,0297506027927
0,0336139071174894
0,0323498190254801
0,0347770496804243
0,0335529871294368
0,0328717965849274
0,0300682224705573
0,0310802463085216
0,0350563634729671
0,0322413853433861
0,0299288694065512
0,0344940483574113
0,032150541628896
0,0294550051726296
0,0322070651890201
0,033147295388525
0,0317659655800743
0,0335108650845175
0,0317797922115407
0,032012768401442
0,0300979559615662
0,0333984177602229
0,0322523251564817
0,0310016410196482
0,0320549147416698
0,0315023322416561
0,0299300930658031
0,0311956700620851
0,0325501655061138
0,0268370081306597
0,0287783770146613
0,032201824662045
0,0270573528019843
0,029109310916271
0,0276718684479128
0,0313610927591321
0,0251652332011044
0,0275740895052047
0,0274704857080628
0,0325914314215751
0,0291425736156365
0,0276423800224693
0,0284884280478064
0,0273830047688735
0,0265338755924492
0,0272283707184355
0,0276900341800783
0,0282574343437826
0,0255760207231979
0,0280144440416037
0,0271793283876927
0,0242582656413217
0,0253880557300427
0,0281582277964397
0,026139343280148
0,026739660140924
0,0269975744796204
0,0257958419300499
0,0293268207862066
0,0253201876973397
0,0266623604721235
0,0268516257627972
0,0275054039884521
0,0273479738554679
0,0240316744541815
0,0256108370298036
0,0252615111322036
0,0240740401548186
0,0262924167366826
0,0243485207718387
0,0266646063905583
0,0273075869714408
0,0233894565941141
0,027232144180784
0,0221685059226119
0,0256058632158944
0,0247883015648898
0,0248979110422544
0,0224189657626717
0,0269918268585949
0,0244156939403381
0,0230447992530588
0,0242238081668354
0,0229172956981669
0,0263342546260005
0,0224847687690882
0,0204832107019762
0,0214637999801789
0,0217889091964794
0,0223638913432051
0,0218829993598294
0,0240115771790308
0,0212361892036546
0,0233243575257147
0,0228812050957467
0,0228875374061354
0,0245053617853389
0,0243621257876895
0,0229792528436364
0,0231481536933574
0,0207950095936196
0,0222206404253007
0,0213787314771988
0,0233517482581303
0,0190073795638179
0,0201507671263707
0,0232629939706724
0,0224650227719361
0,0230898197127205
0,0226959108750021
0,0220078825743263
0,0207024704915369
0,0209162540339993
0,0223917711009962
0,0213582573848675
0,0247179245632345
0,0192397570642176
0,0244898148600491
0,0222871112925483
0,0202763157185728
0,0213728679564354
0,0263740363921805
0,0217498133348678
0,0225766244190485
0,0193962358069158
0,0262978613249931
0,0250362493739601
0,0243388345932431
0,0194046784527876
0,0223956205811364
0,0241391858322039
0,0226164763372446
0,0217744133016724
0,0237349006116944
0,0199997077051519
0,027696166537621
0,0194187056612215
0,0252737972932842
0,0225663909098414
0,0251881545272848
0,0221916789361747
0,0226754448162238
0,0234663808224154
0,024851328570444
0,0174998282154647
0,0263936564196917
0,0199892263301532
0,0206459376025015
0,0193544191767497
0,0253034090548638
0,018618834031154
0,0232891020548097
0,0169900255504493
0,0263747549172854
0,0159706574156469
0,0228108084157744
0,018595558672255
0,0195329836539927
0,018689033492717
0,0231136354287205
0,0223151424124836
0,0234394674150598
0,0209253764125931
0,0244272034346702
0,0197048620113343
0,0219718140234736
0,0184284278799086
0,0202599599643607
0,019044216363271
0,0197579509857553
0,0253216931187291
0,0200878039521514
0,0223811736128664
0,0180840231868657
0,0278988725942742
0,013628459955248
0,0231226929415201
0,0108543711084622
0,0317987328270102
0,00992138867711047
0,0320009017410298
0,00630512188902451
0,0332675376559678
0,00787988636751206
0,0317994154959388
0,0145074463575859
0,0283552309780884
0,015135358626573
0,0215450706539148
0,0157460159263808
0,0208834001873976
0,0172767090058392
0,0177374741923625
0,0212357415822649
0,0145036447102254
0,0179987695598827
0,0188966334426618
0,0174831386541201
0,0185485962834254
0,0164338837550687
0,0212969529874501
0,0173193667207739
0,0221969744416077
0,0158327632117557
0,018829503995883
0,0164650759340285
0,0182212372467073
0,0164001914606902
0,0186811916955725
0,0185962102933539
0,0160024433301845
0,0185200004048275
0,0180624800282282
0,0193682292782312
0,0190943614204459
0,0189836402615162
0,0190625182163734
0,0172177856029136
0,0203477355943289
0,016618503952419
0,0180441961334514
0,0182069762664448
0,0186114814659608
0,0188741841868467
0,0183227798332142
0,017736069667129
0,0172182086602865
0,0163837773811906
0,0181725252982895
0,0181892107315737
0,0200138761599745
0,0174347183300639
0,0186080164373501
0,0144031082304696
0,0160178087036278
0,0170070963603812
0,019128972016375
0,0154065484564864
0,018943720436851
0,0179139687305119
0,0182642084519125
0,016356996806383
0,016245361551324
0,0175481939217528
0,0186057390321612
0,0188355557655751
0,0197276273306516
0,0194269778111445
0,0175424706754263
0,0190123231815294
0,0186929191819928
0,0181706723946468
0,0188869425075771
0,0179992679507625
0,017068258206935
0,0163890744123915
0,0178577783506408
0,0183756904056893
0,0187224824205905
0,019977349390232
0,0157091052911217
0,0169214307667212
0,0176715978026516
0,0202731519203388
0,0196397211662758
0,0161788657501996
0,0190337808011854
0,0173131335488455
0,0157033888374625
0,0172892506102877
0,0175156223627241
0,0187741545314449
0,0157198317789901
0,0199468942744346
0,0193526494849249
0,0171036307993846
0,0177913804540951
0,0178353011093066
0,0181197633106044
0,0194928967924775
0,0152510069170481
0,0189548547388755
0,0196513120087604
0,0196008200097916
0,0163980486425678
0,0178487069222473
0,0178403856551821
0,0204446609338715
0,0194102513639506
0,0195469921997481
0,0192095354860831
0,0183457726475722
0,0170761634779953
0,0185501206091535
0,0188600254312189
0,0164780377509473
0,0149995375489163
0,0174697998607539
0,0164378048927372
0,0190695840876334
0,0191423617115938
0,0191224457187724
0,0191099755391678
0,0179785558936405
0,0178485441337632
0,0166054576147587
0,0177224648081645
0,0187728984859038
0,017030556806502
0,0182436837271745
0,0200031000084975
0,0181285424524782
0,0207359049936054
0,020839214814816
0,0184488044585166
0,0180450874113904
0,0203897554536178
0,0178104876416809
0,0189367948072759
0,0216764366857614
0,018246636427078
0,0186746066470543
0,0182943608402602
0,0187923301787553
0,0175577915429602
0,0185859745375451
0,018183887247856
0,020013307302987
0,0190010428725355
0,0189698162380442
0,0213789424767628
0,0194805359776107
0,0181013627424276
0,0174160221159499
0,0197430538557704
0,0176757568253173
0,0201606916980122
0,0167551822247317
0,0204408837253899
0,0189256568722073
0,0201750297453729
0,0190919292141059
0,0186944549130731
0,0181105603355599
0,0206455723084776
0,019068069529224
0,0204622118817161
0,023208174124139
0,0171084635771405
0,0188711848455663
0,0178264270524863
0,0188873286117851
0,0209122452259097
0,0196101083407088
0,0196806170531323
0,0220402700296873
0,0201049237988021
0,0202961207278694
0,0201614939282674
0,0209630746096149
0,0213637339010681
0,0200919075416371
0,0202527245527466
0,0200177643078521
0,0173008908746263
0,0211055632109679
0,0191865734666848
0,0201020667200471
0,0205866911859463
0,0193507654240673
0,0189354389286886
0,0212000200110711
0,0183041017941325
0,0188756497091714
0,0202498093697008
0,0175410953723047
0,0184576134233685
0,0206917226505361
0,0202198823475499
0,0207401253681178
0,0172849308702294
0,0194642899004255
0,019206607111158
0,0213359819706445
0,020133101222251
0,0202731508300344
0,0162129708656658
0,0179469728673186
0,0174970185444123
0,0170520330491538
0,0175207340827651
0,0171682133425206
0,0186834551856749
0,0184890055077536
0,0214391371789678
0,0199301089591294
0,0167598149828223
0,0187631886665423
0,0212686228317314
0,0209114705978166
0,0184499669060008
0,0169494899348839
0,020553788299192
0,0181409567539964
0,0178307444717345
0,0184588819018511
0,017891723381921
0,0185947362338798
0,0179578295376654
0,0177304784274315
0,0180765815162671
0,0191012488140666
0,0191368376737165
0,0186077529538943
0,0194918556028486
0,0195689400412958
0,0176841959152603
0,0172273836339508
0,0174200895383479
0,0190903647178879
0,0177524050451113
0,0178959790728056
0,0183716019385041
0,0178869105370967
0,0171739633322101
0,0165434670024948
0,0166009924198383
0,0184599614703228
0,0166669144841807
0,0195587845198923
0,0179311713890372
0,0182138674299679
0,0176862458551115
0,0186888167881168
0,0172740368961691
0,0178729803719559
0,0180122802376661
0,0190849047775953
0,0191273890337866
0,0181727239325324
0,0178957199494765
0,0186612937993348
0,0192658292923786
0,0190250431817328
0,0174220128840249
0,0160808717721678
0,0157486825422576
0,015502701542105
0,0174397473587639
0,0188799196657875
0,0143672561825536
0,0181182775505278
0,0185529674819217
0,0199605724153043
0,0161477213503695
0,0178840439482532
0,0170692515944367
0,0171242628257959
0,0160114936296
0,0197916651919735
0,0178642578533403
0,0155924699401334
0,0175031475984992
0,0172658231511337
0,0180589802198234
0,0184035273336334
0,0172540751037965
0,0183173464720897
0,0169338505092584
0,0169161921290926
0,0195775551391125
0,0165766992347287
0,0163429030442491
0,0180463165781075
0,017408980177074
0,01764084758219
0,0186371102127508
0,0173258787604479
0,0170377233327384
0,0162031860490485
0,0179111339546774
0,0176674007979393
0,017176307853675
0,0160267073301802
0,0176270721240361
0,0169900098834068
0,015740597038139
0,0166292894049115
0,0163809853637596
0,0154129493182894
0,0167988212773514
0,0163105154382747
0,0151114036888203
0,0180854646081863
0,0152672528140865
0,0151127906068825
0,0171101006764802
0,0146961722193029
0,0177403747563192
0,0178494457693167
0,016243551378845
0,0166616317198019
0,0162941727902594
0,0154817613523157
0,0175861599163301
0,0192499498755557
0,014742122030551
0,0159809202441209
0,0140576330820243
0,0152531272054391
0,0164623532835962
0,014311467431759
0,0164279163387467
0,0142079772746845
0,0140218212114328
0,0156526684010477
0,015720152863861
0,0150421141200771
0,0159151258505573
0,0144269475200046
0,0152273829236103
0,016775123257738
0,0154492642955569
0,016006781023057
0,0132993534694833
0,0153558987531737
0,0158841685253117
0,0146387632291821
0,0151457827967492
0,0169891023548687
0,0131748135136305
0,0137601544472372
0,0163147022289111
0,0150462474963402
0,0150899761380632
0,0150589663353917
0,015606716965356
0,0147273874726415
0,0152257376421824
0,013040912752844
0,0140957818157013
0,0138131636581804
0,0144722778688711
0,0148629327520936
0,0136307789595853
0,0132588363897068
0,0163372482846879
0,0120290312944564
0,0160926027742434
0,0145896203998923
0,0137248705195661
0,0171550996299434
0,0174176731498497
0,0147518898188606
0,0133305023883284
0,0146257525805891
0,0146332005671198
0,0146266135877984
0,0137828652159399
0,0112601358596651
0,0133691505186339
0,0129915337115146
0,0146941158501299
0,0141533056161077
0,0143710491659915
0,0147973950065363
0,0127560546941661
0,013576870293211
0,0130582266615231
0,0161207476119996
0,0149312423698026
0,0136972776137301
0,0141113932449926
0,0139629832105666
0,0129576564542681
0,0135654553410204
0,0141517650746909
0,0160082281931557
0,0132750929062598
0,0150616060123121
0,0148796151231927
0,0135414958070819
0,013555545966906
0,0128188472158781
0,0139324923753127
0,0152540821556219
0,0128129662572188
0,01475727249855
0,011456237245282
0,0131218699387571
0,0139302110080108
0,0143500090322037
0,0143808306366603
0,0140034514530519
0,014077217009498
0,0151892470232369
0,0114484846164618
0,0153065049503444
0,0145373075437246
0,0138001065958245
0,013580447268796
0,0141036739413686
0,0129365299628569
0,014298312154808
0,0140563255225686
0,015263329036188
0,0130994487295797
0,0131503688362323
0,0126071707496065
0,0130705457960812
0,0133435569339623
0,015614934531718
0,0117296833730698
0,0148753050985236
0,0135216574089214
0,0132237827261922
0,0150428770189061
0,0133727664827117
0,014459616689088
0,0124204192567755
0,0139610085663337
0,0133231721687484
0,0143494341303435
0,0119671582382835
0,0110048243229191
0,0116698620172387
0,0140083354549387
0,0148639325387683
0,0138902888599455
0,0125318380782251
0,0127590061514908
0,0126120526671243
0,0125334542696004
0,0135565158068444
0,0150155293854883
0,0142848002592986
0,013595830464867
0,0104353545481866
0,0123611818179128
0,014641737529997
0,0130404476339357
0,0132341989337202
0,0163625555098124
0,00998564393612585
0,0143198249274065
0,0123210711898779
0,0132632527035892
0,0134501599739629
0,0136068669220184
0,0138410401167298
0,0141411859808353
0,0121195723348787
0,0121753285749623
0,0134377610217808
0,0134601973465655
0,0122827600286992
0,0137194849602529
0,013255978294269
0,0136624668924683
0,0127775963155662
0,0123498803362145
0,014188060638528
0,0117012162159084
0,0148172337367173
0,0156888619444882
0,0102870872437748
0,0137960986749135
0,013786187001857
0,0142036469588163
0,0124115832365906
0,013159373026259
0,0134842923140711
0,0130844540551993
0,0134780846580299
0,0161844936784603
0,0127752114437006
0,013260269581638
0,0127738480063616
0,0150830440205174
0,0137235454260509
0,0164962687021573
0,0139232271147479
0,0146119468288739
0,0125116519063613
0,0132230456210296
0,013034759787182
0,014856020303054
0,0135905922143367
0,0140030080742414
0,0136557042836416
0,0160390489161846
0,0136753642234896
0,0116940876500673
0,0164111423192481
0,0117163730715496
0,0127449621350502
0,0130738843401932
0,0141838222164443
0,0139687562201892
0,0149691958882333
0,0143474748692093
0,0164980025541381
0,0132780521724529
0,0160546271665364
0,0140483196654316
0,0154130789511238
0,0164448625779858
0,0121425482227105
0,0157313013360488
0,0158768890481592
0,0138728407574227
0,0173479177454168
0,0118485011712971
0,0153224793089248
0,0144423999780171
0,0158763734918824
0,0155578256358082
0,0145993856694203
0,0152426129103408
0,0148959813025345
0,0135979718913486
0,0149028952908065
0,0153290937643061
0,0131423313153377
0,0152357282387951
0,0166473348391731
0,0140455680471591
0,0159024253212621
0,0157311664314756
0,0147042711864183
0,0151272648567498
0,0128773801509125
0,0140250142418317
0,0160945711911383
0,0149029606126111
0,013631880878844
0,0148203730666655
0,0160618837120602
0,0182687203285323
0,0159514770939319
0,0141726070724147
0,0156914803707174
0,0195338276933986
0,0156073748157056
0,0165194331973697
0,0169784529885089
0,0211566291286257
0,0113589298737792
0,0199493997243941
0,0149671451310567
0,0182132856230586
0,014560694081236
0,0189410415483241
0,0173481565128865
0,0189508680887619
0,0141874063577946
0,014405185734988
0,0165199511696967
0,0161485012775245
0,0201591518503388
0,0148581074422812
0,0191766363256016
0,0180841735842131
0,0182405505195303
0,0169242586369102
0,0205919651002719
0,0177736079972681
0,0201241202946922
0,0129089075678446
0,0164697546886213
0,020069130194065
0,0187145952259636
0,0211371994513436
0,0141221395542248
0,0173019411414708
0,0181254805596878
0,0166592076644299
0,0187706357049036
0,0170346566745962
0,0230912499638584
0,0176252023708345
0,0179553097994228
0,0201874237975044
0,0176299050759466
0,0234154302664343
0,0192526274886607
0,0180076526950063
0,0202429633518524
0,0199245361922609
0,0220491766366113
0,0202837977313026
0,02124956445414
0,0156934560159323
0,0266995055512968
0,0192988925904495
0,0237856033507041
0,0184711740669129
0,022892849950014
0,0224100591181
0,0239216128390001
0,018112716483839
0,0247122555104121
0,0226287970582456
0,026835092511369
0,021798583208795
0,0252142722494529
0,0242656483629297
0,0270082494535682
0,0220100714798121
0,025322447441761
0,0247375742359668
0,0258508535502475
0,0235048204330765
0,0285331688362549
0,0262498854321883
0,0260691491902432
0,0272119506843435
0,0263797516540102
0,0280272453464312
0,0297246268096299
0,028952760749837
0,0285972879026817
0,0251258341778529
0,0304441937587975
0,0289630404778905
0,0376707851256561
0,037014266306508
0,037664333180842
0,0306376157359779
0,034184832902972
0,0332497106454122
0,0327863831708014
0,0356083382179541
0,0322720617660475
0,0347071317291264
0,0366358616987016
0,0354972891168528
0,0374636585590517
0,0346258369610396
0,0376854139184071
0,0336230203484588
0,0397504690792024
0,0361054247486479
0,0463988361910314
0,0443884193092862
0,0434156555082047
0,0474602190414666
0,0439602968083463
0,0522558846008184
0,0508407216277588
0,0567199591501037
0,0506613975946551
0,0535337543583059
0,0550843877308135
0,0619005526599924
0,0603131222297712
0,0629676939726758
0,06440324593074
0,0678958362312366
0,0697315209285367
0,0765572736689923
0,0800704909621238
0,0817908138783844
0,0799991950712533
0,0828861388970671
0,0843123373319175
0,0898336731443476
0,0886133047204782
0,0927376421794034
0,0922033791179561
0,10077517309703
0,0958248673210648
0,111665243013369
0,101806849034265
0,110255904464977
0,111637958490527
0,114764836226406
0,118302581914385
0,115839933144598
0,123746623873893
0,118871508602165
0,129126519882038
0,122783005905325
0,131196722316403
0,135758555094114
0,135645673805984
0,133285894181961
0,139709716288262
0,139876062794045
0,138545513947512
0,141050442115343
0,142427848427487
0,149493914377319
0,150835808834803
0,151951289546738
0,161737577973126
0,149212962364206
0,148751785874459
0,146191484691617
0,154966218626986
0,151312077551066
0,152622080964658
0,150965627941475
0,148500167992307
0,155902425651162
0,148315216472012
0,151464349164229
0,151332713339234
0,150354950605184
0,145671587601609
0,148250768366155
0,154991211202969
0,154109825079614
0,155340571803174
0,144808755933366
0,164177247379967
0,149224556857355
0,151548457905904
0,146641240911802
0,151395846182653
0,145499450801994
0,148182977345655
0,147303025762782
0,148110015722297
0,141899827578734
0,144839112236398
0,149256777754442
0,136452864486054
0,14435937752567
0,143158157624004
0,14234615064911
0,141423892120346
0,13574341055123
0,14039570016286
0,14070545616942
0,1465027069123
0,135853952847334
0,133175495202548
0,133091035088271
0,133197928709867
0,129835101462725
0,12802131674394
0,128246713849009
0,130119499527722
0,131939660559943
0,130854258085974
0,127389560775317
0,126534088822943
0,127017908795989
0,126203742050087
0,129159692000445
0,125265293419163
0,125272693906921
0,123586520404426
0,125017181016825
0,125296410888188
0,122896454038422
0,122553019401412
0,123596852846927
0,121130231528058
0,122878637386506
0,123363214801355
0,123706312189831
0,121744189681161
0,125282256671173
0,123981116640297
0,122458725545024
0,120863368005586
0,121535854954475
0,120208015705839
0,122394099833143
0,119559637879688
0,122184236065976
0,122625657496311
0,118029513732055
0,11694718522723
0,12069703195728
0,124699347262306
0,118105394652044
0,119315940654428
0,115888878329218
0,11556210112726
0,111770823039718
0,115444212618792
0,118492704649788
0,109837385807225
0,111348403232671
0,1098868010111
0,109586769013013
0,110693720756857
0,106234645174145
0,105087556059893
0,105549647896033
0,107215768827977
0,107770339400289
0,097411023900985
0,116860576776362
0,0906786962710243
0,104488019863842
0,0948093152528254
0,102668430281514
0,104191364026455
0,101820348671662
0,0962829299028892
0,0954290093566701
0,0972851932688405
0,0949241795368889
0,100364791406759
0,0940950114822573
0,0956731686656769
0,0952607448467614
0,0902402767150388
0,0928984631882421
0,0957510769263439
0,0907322685242579
0,0949012766345201
0,0964637561946598
0,097171244873713
0,0919496737507735
0,0894992578566674
0,0874444756739319
0,0875949883417102
0,088560903465936
0,0899005592888641
0,0842468285185084
0,0857884856889559
0,0810874315301534
0,0846437783430294
0,0785374887460348
0,0819225219832547
0,0835043959242798
0,0830510117804154
0,0845911683244492
0,0758259517771611
0,0824490015782191
0,0763408228231317
0,0840902567284137
0,0773108314146695
0,0810509053663778
0,0734311787982797
0,0779571012959067
0,0787958915419578
0,0762036548676761
0,0770601691926635
0,0726703539196013
0,0745690192023847
0,0735132153603013
0,0701935501408995
0,0736050712677092
0,0681344023399302
0,0729710003716491
0,0725555617291407
0,0797299094382653
0,069878191835973
0,0678619808989174
0,0681239782675532
0,0671000473285902
0,0699680186611334
0,0709861025017354
0,0684086876255353
0,0741294711129435
0,0613364906537529
0,0734400467262006
0,0748861287517942
0,0707948580852727
0,0739822458970854
0,0737619963412922
0,0718755482361622
0,0752950269815749
0,073953447091035
0,0776110679224393
0,0732698797125643
0,0812220885028595
0,077046443843695
0,0852070648009135
0,0811147043550154
0,0825791958410302
0,084741843161289
0,084263128332475
0,0873647624680392
0,0898064127197093
0,0898923116659181
0,0912703936815352
0,0931538639258274
0,0993194011888838
0,099939536808477
0,102191223602877
0,108157495543526
0,105726995498438
0,115131352652044
0,104273827136704
0,116119691052456
0,115073122764986
0,116334205440924
0,119086347973002
0,116884026870518
0,12435816349361
0,12044520735294
0,125602685147829
0,127632512620233
0,12587571775437
0,134687007530891
0,1303581487624
0,135789999462462
0,13470179050279
0,147217566979438
0,139548161217981
0,139376642037271
0,140134830537753
0,140573132989098
0,144828800908031
0,141187052017687
0,149754456288113
0,145081647041508
0,14985254097151
0,151254233346281
0,146085825100044
0,151055096447411
0,149070351325906
0,149174065715914
0,150302998655639
0,151696617821671
0,153753470446756
0,155637783251542
0,159253537412785
0,157349615821068
0,159990076675238
0,165426370131921
0,153550586992945
0,165325528186613
0,161210894386611
0,163833994423651
0,168610697864919
0,170192885748623
0,173862994216413
0,171232710872418
0,172919770222244
0,172522356160017
0,174553518034675
0,171757672143868
0,178799867753566
0,181062605083587
0,17485701049179
0,182542155168878
0,173576024481216
0,186103157544595
0,180274119728427
0,184609023730904
0,186436433952067
0,184317654492329
0,188885003069352
0,182615933660043
0,18867140875743
0,188088349700855
0,188782179159917
0,1886458617796
0,187838368312921
0,18939945659137
0,189295863082657
0,189255649506982
0,189810158227909
0,189393548796718
0,189638475879793
0,189833174383634
0,187483416553567
0,186691066478949
0,18767987262276
0,18803123283459
0,184970798903858
0,190873915331221
0,182166000876061
0,184169593728096
0,187719495056531
0,193971721056999
0,184030166892412
0,187299010138197
0,188975029057443
0,186527356698026
0,189276026165588
0,18811294916605
0,189133352293462
0,185615321954573
0,19337277530716
0,189211650860581
0,188709646650933
0,191217564033935
0,195156906950946
0,189348802992702
0,194201409259204
0,195340371515876
0,193694459309753
0,193183826135578
0,197044976198258
0,193214102275899
0,194694792557352
0,194692144783903
0,192578288240804
0,194966507821171
0,192867320300535
0,188820583677127
0,190520561552195
0,187034672532589
0,187118993984359
0,18277402725125
0,182631050736147
0,180167723965506
0,183847495687952
0,177428520027126
0,181597457052064
0,179872867251229
0,174322300625918
0,17168352894535
0,172088014008172
0,171678068112431
0,168981640339713
0,166184065580533
0,166458306737662
0,166803163189794
0,167264737980505
0,162381382656212
0,165162425502583
0,163962276830267
0,167061939337758
0,162679216828093
0,161534118828745
0,159038914872213
0,162424714212432
0,162860942882143
0,16219347736505
0,15856740735904
0,161165971564804
0,158678008856998
0,163938117828354
0,158541919342684
0,159990663195404
0,159766221563018
0,15803859537645
0,161552134619687
0,161339224403191
0,158511819491703
0,160873766015483
0,160413177339044
0,155901402044858
0,156496260127349
0,159264555254456
0,158334899100227
0,157222746055447
0,157187951549872
0,155025962838212
0,155551284488183
0,155615099938673
0,154751248283353
0,156816575673719
0,158025050767134
0,155096961323367
0,155725493711625
0,158739767512334
0,15740785563312
0,158379276379888
0,155146373745949
0,158597335706945
0,15476194014949
0,159343097905494
0,155912122265258
0,156066313394681
0,15460736843894
0,158082217492179
0,154653330575024
0,155884467436632
0,155632943994638
0,155056348429972
0,154310659787663
0,152878349193773
0,151301518499426
0,150331497056313
0,150311893205421
0,145796995568638
0,146786842062083
0,14509129519543
0,142848367724022
0,143962175380794
0,1405280364049
0,139290825514314
0,138419722043573
0,137713315384071
0,137032057406044
0,136297252022978
0,136880878566486
0,134003533570944
0,131679586027058
0,134191030964308
0,134269898892214
0,134614507656572
0,134386607739062
0,132765770424173
0,132939658986765
0,132362741320383
0,132351145128723
0,134028804013318
0,133887732747605
0,135374700064557
0,135310254297021
0,134500327719082
0,133868334895109
0,136254639187901
0,136924584953883
0,13918645617638
0,136083715051125
0,139250666584561
0,1395773023176
0,140690430249804
0,141114727699956
0,139394574370397
0,142779146579907
0,142741542008145
0,141184748985464
0,143117314642154
0,144442279892848
0,143447369865598
0,143282187875852
0,142583689287545
0,14443128915416
0,141873689734859
0,141876077897561
0,143074320410737
0,144204807718862
0,140371867431592
0,142905696481075
0,142093243558278
0,140987528120992
0,141544533662571
0,139507031093194
0,140817023754064
0,137103619801533
0,138791640295134
0,138251563269081
0,136883518051753
0,135832480664555
0,137775231208969
0,135968651903361
0,135864546730302
0,135603524135345
0,13443379655723
0,133401886796246
0,134566482023384
0,133857802176424
0,134260412874754
0,133925863607487
0,130855060638472
0,130386274202444
0,131016191544032
0,132008943737842
0,130140177582755
0,130210061264595
0,13126381892387
0,128098227702607
0,1302029602366
0,129503180142788
0,128327591425935
0,127241575360391
0,127363716247666
0,12476163841644
0,126449559736365
0,124797044558211
0,123325939335954
0,122510422259677
0,123464954093835
0,122661837376734
0,121429906390894
0,120126901297976
0,119182488200333
0,120114858428806
0,116948139848009
0,117160009137743
0,117369638436985
0,114612108264409
0,117457188468687
0,116158092345212
0,114644090356005
0,115781587987849
0,116112245839646
0,115375241446561
0,117002285391142
0,11713791571285
0,114860171666658
0,113075568390934
0,113116497027688
0,112861267160975
0,111793566468003
0,109918561624897
0,109559718250704
0,108336777729062
0,106739701052048
0,106814594912526
0,105346353592916
0,105356516961418
0,104395800902578
0,105351987713639
0,10330677446292
0,107407261288691
0,108758751747303
0,110903829969771
0,113971051876975
0,118311818730929
0,12095207654438
0,125928319019714
0,131915519601681
0,138218412913601
0,143996529809874
0,149339299133623
0,154087625199447
0,161737567771348
0,167590065623385
0,174101990130918
0,18061975791644
0,187188788973583
0,193869145543735
0,199796244212348
0,206035514272068
0,20997659718979
0,216564090717653
0,22098021649334
0,225703910505388
0,2320392450501
0,236448138108675
0,239059787365806
0,245535000327274
0,246746398382347
0,250355016400403
0,253282992565538
0,255627617420882
0,257711606202435
0,258012760769225
0,261100419571935
0,26326975563719
0,262789758464513
0,262102898509256
0,264282706326737
0,268016499546211
0,264569232290493
0,268676985776387
0,266263245595151
0,268847150742257
0,266486904505844
0,270059603692227
0,267278350702289
0,271912120126112
0,27009494968699
0,273725754711079
0,274783958685729
0,276678405626536
0,278119351169482
0,279874748845381
0,283286603255869
0,285989864375425
0,289075114433436
0,289534814262403
0,294049637815245
0,299915090112051
0,301224750400368
0,303593453766555
0,306994513344797
0,31347538654082
0,315772084561165
0,322312255066305
0,325142637775925
0,331090508254256
0,335551889966406
0,337607859164233
0,339489981534589
0,341209549924678
0,343265601285673
0,347273753117977
0,344313951161561
0,346575910594233
0,34654875726592
0,343755759092126
0,343936492663363
0,34450755232519
0,342177115352193
0,342938869139768
0,341726111022696
0,343425343069015
0,345772296155048
0,347414937524587
0,351671597735182
0,356379770971547
0,360936377732467
0,368489439179041
0,374499511341239
0,377901724387263
0,385945888194306
0,394855265155016
0,399989676673893
0,406441059384123
0,414610901208067
0,420293773794339
0,425480490001979
0,430589550614004
0,441200946279029
0,442874620712081
0,451450767471762
0,458330431192037
0,466640825787317
0,474579814606353
0,482120794071127
0,495964973455932
0,496094312605181
0,509373291634139
0,51574387196288
0,519417712671617
0,531181186758713
0,538410756457159
0,544970055134056
0,551902394050572
0,552408385416374
0,557694528523737
0,56713575353253
0,56992039709034
0,575135746661952
0,573079228638758
0,572098213702029
0,582831258647415
0,575641274493028
0,575289008352928
0,574054367424176
0,57332380162422
0,568213663583243
0,562951065139871
0,562531150565862
0,554420674922407
0,558604581970572
0,555551180199113
0,552943876786006
0,553434408751059
0,54746046684632
0,554684100685525
0,551588185828349
0,560588597724521
0,555962041640188
0,569121531860222
0,567545284364306
0,571493241337884
0,572908362035201
0,575379547608177
0,576678069682462
0,586206323474066
0,590664619519217
0,593925906975807
0,5960625279542
0,5952591285535
0,595707700888501
0,602572129645576
0,595765300630048
0,600310793443223
0,605231370714604
0,601077199023234
0,601788736968954
0,591979214712479
0,600711473116416
0,591631996801758
0,595485480542322
0,588496445848514
0,584540075596991
0,588977623341349
0,583764333809521
0,583540865775347
0,573480832156552
0,569665796489712
0,566887436976334
0,562712273024892
0,557285157158574
0,560148037920578
0,542151746844878
0,541940348884531
0,539316767553084
0,526535805886716
0,517714788344794
0,510273619512609
0,49567285051343
0,485167740135001
0,475807634069206
0,461227513047716
0,446917548348677
0,428633285123694
0,413862739795048
0,394900517693405
0,379809101660454
0,365308475645565
0,350796359459483
0,337311284633746
0,327140707738485
0,319666415009477
0,311270669714478
0,307506777427486
0,300947106704159
0,29529289731786
0,294160127070065
0,29048238596759
0,286887771814531
0,288989661742683
0,283568464859098
0,281600826158575
0,277731294570933
0,27780857288781
0,272464316763032
0,268886448521598
0,266949326271432
0,259452917950079
0,254447867744462
0,246182443814172
0,244011510217739
0,239171227015632
0,22755450184344
0,219055522152474
0,213802533844126
0,207549439003304
0,197591062616502
0,192334721013658
0,186203530811071
0,176656909542642
0,16714751412695
0,158632590964181
0,150530500752933
0,144194760517395
0,137519412019866
0,131819206038528
0,125376872467699
0,117536206828992
0,117311036814164
0,11103860478521
0,107376562036765
0,101484281042335
0,0988440508810507
0,0960715915799952
0,0969796552808518
0,0925422528896642
0,0886014905468764
0,0877464598656851
0,0863415050964707
0,0866093675963645
0,0865834562895081
0,0881535308755235
0,0847043777954644
0,0845902782226677
0,0856428281479225
0,0845799233126872
0,0852670173538106
0,0879964429887789
0,0857953580490983
0,0875189401652245
0,0883162035265398
0,0858018469809618
0,0885638091638713
0,0893927776006387
0,088882277094916
0,0900457419948356
0,0896689560542587
0,0861242685072555
0,0913851374811625
0,0885477722715885
0,0854465257927286
0,0866156996374527
0,0825493607380119
0,0823823549108896
0,0869338773414994
0,0847123813532656
0,082866926447426
0,0818208788250549
0,0811351296632736
0,0858643075850795
0,0852625721206157
0,0838131825318545
0,0878132132022703
0,0844782346639875
0,0852754047909279
0,089687632884488
0,0882841259092387
0,0887782100706389
0,0895844492652077
0,0929062106464825
0,0941698143691167
0,0948023764203673
0,0963051780382386
0,0958465241293536
0,0963216298928373
0,0971359296716587
0,0978982672857797
0,0947932110411731
0,0991950845745007
0,102223192375977
0,0956258766486877
0,0967301455284107
0,0991784894792968
0,099006765803684
0,102218684470828
0,101755689928718
0,101205561994092
0,102277320354889
0,105601605742515
0,108469711503749
0,111267337679521
0,112004254525839
0,115846844580232
0,122979743416246
0,12655644164674
0,130058907389046
0,133451828830765
0,132497262238854
0,134052573954784
0,136561573165891
0,135800333216105
0,136233733733599
0,141686439434569
0,134201497574628
0,136283627907129
0,131118567331526
0,125401201581683
0,122041293891725
0,122837317428211
0,119518988739531
0,118547710758927
0,117954209917603
0,11690647686716
0,12127753855464
0,121163731139832
0,120423644127658
0,115942356475543
0,115765378343164
0,119754048184017
0,121242004105477
0,118205474267242
0,116027364919235
0,114286746982778
0,114087069182011
0,116290156147858
0,109010030933886
0,107449730589929
0,112419377037264
0,1068773957562
0,10195982392727
0,110393410767721
0,10480356493837
0,106551968559774
0,106429226532748
0,102392507257501
0,100621495568036
0,103262665445299
0,099903983301886
0,097790238760348
0,0956416540450923
0,0968513835710987
0,0910387669152349
0,0964842127899861
0,0913714164663461
0,0964788917759308
0,0966383554950569
0,0982260053809225
0,0968818034228275
0,100227953968264
0,0948273854864194
0,100000714898486
0,0994770078676541
0,0937724483235013
0,0907597792688508
0,0914677579916471
0,0868449583951021
0,0915029003122692
0,0918511196223609
0,0878221176106287
0,0953328461692314
0,0868272780651793
0,0861308763461643
0,0852110102587692
0,0891118759826549
0,088858792856401
0,0839359220237212
0,0882170702013052
0,0841005249439855
0,0836421006006658
0,0862831497728779
0,0806432885639549
0,0787541217395115
0,0782907613593963
0,0809515288383394
0,0862167300217916
0,0899614735560028
0,087929878709665
0,0933360614372498
0,0788505910047499
0,0832600650766546
0,0850845159292179
0,084968867015201
0,0910970418022998
0,0867369852230571
0,0885623301265713
0,094732252529723
0,0990280178205024
0,0980476116166249
0,0969351357087297
0,0995483849005382
0,0963035258307858
0,0985816507138755
0,0951017792152676
0,0998713572519601
0,104626088464667
0,103532915457307
0,100827504701104
0,100717246697782
0,106105914191704
0,101150904304101
0,117388689365464
0,117513999186617
0,122156602880584
0,116223693767199
0,122635076454989
0,136627115625015
0,126382692683141
0,134706078455938
0,145198361366948
0,142324186945973
0,149456509542459
0,150071753189866
0,145474193171488
0,172526606219172
0,168225487273353
0,16193973186921
0,163112729901089
0,163858970750321
0,180074660015095
0,174052035508248
0,174358746399238
0,170189227124037
0,164589014632005
0,15943694941409
0,161304679857705
0,162498230057758
0,164371859441859
0,145799848297335
0,162138496274605
0,163942744247991
0,170223610871533
0,159404777747445
0,167606179559954
0,16810867380686
0,158458879810969
0,15512793202032
0,157164483324238
0,154292954924098
0,145014207774029
0,143312348068591
0,151728607136509
0,141201306889739
0,151525646964193
0,131527767599586
0,142694274491649
0,147313559875654
0,135373273750072
0,132508359009471
0,141876088663767
0,137062464973823
0,122048044828633
0,13758234352204
0,152331826593442
0,134907916334951
0,133731703516138
0,139406957585523
0,125500067970535
0,117647297834475
0,133310155419361
0,146587456432536
0,135583145273955
0,136893265869867
0,13156621925869
0,132118556514087
0,135707085470741
0,121057282145572
0,127883303445534
0,142346166184854
0,151524409761742
0,143359043661448
0,144235271055933
0,139616092502714
0,144456356569609
0,143496753034027
0,161564726920004
0,148393079224049
0,146148196924404
0,145363753397918
0,115916224941361
0,152557833402679
0,182067649578113
0,169799673626678
0,15949048624363
0,164354008719045
0,160615104126055
0,149243682825507
0,154551826459515
0,162275250499888
0,160545574965227
0,188194567665266
0,153249104852402
0,165344817606486
0,205405004755794
0,178934822282662
0,19158303457733
0,196920813864028
0,188294453547168
0,218901766954037
0,227089635128568
0,199830312581028
0,195668065832392
0,19617946842874
0,202953143116584
0,189166843379268
0,222830969078549
0,20597978564834
0,159584952752252
0,170591127755308
0,215165663334507
0,201227754495632
0,196958768082755
0,216136684699252
0,1845490955709
0,182413898276656
0,188554439699796
0,180201727805808
0,179137145813464
0,198531968883885
0,206470494845113
0,176959916934519
0,18447697146413
0,18175607776027
0,171735742551038
0,154504011870487
0,168299931463887
0,195281944075831
0,220896714015388
0,151914543896665
0,143014948056185
0,181633978748614
0,201996727161074
0,205675018863982
0,262524693745497
0,23996216935254
0,174654647605246
0,174044307339453
0,188832728559901
0,222872641279637
0,166457669399833
0,134637137523794
0,208640208350081
0,170820520978657
0,0385387527997307
0,199393500808999
0,210011455345661
0,167108616353023
0,132614740217568
0,076915184307764
0,154874635696755
0,30551445486976
0,247759290997843
0,221375998370207
0,24747034151281
0,169238473045365
0,258175829502612
0,260434548353018
0,157672669019363
0,131465935911634
0,197437566652112
0,131292823265926
0,113862643070526
0,173347476903248
