3596
4000,36533379555
650,420452594757
1
2
2
0,0177670979500649
0,0135042940398485
0,0165574522488982
0,0136883069248131
0,020735646642849
0,00750925390663207
0,0107275364135718
0,0167017445331973
0,0183484005225869
0,0140261353968395
0,0219725126080053
0,0106011262283879
0,0197850010967361
0,0137193239842873
0,0173490954946023
0,0068576737595066
0,0150848381562244
0,00839524133846559
0,0116075733347011
0,0114099246865013
0,0182237527176766
0,0124319928369537
0,0139126837625216
0,0109059688263957
0,0144811484291474
0,0179783820003022
0,0198267767653416
0,00501380219238089
0,0197318127803825
0,0103602373531149
0,00984101361577347
0,0111107458134108
0,0176477685917449
0,00699479293492836
0,015022287177152
0,00811867692325716
0,0127624083148793
0,00801934165842155
0,0101537437117247
0,00603961601031668
0,0165171390266089
0,0102366178352231
0,00677411322036009
0,00450549918337613
0,0183415021228378
0,0141635596440806
0,0202522549839627
0,0113587077424583
0,0129616496559954
0,0145043131427371
0,0193948358133228
0,0096963280424017
0,00680694402496818
0,00891967291058509
0,0163827291336036
0,0164988139698574
0,0158541188402271
0,00999640102769809
0,0131643286936885
0,0138001739041343
0,0116629681381208
0,0190148828384912
0,0187443622250494
0,0188878596312126
0,012710257322662
0,00530187936392008
0,011631420006813
0,0113607391221291
0,0117418163310243
0,00763678412406192
0,0175239258549504
0,00565742506931034
0,0247417026761712
0,0049786202258244
0,0107981405100962
0,0150694725289548
0,0176337792653575
0,00687037719117533
0,0141038886053009
0,0124600077978964
0,0170645413221357
0,00550912146258478
0,0238774487588169
0,0120294251544989
0,0060443280930157
0,00857950978653557
0,0118613744379363
0,00496667005121615
0,0184978330833528
9,96524261693923E-05
0,0116320559144513
0,0112612815050608
0,0214216627039052
0,010525158239182
0,0121449228749165
0,0109559888001435
0,0194154847261301
0,00491570148120733
0,0140953948750199
-0,00259658290037711
0,0151299706384669
-0,00391241314608386
0,00825333029033084
0,0169185120971381
0,0234471965279528
0,0202981395574964
0,00436598374302748
0,0104487265883265
0,0113651676090445
0,00494842713502204
0,0158602514731993
0,00515972372629131
0,012757685378929
0,00934727611582242
0,0246488901727839
0,00696839929104861
0,0122789876732849
0,00519911252017294
0,0126858677061057
-0,00358091769684932
0,0209699872098117
-0,000360841041663889
0,0137080253247849
0,00195916223863385
0,0121151231641888
0,0105721618746231
0,0227458624256618
0,00277292766504476
0,0136035020985726
-0,000862134242327723
0,0181086345099827
0,00336133112197562
0,0127941724829148
0,0024331694148798
0,0148662717983268
0,00192675175569381
0,00385423874533412
0,00953212656810223
0,00551536915473356
-0,00133300274530953
0,0114819073113273
0,0101815315432015
0,0134731524751808
0,00598580568140411
0,0148152883770347
0,00353499317368738
0,0104737870242714
0,0137244853269089
0,0138812732743221
-0,00151791114496653
0,0102308925216439
0,0164852669941273
0,0132096349035947
0,0033984780052854
0,0216921611233156
-0,0322586310097401
0,0296354781139646
-0,00638528146937816
0,00171517589313773
0,0145961698594112
0,0082228211656225
0,0122896306568663
0,009836407329827
0,019878214686839
0,00991367778541102
0,0167428890915929
0,00910253088869525
0,00811857083748446
0,00928518953498104
0,00285520853204948
0,00992989619983425
0,00752636642402397
0,0145783382208138
-0,00815152561362778
0,0157249102373876
-0,00820154507178386
0,0138834816353864
0,0020354215138104
0,00699857631493511
-0,000912841389018532
0,0189286935461606
0,00921817685609296
0,0105731838167925
0,00569323988812796
0,00750584165323074
0,00604553495317607
0,01699427089457
0,00829721095997602
0,0086490413238545
0,00925981851750289
0,00745881059837654
-0,00255917485982139
0,0145804585577613
0,0086834748026322
0,00823864089350851
0,0205717475770232
0,000957159203159285
0,0120537108936876
0,00392582901497031
0,0121377405632915
0,0134695497410395
0,00481189217410706
0,00966997949242954
0,00916236662003995
0,0105178058615408
0,0125379670801593
8,60205731706086E-05
0,0137883479914354
0,0153778856113218
0,0100094523042643
0,0067330062819424
0,00951268179609732
0,00946185034060928
0,00955745427304518
0,00773103677465788
0,00805467801526528
0,00533543442274735
0,010394741989211
0,00473015843239954
0,00817929689309042
0,00228831820564186
0,00583728891680841
0,00650390119717648
0,00872550243292633
0,0109593940732962
0,0116750656213351
0,0179300085684332
0,0030304994655989
0,0115078833872104
0,00849148183669221
0,00440840549508143
0,0089841927180112
0,0127298777469081
0,00324889203502131
0,0147347440277266
0,00596190486828042
0,0104591664241431
0,0165461964691848
0,00461701720616251
0,000253980380231436
0,00928240392035646
0,00618929642286569
0,010319932549363
0,00691788624775383
0,0120545218902266
0,00548534430699807
0,0123420279088721
0,0226407579957545
0,00260137143910277
0,0174465551284089
0,00480659740598421
0,0150682030326632
-0,00347997520855886
0,00962863886583964
0,0179701027022136
0,0220187006571699
0,00510631448604685
0,00254208805408824
-9,31137634591477E-05
0,0104497499773181
0,00939318541344914
0,0189514546091408
0,00819630344011923
0,00926105395541352
0,0328166234390867
-0,0179551568769915
0,0166659934019036
0,0158024253901419
0,00657526831888804
0,0149503299823239
-0,00424930050861553
0,016406109171696
0,0221945355675994
0,00902959568968935
0,0168917826340763
0,013906375776762
0,00908763778397699
0,00214160213649138
0,0127987855013604
0,00858369705557249
0,0157386254816499
0,0149390293143433
0,0148487143075843
0,0255946250274925
-0,00435666558102258
0,0202239874339787
-0,00988114456205113
0,00974561726803725
0,010605885322054
0,00987946108797887
0,0108232886607439
0,0174883577835448
-0,00264052248799182
0,0179211803254689
0,00659578951210701
0,00923626411211754
0,0116419014013108
0,011877038675781
0,0137177630154396
0,0134242120145336
0,0174476681900267
0,0079846377949745
0,014877427110203
0,00945019412109442
0,0180285946938742
0,00321886195271493
0,0121986884126346
0,021732663041319
0,00543068970214266
0,0141479291155494
0,0175342861948605
0,00587375487424459
0,0112400686336863
0,0123134966580231
0,0181073918943864
0,0193140776435549
0,0151231810016655
0,014035078387276
0,0303673248191554
-0,00215962441073171
0,0173001551047128
0,00619889727636159
0,0115375728978538
0,0131710490413022
0,015582581315481
0,0118610179612276
0,0196345241614707
0,0132364836636293
0,0131657466359924
0,0226556187221855
0,0107743615009601
0,0151937986968621
0,0405345606669026
0,0114265769875326
0,0168973803291177
0,0172626165696477
0,0142465306329725
0,0197558245362524
0,0170086032996827
0,0177573692362073
0,0205158197861951
0,0225457472338398
0,0199433704155704
0,0224645910776735
0,0151128332149832
0,0181898799500352
0,0221601918832738
0,0276477026163284
0,0253832504122307
0,0213623349145953
0,0176845076789406
0,0212663840299248
0,0117951502208544
0,0299281530223922
0,0337353631108881
0,0203341878714014
0,0327480464308141
0,0258386906840977
0,0326884025910506
0,0247508515522038
0,0359562271228149
0,0253833429319209
0,0352000003864351
0,0305590316999324
0,0303756982161637
0,0345240218917106
0,0341165060322019
0,0382078214000575
0,0320401972308133
0,0323695689430556
0,0389242887119298
0,0285900006685217
0,0484455387498943
0,0411065605470713
0,0459119938284108
0,0411368794492804
0,030660456720682
0,0360951626584836
0,0405607235944038
0,053929956607099
0,0390356422044309
0,0473163459103806
0,0526123045611007
0,0511463533705578
0,0451242726217706
0,0548597184880468
0,0515077285229241
0,0546681004673814
0,0471827411684725
0,058408282137226
0,051366183001333
0,0702124663014912
0,0472974179565178
0,0662688108583292
0,0613912263739974
0,0803955642651576
0,0606454103123964
0,0799407393785454
0,0660984649159884
0,0684599717434333
0,0724518661446623
0,080665012455786
0,0739538420606215
0,0762257469465322
0,0868008728587176
0,068370774610965
0,0842758115017459
0,0743571919141292
0,0841517246400505
0,0900969154170498
0,0711472369331099
0,0965186609855563
0,0854176138658955
0,0905124802903676
0,0938732319898185
0,096365594033815
0,0879086925292419
0,0914092237237721
0,0968859133924334
0,104973245057381
0,108113476136707
0,093286097030219
0,107377013283481
0,10813087688998
0,109133286509525
0,100545988196922
0,113293353841393
0,113900615755044
0,115780804495846
0,11875053137035
0,13084133688123
0,129720632376637
0,129619205910666
0,130222783084382
0,134957183634234
0,141408216044423
0,122488267789358
0,140781458382768
0,132808440401907
0,140532767231532
0,151989574033122
0,148297091314525
0,152822385324352
0,143066937887205
0,154572716522695
0,142018105937035
0,157004668457661
0,160225938422691
0,164127483871879
0,160874671730758
0,164547705444447
0,170933499393762
0,17599628021537
0,180417100682904
0,171336022001481
0,179659980600381
0,17422650391774
0,190661146251337
0,178437777538256
0,202833005558621
0,191596874663059
0,201835949495405
0,192007537785389
0,222015396783961
0,210555894946531
0,200651066242713
0,20288760455786
0,195904692577962
0,202260065308664
0,213921710844616
0,206716982738106
0,221665024504163
0,223501715759284
0,239740044466488
0,234313229165661
0,243023250346988
0,235268342557377
0,252871865419548
0,252930531997561
0,242416839898129
0,236353741614696
0,242023925796318
0,249359366576049
0,245687335909565
0,258442486241433
0,264812581958355
0,249916146906791
0,27398205283126
0,268434557190811
0,295654618922465
0,282932269833278
0,292418502975064
0,268779741353243
0,291860497350961
0,270995682041856
0,29253493730708
0,304954627219025
0,315682956050075
0,313320683934828
0,311397360121865
0,303380741576233
0,325031566146236
0,306661303551196
0,333352925956936
0,325921720285405
0,316118436589842
0,309624874391286
0,350486048106832
0,32596159309033
0,333318431700181
0,318255953468364
0,35262470052763
0,361578251545921
0,378965951326185
0,357199335676824
0,357233214749977
0,349214077316012
0,383187912457983
0,377657238559198
0,378781650384485
0,374888257252871
0,39873633117423
0,409584656353244
0,410048846260908
0,382203997252845
0,392092187679148
0,388954715360154
0,413857877215781
0,396510480430128
0,419550756080712
0,402186322362174
0,410688921081706
0,391232416601011
0,412315159956908
0,424149680853397
0,435990635619893
0,421209041355213
0,433099280353514
0,434237121025189
0,454387090934901
0,411482754530599
0,468743356709865
0,460687419360527
0,485899556255913
0,456851599065709
0,491536477961851
0,481046311266961
0,47695447544825
0,493481964406542
0,49598113233905
0,459903902647017
0,519417811751588
0,492751101065694
0,499844142447356
0,509425812223096
0,490912982573712
0,509225113778003
0,507004649251695
0,505348448298854
0,542067693556151
0,519145228397997
0,538861355601271
0,503360302811045
0,527550004286549
0,510513940296684
0,562842189782926
0,525788306511635
0,550801857132401
0,523442159636286
0,553773794909993
0,553685705548168
0,600654587997981
0,513220424508509
0,568437248269291
0,52334160634197
0,57920124610158
0,577537752938407
0,615653364693583
0,5751623909146
0,603902360896493
0,585332553822597
0,597291545991415
0,594764426157187
0,615781634607231
0,578898249832541
0,646028245524135
0,595900504216159
0,616337599132317
0,592138397291837
0,65233658908397
0,61071618391542
0,638432285416649
0,640901249474741
0,648508574963014
0,623986552470351
0,659488316514336
0,623790333671866
0,693677621637826
0,662980616044078
0,65319325997496
0,631310189158893
0,705913920186671
0,621878137003909
0,689366864688316
0,653342390160407
0,67543860361953
0,65475485893748
0,696789230881553
0,668873608327555
0,695860854743143
0,672514499319393
0,69867855989788
0,667205992292742
0,704261461667598
0,718040485602359
0,712693599233884
0,6735587522066
0,73380670135858
0,714799091173108
0,733104701189681
0,744125776687678
0,759734826310959
0,731748871266095
0,75705849900696
0,685051403441578
0,739861107984517
0,70546048716467
0,737243482738297
0,696624815090872
0,767358762718397
0,739465137197338
0,77942678658642
0,749961675914971
0,760347321407693
0,731677997725019
0,768440843325351
0,740642683433343
0,801670602081017
0,757915751462794
0,761549089601754
0,751946702735794
0,785601540518577
0,739464135735436
0,806554186926001
0,77608462627869
0,777681437808004
0,760554049607222
0,776365822806678
0,77180170792176
0,807012380256629
0,784309420274948
0,833063843353587
0,769302898824713
0,823115740160602
0,883241816013118
0,82364002528879
0,808476857518067
0,842503465237375
0,80586446660385
0,826381785095406
0,841668309421133
0,857875509155009
0,807120156535726
0,861627136492314
0,827421650536977
0,890619779831587
0,797397472243894
0,830982628466551
0,824013292829246
0,858001088582673
0,800778552854954
0,874471746604832
0,810412502861352
0,857083041477836
0,801990484050676
0,849159156844308
0,79388013658458
0,876612829692013
0,835747257840738
0,877954753247727
0,787193821875236
0,893304566373402
0,892375807575503
0,849213151802989
0,83334932580722
0,870222561965732
0,844316941636921
0,897550859284292
0,878272884759539
0,904568739783082
0,874924090763848
0,858928613658299
0,83800321107753
0,861398981697728
0,854999836067776
0,85679171870345
0,830126080996321
0,871010840198639
0,849228215416282
0,886401952189982
0,860908074129305
0,878226274938733
0,835456235293255
0,848767609663321
0,841515842082208
0,881225951002598
0,822093662166267
0,851959930903294
0,877191521879887
0,899211038627436
0,858612684244257
0,908634257015769
0,872560279419827
0,893387315478321
0,883607367577816
0,864648187620372
0,841698482761996
0,86442583361166
0,889870687207556
0,89194146562713
0,853558933236704
0,932669140720489
0,846490328280377
0,884437719639801
0,851708283171777
0,852399749121273
0,862086733307255
0,902012586118936
0,847979489047433
0,889814198972922
0,855459907373367
0,886264830675766
0,860877720422126
0,898455906439589
0,839569242833491
0,894932521615924
0,852057646782951
0,890928398144874
0,86188821403266
0,905438663314517
0,864975914078473
0,860661930097657
0,848159604348768
0,880407546825682
0,872803097155666
0,877100202353085
0,896724994686721
0,900998691915411
0,843554820064277
0,88202719769878
0,875849369317393
0,899813153804994
0,850364633114562
0,861165238332396
0,829523426181269
0,875351957391021
0,836917795748867
0,906193518007207
0,8451283451624
0,872391120120972
0,886092972324674
0,871330082970393
0,860636045227721
0,890776874735116
0,842400136949822
0,88978698224777
0,859147458833702
0,859370267828763
0,828449932289585
0,869726719097494
0,850608231940155
0,881864477972398
0,869082417190349
0,847124577710026
0,820080987747239
0,848912756036705
0,832900121439424
0,854551292398521
0,837301439391834
0,859035785322075
0,827667146316087
0,853336310400235
0,809093106020063
0,845317830228164
0,821686908821598
0,85152952152795
0,824406751818114
0,867369389978585
0,827405524463249
0,853945347219296
0,828251625174929
0,848739795464347
0,83844467291556
0,845158173567245
0,806599528959604
0,824010746812804
0,806614346598928
0,847330815709544
0,787513560874381
0,848001540114751
0,8110522730143
0,811632853480625
0,819081271470765
0,841681665934276
0,822581122320883
0,808917276233626
0,7587896548616
0,831828298772352
0,790372202178834
0,863748453549781
0,789893921636116
0,788397919266497
0,775974818220632
0,801405926957962
0,771804276588043
0,793379598459852
0,770196115853654
0,806846791610456
0,771545034797915
0,798092531304547
0,799225815917644
0,804776066167148
0,753319652698793
0,805125087321299
0,768181296082932
0,768238727246344
0,743513207664133
0,771599894789197
0,751804394890659
0,771762408684093
0,766827578167562
0,765438372951918
0,745773294831619
0,768306626413419
0,73954268008765
0,759720321508933
0,749413573463845
0,743699075591332
0,734394617426364
0,736334217154361
0,70648791531308
0,766301524669466
0,718030600251294
0,730336696058032
0,73768808901485
0,736526876719701
0,713215423013231
0,743641168247195
0,713216867099394
0,7002664723726
0,690527338337631
0,717454595913097
0,708193415608664
0,722781998346855
0,704322450577461
0,710081151469143
0,685562526613028
0,698491628028712
0,682482704656098
0,70300514719318
0,693408502224206
0,685153267176191
0,68063557007005
0,703872168524895
0,665748875721694
0,672271065283647
0,67934022289033
0,647089130912952
0,652556905753035
0,678794486918943
0,66174876282877
0,655878740967823
0,648470592021406
0,647903592868459
0,63629105010261
0,659024126634021
0,637980117420652
0,641766327674682
0,628183155474149
0,643953036932455
0,624579389252204
0,652588561215549
0,632789333728455
0,63446890724973
0,609745031189557
0,616418580585161
0,611368734539361
0,623598084946206
0,605404937634327
0,629768059804117
0,605943682568349
0,621580589252715
0,59397248519248
0,597783632922673
0,586215461384717
0,586019048485618
0,580236676940847
0,586097805685098
0,58345464640795
0,591686639655427
0,565090531203963
0,590974311070542
0,569638658741817
0,580163040493489
0,561550320126378
0,558292775451504
0,565768469462074
0,563709087933984
0,538978444040352
0,546142088196393
0,539083992461571
0,545755235889342
0,544612364896975
0,559223614012809
0,539439994083693
0,544850048639302
0,530181099861584
0,531276726718956
0,515997560584976
0,528088193654516
0,518100739397249
0,526058568337366
0,51778712241416
0,509646314395226
0,516230948930237
0,518802234136513
0,497937632884727
0,512319120128577
0,493168486842723
0,500290685665206
0,487773555925609
0,495396211765605
0,4779864959199
0,491521729932137
0,478199871790368
0,475241972563284
0,482606791340921
0,479723919439971
0,454015684487456
0,47087727387246
0,472084998758019
0,465382709555668
0,451783059692826
0,464601574404143
0,459718046804009
0,462732822141917
0,450236738919957
0,458912215628083
0,453268217102376
0,442615428291446
0,437494297813211
0,443773146679671
0,439999941505565
0,44718762943355
0,439093017507318
0,436944620072124
0,428437997182658
0,442281636408678
0,41976176659173
0,416734893972672
0,410565639518522
0,416785654520352
0,419525776662507
0,426031706089577
0,402076056171267
0,410183638827265
0,404112314900607
0,407406675357812
0,393326705895114
0,392649445528795
0,396596007259265
0,398909917258586
0,386187532493677
0,384398560037685
0,385885048834849
0,393599268497413
0,382549430460682
0,379031321824256
0,381362517582528
0,37870574065273
0,376809129323274
0,383387449056654
0,36622621643629
0,374154055666798
0,375750453225436
0,377077661521352
0,366160583099369
0,362372170446197
0,35590087951928
0,363056060875558
0,351496945397925
0,349582222836
0,349885094667052
0,351359601483353
0,34585899087689
0,350385950756351
0,344487091997242
0,341878894458735
0,341722370724537
0,333280042385626
0,332481906524769
0,341074097966069
0,334293375503025
0,331019212396008
0,327114035575826
0,33417406416685
0,323213916777539
0,330853371483231
0,328958556991302
0,318330169345639
0,31688009036415
0,312091459187492
0,304177029579535
0,306732042394706
0,310385498769294
0,312847663108733
0,310594680223277
0,310788737504568
0,301467830468711
0,309236828527748
0,298832701868255
0,294101118294821
0,29133387669093
0,29221482300754
0,290798767851444
0,294996032319038
0,286399715479836
0,289944787134078
0,283620408410623
0,283155226013348
0,281029579677844
0,279894254393147
0,275410437757778
0,272796882082081
0,271851257005853
0,270496180774564
0,269295223190988
0,275546510054534
0,266653254723422
0,26359415132686
0,26352610202084
0,263632676093198
0,257773341174374
0,261568196136478
0,25625602262172
0,25810098129185
0,255838138631593
0,260435454966593
0,253663633653313
0,252368784699331
0,247465908985022
0,248910783598015
0,251598089354235
0,252033811451694
0,242380469193815
0,245774241549921
0,239573680178306
0,234851357411918
0,234598968578301
0,242871349323465
0,236982689996691
0,242272606777277
0,238340874151108
0,233561418169837
0,234393265644144
0,234353365885728
0,227564052144073
0,235604748629999
0,234684016084308
0,234627763950198
0,224604140551597
0,225763055736696
0,221703543106524
0,228527466049884
0,227410851115348
0,226947451319208
0,224667248229882
0,228345430719422
0,223918135703374
0,224347387067664
0,220991165430824
0,226700136676728
0,229501289128811
0,235196356375557
0,230424896255095
0,225819673008886
0,218806418120694
0,228439301090152
0,228116333619601
0,228295671861079
0,228501816941912
0,233957372365287
0,229673660205675
0,229230020443551
0,232281393408077
0,235394643606752
0,237881422456618
0,241702871279789
0,234232325934136
0,234543191349213
0,235809752711865
0,234327411999436
0,237979387535868
0,243931659019198
0,238359919881851
0,246376816034081
0,247570614330754
0,247542785873284
0,246223287345718
0,247539521266233
0,244847540522977
0,249126901759945
0,250994667194883
0,254547177328298
0,254957601125407
0,260321443850949
0,258632328123987
0,261290974642602
0,260475901445788
0,270982537779078
0,268410217422923
0,27492795058958
0,272832083173054
0,271785495533804
0,277639211714113
0,280517163298919
0,272876510526439
0,287161260232906
0,285746051988275
0,291455931416284
0,290480995637429
0,285569454607233
0,288974040046065
0,295979539781759
0,291744688930236
0,303251975967681
0,301451727161429
0,309886133396989
0,309704542303683
0,311251767702544
0,30778039579728
0,311968806080611
0,3135974191653
0,315192097317352
0,31555329155095
0,319031704078727
0,317624606510753
0,322471816864595
0,320993090575039
0,326516525293172
0,326773863342417
0,322895316299313
0,32393987304071
0,327837332234426
0,321585779190253
0,326161442336936
0,325940538050455
0,328523409410488
0,324753824877373
0,321644665348631
0,317810603176068
0,320291165629335
0,320533552662787
0,324345952891118
0,319958382986733
0,322900110990503
0,324329323709346
0,326183908601957
0,322192550705484
0,323490837001533
0,32551506901799
0,329534978157882
0,318980420343843
0,318136710088087
0,318162733890053
0,322684884927204
0,32671959821664
0,326213736333749
0,319502729626688
0,324440007294454
0,323016801269305
0,324350021258214
0,326325213598375
0,324002589389284
0,32083970657156
0,329676464807123
0,325094120932212
0,321886160447432
0,326906674056705
0,328869996271989
0,32704166667081
0,328921301253417
0,327392626844319
0,330291685510614
0,327025274515399
0,326178964403559
0,321470478536393
0,324781629940932
0,323220616638341
0,320730053281678
0,321604765498358
0,323849672879798
0,320820535931326
0,317121224357436
0,313865755241004
0,32112745122949
0,315228696974064
0,308459999657601
0,313813872029433
0,310976875503492
0,300698075061662
0,305168162758979
0,304492644741872
0,307266533860297
0,300704941976713
0,299973928402362
0,303133912926445
0,299801239383195
0,291556155752108
0,294080279278659
0,289534483411349
0,284754668894817
0,280760517626759
0,279816758703294
0,27607383056983
0,27716978941694
0,274263825580549
0,26591909521483
0,266773225648573
0,268306231880334
0,260433651085156
0,258864751433798
0,260058789257341
0,262296990137035
0,253211319306861
0,249839401561975
0,24889004660681
0,245940389350003
0,244773345813462
0,241821999375976
0,237076414752885
0,241073425268429
0,236610603695281
0,236740570578693
0,229889913050216
0,228771795535057
0,231733410293076
0,226962558166232
0,223532785934703
0,224369265031224
0,219165850799472
0,221809254266413
0,219909560525794
0,219246395930654
0,215447399864723
0,215336591730349
0,214968534321588
0,211791959285884
0,208196567548464
0,20788951672966
0,206400244318096
0,205327398538587
0,211445936617584
0,208022366240842
0,197826257351479
0,20157129345742
0,20142690823217
0,199257253806596
0,20015962183273
0,201206897354951
0,19871219344586
0,197943242377642
0,196678615832692
0,196931791498225
0,189493309784192
0,190402350166773
0,194519675638209
0,189554834848315
0,186850333724086
0,185434876511252
0,186215205219302
0,187616831598483
0,1839889261811
0,183761579122511
0,181089774563639
0,181992884098657
0,180587509305708
0,184748842721265
0,182751193170252
0,179411988119827
0,17964775599865
0,178239569154801
0,17629925114736
0,175288301025685
0,174639071793527
0,17784137213212
0,176490164093913
0,177068258766076
0,171970974219023
0,166760787160939
0,167860180100554
0,168699331909201
0,166798124897322
0,16642994113438
0,167368239244687
0,166322652836965
0,160815049549423
0,16342424147305
0,163315248748051
0,163139379763793
0,163705732240357
0,162153981812885
0,166074493930272
0,168326499919138
0,163179287519119
0,158341758780096
0,154733956507595
0,152346261856941
0,156140888626549
0,155052709698127
0,15406239689696
0,159090457271219
0,158019468678912
0,158595393556696
0,154599760255538
0,157395037416206
0,153939410551053
0,153847119244586
0,152220364725642
0,149873302403934
0,150007886551689
0,152787499486531
0,150103402896278
0,152662015075575
0,148663803488428
0,148659740228055
0,149181732832202
0,15440374424345
0,15573305734675
0,152633327465781
0,148736856223954
0,148067481346073
0,144405866723554
0,141961055974012
0,146051843406678
0,144303393634786
0,144396548633278
0,145658655889731
0,144809750329697
0,143630318527206
0,14726483555401
0,147876429032466
0,141058942646973
0,142656299295214
0,143997473806628
0,142472826013831
0,142456080743672
0,141788570102059
0,140330803778004
0,140621285859092
0,141705591363805
0,141981816243045
0,141236447065481
0,140055630352984
0,13621175044845
0,137711832604092
0,143454958136653
0,145126631197458
0,141057536042232
0,139734288527041
0,139097883147083
0,141924706224502
0,136801472964965
0,134312986342872
0,138191671085352
0,140602396352576
0,137890664790944
0,140219518488394
0,137817585407607
0,136046611050243
0,139114491006109
0,137234443383171
0,137994439345537
0,13795966866571
0,133562485001171
0,134900620107125
0,131986450974228
0,131730977756604
0,131222036097747
0,128789746863202
0,132750069324882
0,13399816015146
0,133808987749644
0,127929078014909
0,127052380461857
0,130406965616239
0,127648451093834
0,128836387346248
0,126123945938502
0,127859706633658
0,127196324660599
0,125635402770336
0,1267289446616
0,127701685209478
0,129677143548079
0,128931890891221
0,124777388666434
0,124796577706323
0,123291432829949
0,121264943706445
0,121370160870569
0,121700944675732
0,124780515321625
0,123976578728463
0,120338397782814
0,122707814632806
0,121420507766194
0,119651517055518
0,116859987707797
0,116231787377374
0,120527038513806
0,118670681301177
0,117126846607176
0,118827043548594
0,115904371824018
0,113892636474489
0,113277748794409
0,119117626431916
0,11531860735517
0,112936501666715
0,112283983347746
0,114667100893563
0,114293461260971
0,113099650612142
0,108895231913596
0,108755280797381
0,110784823939558
0,111043940509494
0,111925159083556
0,110108261056635
0,106194254632309
0,106722101949846
0,106010934540942
0,111014931333564
0,105807525296107
0,105509629188762
0,107099060397888
0,102637677780984
0,101973100472688
0,0993052642847005
0,10279111361809
0,103663172753921
0,102984936227448
0,0988559143613379
0,0999419548486964
0,101219583655967
0,101852306240865
0,100255346500324
0,0983427430855071
0,0972974902451963
0,0996452420609021
0,0981685477360247
0,0947515276175529
0,0963409740586866
0,0938818573521576
0,0973096439601047
0,0966291280854013
0,0926531329811153
0,0906472356900402
0,0904014230505321
0,0940768461278093
0,0944827971699635
0,0932562538879239
0,0905947574103313
0,0911771254878507
0,0891742935265777
0,0891281029021967
0,0868281477079039
0,0868765912456087
0,0894732854718962
0,0872806331423763
0,0852216674240736
0,0897804878323776
0,0893716417452471
0,0884931955919339
0,0840528943335682
0,0846068700672648
0,0848853826243915
0,0862771936143358
0,0843085082652137
0,0850611213120068
0,0841259741180877
0,0872860180592255
0,083001778757505
0,0807382152173001
0,0805654326194985
0,0805767426410608
0,0810777355522753
0,0833903072164528
0,0789186652323556
0,0786498183744781
0,0802961842013027
0,078908995006022
0,081356885048836
0,0819206862490906
0,0787893290856473
0,0788628003161262
0,0772204460986301
0,0812452617996476
0,0801224019483206
0,0788284747533255
0,07706859998137
0,0768870486689304
0,0749328865263412
0,076590675993421
0,0760353453861885
0,074435132253582
0,0758942813072235
0,0756318467918918
0,0743823649813981
0,0751416701809876
0,0727431067459288
0,074511700166806
0,075653569267574
0,0737586096234774
0,079124635646211
0,075023630193402
0,0741452581955962
0,0719190763350119
0,0751535351358174
0,0688056820399874
0,0730578711080577
0,0695994558760002
0,074642570057439
0,07288857479598
0,0705434766324825
0,0699734887138119
0,0700579571850475
0,0720492828542554
0,0687169258326507
0,0726851560976462
0,0688241721691203
0,0710505097831687
0,0709514584216547
0,0715422034639095
0,068302854116031
0,0685983549702016
0,06935599608955
0,0688350620113754
0,0686727474790914
0,0683825401553608
0,0663114916829998
0,0661047500678543
0,0690390460840402
0,0682471179853827
0,064963367621559
0,0694550761324917
0,0678220282784905
0,0672629803924152
0,0701271865010861
0,065403572084739
0,064171904965114
0,0660138512538694
0,0675047559432192
0,068417651369535
0,0666430305151628
0,0675169736116432
0,0667765116361243
0,0657577583432417
0,064886812505971
0,0659829362793522
0,0665648664171448
0,0658083171389885
0,0620680568789949
0,0665588580581082
0,0655282982547936
0,0639042985814399
0,0619469103402341
0,0653664717433444
0,0639127639052844
0,0610248729277081
0,0646826356539263
0,0634163569472466
0,0595892211228649
0,063477353693947
0,0647832869147096
0,0645622239820585
0,0631937528581502
0,0636863815544086
0,061534011757217
0,0609000667129207
0,0606607329455597
0,0598826711055488
0,0610463143960745
0,063365135942754
0,0627955851552148
0,0632419275281376
0,0626183772433562
0,0591630584953885
0,0594172169220122
0,058177088687405
0,0599623892999947
0,0605027882149749
0,0597292332634738
0,0614002422042467
0,0600597901323366
0,058718530719492
0,0602806213217388
0,0591383207589633
0,0566493744134097
0,0597654327797253
0,059440674593459
0,057585777003802
0,0579256319069234
0,0578693808064812
0,0565210756403858
0,0569801947670126
0,0585562286690864
0,0581962390726313
0,0602576752449164
0,0568231427722863
0,0597233563173148
0,0548729210477312
0,0544149528977335
0,057025542028342
0,0545063661767092
0,0548135260654828
0,0571773070583397
0,0538049838771726
0,0534046729760806
0,0543500690152692
0,0517574375884726
0,054030547979947
0,0547662647373168
0,0542470119111321
0,0514829045820715
0,0514981897709002
0,0555493530814559
0,0519702468480281
0,0548708146571461
0,0552410898770768
0,0495285687607621
0,05438069067017
0,0484968853852325
0,0532391904497936
0,0522372159705169
0,0487259331626121
0,0501529206167631
0,0516832081076675
0,0495004015259952
0,0511736780866768
0,0521070153855569
0,0508969814313963
0,0477698694257493
0,0504755432489236
0,0481394611079834
0,050206109848324
0,0477422424877528
0,0476634810051862
0,0455287017018532
0,0464003643869978
0,0472139405219358
0,0492357285898384
0,0474164495955693
0,0463233809665112
0,0459424558161695
0,0473766095324085
0,0465881114779171
0,0437105902968165
0,0461247045299823
0,0477665201643596
0,0436023993189025
0,0475376102639483
0,0449816908613959
0,0419787750783357
0,0452365023273915
0,0464797257981337
0,0418042429030455
0,0439532364526993
0,0437891002514321
0,0422419613265312
0,0421681892763415
0,0424260734202557
0,0423125402146606
0,0431493140710666
0,0418550755812656
0,0441559348189109
0,041355100472392
0,0416313602717629
0,0414676377119132
0,040558132851314
0,0432184754633479
0,0401719414532404
0,0395399587586654
0,0409088349258333
0,0383575637920637
0,0435640543845443
0,0395411278624594
0,0434887103562209
0,0376870953490481
0,0405912933085479
0,0374249164723545
0,0393970198144019
0,0385647679351851
0,0388558532132537
0,0430314085910172
0,0384574191691232
0,0408133082378774
0,0387433736811978
0,0373091803066678
0,0385773001468254
0,0382818658863186
0,0401333538965015
0,0377559926237692
0,0394444586485138
0,037024368840508
0,0370485968342645
0,0362379874344353
0,0359575597894711
0,0378627726451726
0,0377469332490975
0,0363877499410865
0,0365555107067755
0,0350271142541305
0,0377278270477141
0,0343884837826586
0,0377724985253563
0,0325357100001133
0,0369599915147646
0,0356148150790992
0,0361114226531102
0,0361546522123134
0,0357304254574963
0,0361847712394333
0,0337917736609595
0,0340848137268837
0,0373627291709765
0,0355242348560777
0,0375222870239727
0,0368435106251927
0,0407516887586704
0,0371922587750162
0,0388384158416472
0,0409234886205291
0,041851174547731
0,0392897811437173
0,0428797815816884
0,0390788724950039
0,0451070901103127
0,0427298413188961
0,0421182111187841
0,0398600062579242
0,0454807496100874
0,0438927176113207
0,039880663212569
0,0390266351330921
0,0417288346648888
0,0408634304521924
0,0489999668947608
0,0446343294551299
0,0469008601374753
0,0385467179034785
0,0470847458426587
0,0410992667659043
0,0422695783994608
0,0414190584157722
0,0446298089228479
0,0396191729280619
0,0432872803271747
0,0358066931678346
0,0373700767208082
0,0353855933401018
0,0393243915451513
0,0355805394117899
0,0420598122418495
0,033817822340253
0,0410086194617981
0,0364877328599302
0,0422170281423067
0,036329394029444
0,0403575409327746
0,0355252542110499
0,0372852657650009
0,0359019517315125
0,0414415755399732
0,0391083028852647
0,042067495813314
0,037369242545419
0,0404021628251455
0,0369333941566225
0,0453507077788036
0,0364567107241151
0,0394215346979571
0,0407455053843648
0,0350404764917673
0,0393865760873948
0,0323342114632575
0,0455077013650002
0,0305765856172842
0,0390899943713369
0,0263461233980548
0,0473084922946256
0,0259309277681493
0,0503055199717998
0,0217790926138516
0,0497323075060796
0,0259769773047506
0,0476341999842957
0,0270759195351265
0,0424509010358783
0,0292796974156757
0,0376542170667035
0,0306399479538871
0,0334874530249066
0,0320629961208792
0,0300087210351491
0,0376560814135364
0,0272369065780094
0,0318866056162538
0,0332508952455138
0,0300487624292643
0,0345168564912245
0,0293082507936588
0,0349160686725482
0,0315704409806705
0,033503976162579
0,0283690934779839
0,0299920424154306
0,0281334453876981
0,0296603053368917
0,0306224177693309
0,0315080052701054
0,0306176941813396
0,0300786588608051
0,0317521329763194
0,0305360133004733
0,0293030214028717
0,0304411872107996
0,0286867605348948
0,0313804575744092
0,0296959987812376
0,0318875412316382
0,0310225057783397
0,0313599757126671
0,032505881309855
0,0299058724726116
0,0293773741102589
0,0289775695131372
0,0292690467411496
0,0290691077182801
0,0294120167862336
0,0321407947090626
0,0304578238286137
0,0320339454112504
0,0299643563007182
0,032264880928542
0,0284040171591342
0,0293003644673682
0,0310234269949415
0,0296098196780098
0,0320941761541386
0,0302275399535922
0,0300329720227822
0,0302099087953786
0,0281242096649779
0,0302630200263951
0,030488287376546
0,0297092118066847
0,0287112326606832
0,0303420358176079
0,0314441828026073
0,0293513892749308
0,0296447036521728
0,0301187414274202
0,0328419212520508
0,0308849775289755
0,0285074390740335
0,0308438012753139
0,0301751647655357
0,0295989164424251
0,0300052079854913
0,0289315704738051
0,030839902929335
0,0282767783591556
0,0300429183077781
0,0330713192026795
0,0292744392702227
0,0337147390375287
0,031539764265244
0,029816011526767
0,0289189910186818
0,0274128215861137
0,0301467971538904
0,0314234751659143
0,0326228143435902
0,0267119599144874
0,0297533024588708
0,0315094217434999
0,0317795044724423
0,029509925885443
0,029164063598099
0,0317831851904513
0,0335344092426174
0,0287447014123549
0,0309188941930629
0,0318463493097176
0,0290235335347649
0,0301132748032894
0,029870419293831
0,030221037580471
0,0300553011676786
0,0315400155529728
0,0311756108682713
0,0311707838458254
0,0299673156000275
0,0323870581266724
0,0298867650119357
0,0315696875971134
0,0308049242695866
0,0290485956972366
0,0318841584089256
0,0314417179103144
0,0308289897272523
0,0305748498887973
0,0317636300272
0,0315024772617844
0,0326027605272965
0,0310357994855808
0,0306730662071369
0,0312741331427603
0,0324328534837089
0,0321075910291224
0,032982997971319
0,031048366606215
0,0298684075086243
0,0324800664694386
0,0341514758832244
0,0302240114497887
0,0312065211682828
0,0325291799329931
0,0332121994179835
0,0331364557225433
0,0341133677168167
0,031177277777386
0,0318854979818044
0,0301146186028082
0,0313909379632387
0,0313156231721844
0,0320541747699262
0,0300974969691535
0,0314377037227724
0,0320397930612521
0,030895976111443
0,0324670325866344
0,0314128500445456
0,0328633004443377
0,0301619226398422
0,0323495239173293
0,0322974979722523
0,0332702621069443
0,0334326644012649
0,0317302472543663
0,0337778872850601
0,0347243119842298
0,0328695931910228
0,0328957665284853
0,0335709509946679
0,0337738028377646
0,0329419624691426
0,0328145167948383
0,0342788497868691
0,0315554195257519
0,0327108773487106
0,0329766567523478
0,0327096745800788
0,0342964138249753
0,0352771402894745
0,0340867848449173
0,0336640974970837
0,0342595315897789
0,0348655861625927
0,0341006196669879
0,0348486028646696
0,0347611453046444
0,0321806590091146
0,0332094969678687
0,0328113823395918
0,0336892724948871
0,0347298786501706
0,0327415931810059
0,0345214762609073
0,0342443858163943
0,033754151169736
0,0330461141394868
0,0356608267658223
0,0323445792108493
0,0328969481885227
0,0328745490407033
0,0309845120824279
0,0318888655905529
0,0364136803828607
0,0355591935282621
0,0339806911781742
0,0300456888421079
0,0329309511921307
0,0321556847373435
0,0327148622854803
0,0321092631561604
0,0359443122968516
0,0289499621422382
0,0310322174531334
0,0325821404458776
0,0317217294803662
0,0304758429035008
0,030229315618786
0,0323280574940743
0,0324612712004726
0,0304458191784895
0,033367814893893
0,0296066112822006
0,0321501322581424
0,0329269699176978
0,0339751681144803
0,0316405955555168
0,0322790528619326
0,0318326032819823
0,0303491797167635
0,0308156890177757
0,0306909312393995
0,0309150896433746
0,0311214059362098
0,0305179305795927
0,0311297182792702
0,0302988581098047
0,0323414293245299
0,0327244985927426
0,0304791705946422
0,0305394852900943
0,0310817677730459
0,0278218172302179
0,0283004472702991
0,031487511431072
0,0318338657564533
0,0300431168204169
0,0300243806251221
0,03177492561895
0,0304867896516733
0,0279397719006612
0,0299531198548139
0,0316744668560552
0,0303369953402285
0,030031957993775
0,0311689191584217
0,029652991993469
0,0294543213217674
0,0311939494799273
0,0320072249368277
0,0296264912182646
0,0311150635349465
0,0296503584643245
0,0313977564872409
0,0311623408176456
0,0306139872915026
0,0311082082545539
0,0294289436112531
0,0315527762670372
0,0306230105245584
0,0298937683671192
0,0301958236224969
0,0294653107187354
0,028506405171124
0,0293447183568115
0,0314612950716295
0,0276640477002285
0,0308989005564542
0,0299831008436037
0,0310751292149119
0,0277889524031718
0,0295640260920735
0,0289185032403686
0,0294441742886136
0,0301576719423824
0,0289665610585209
0,0291617700325244
0,028776085095391
0,0287737343134012
0,0303796932757086
0,0305693609729627
0,0291506126164194
0,0294318392656481
0,028141856570497
0,0285246457257445
0,0300548913111078
0,028332834715095
0,0290167509280497
0,0284292556724736
0,0287589463299779
0,0304111852291454
0,0292528594657356
0,0287376960761017
0,0289323231003827
0,0287180524468879
0,0271250834201395
0,0282498724774817
0,0305678737276436
0,0278530864271725
0,0277564088618557
0,0277557029107038
0,0285776242077859
0,0286569039298268
0,0284464920833905
0,0280473697956956
0,0271473469384105
0,0275789611181223
0,0263622712528213
0,0277805457829422
0,0278990817398926
0,0276272597510773
0,0285894841048829
0,0275976414842993
0,0303539482114136
0,0284540221279142
0,0281677033257188
0,0264283031237809
0,0271303477376782
0,0262973112136249
0,027035506675294
0,0264573893058223
0,0284525496477519
0,0260325496735008
0,0270477149749628
0,0258921911933332
0,0254488383226827
0,0235796114475571
0,0240054600930503
0,025353917948757
0,0247579633905841
0,0257447642266876
0,0245979907548646
0,0252905994449736
0,0245642716551526
0,0257751979399203
0,0252453830160895
0,0260634550621348
0,028368159703739
0,0248039569025863
0,0244690418691036
0,0230857904487838
0,0258827156695208
0,0244275911663934
0,0259377277952303
0,0226752582327842
0,0249591299075944
0,0244777085210927
0,0248379663768959
0,0251337884016737
0,0247313958731007
0,0246328779744164
0,0237943658199622
0,025030165684828
0,0248269272373995
0,0249924952434753
0,0233101616538267
0,0243166260065742
0,0250781443448584
0,024738682291242
0,0235083855689058
0,0255628579164189
0,0248968436178652
0,0246316642747326
0,021979690410488
0,0243129580491836
0,0228327571020341
0,0223429528077122
0,024827826435239
0,0276793474436779
0,025085401024943
0,0235044877195746
0,0252125777354429
0,024313096550783
0,0243925569036323
0,0233890977280321
0,0217811154422683
0,0224813951995139
0,0222545624338398
0,0237610182540508
0,0220328765819622
0,0226508022212746
0,0248787181379901
0,0224177788089803
0,0219584647627114
0,0229616262882391
0,0247699607236065
0,0215336085326739
0,0206584904106108
0,0236355980168703
0,0238108060597749
0,0240175263068904
0,0223142290747439
0,023769695050235
0,0257434362760488
0,0226920741755713
0,0217219080677744
0,0227518143161537
0,0228231343917551
0,0213409348297538
0,0224508610393422
0,0216634025994236
0,0236975804137621
0,0199288390333861
0,0209948177959409
0,0194733925866808
0,0232491482325241
0,0224454949774603
0,0250771260555809
0,0234212041904869
0,0224151047625562
0,023764058192354
0,0250861858588992
0,021661999918067
0,0236484492182054
0,0243698411716776
0,0232551416101627
0,0229847807993026
0,023801779983653
0,0220825227240714
0,0217751430607899
0,0220342719673236
0,0232033824395602
0,0232533902577005
0,0226553493602997
0,0198502943377541
0,0224044532494407
0,0217099991129527
0,0245177660814003
0,0211300890060149
0,0233278742128181
0,0211654868377093
0,02081137808493
0,0227667650566769
0,0217467629646435
0,0238203761419763
0,0209336732166623
0,0225618747388816
0,0242622962553429
0,0233886229372195
0,0203753229880188
0,0208042785747342
0,0208522937011405
0,0217137832531801
0,0219562239815217
0,0222896202094988
0,0205286726028086
0,0208714050675643
0,020585907111654
0,0214095637358958
0,0224825684389049
0,0226149296564083
0,023714289665081
0,0224344325447687
0,019443395537081
0,0229494498936874
0,0222226596780488
0,0219595484817791
0,0225702561299518
0,0251779003519143
0,0202501571349384
0,0252230577762178
0,0200986285382631
0,0216031072931929
0,0234342210901188
0,0234804229440322
0,022789280156204
0,0221552193932561
0,0212394941816321
0,0202664231343906
0,0222104478324522
0,0207988349240931
0,0211322721268304
0,0218535291177811
0,0215040787616125
0,0204903789418164
0,0217046681671808
0,0205295414339088
0,0213502975055262
0,0210558319096572
0,0223320165291244
0,0226454359827067
0,0189964614531403
0,0215273130302664
0,023069665198853
0,0226836795272262
0,0201927377512112
0,0227626494186953
0,019725176303381
0,021357841867738
0,0221140542967461
0,0227672173246006
0,0213160252790735
0,0225900325926034
0,0218065612379496
0,0238841191555036
0,0211391702735941
0,0245298530197102
0,0217273853212624
0,0245399151783276
0,023802677173114
0,0234877088919196
0,0215932916048189
0,0237140232033804
0,0198756948869125
0,0233864426565953
0,0221044273581438
0,023432869446704
0,0243641197132937
0,0200925447629001
0,0241298574549955
0,0199381723102917
0,0218783402357391
0,0224698519267399
0,0238841041767573
0,0226933578040727
0,0228226672979123
0,0218522886413895
0,025729491843524
0,0235339039456581
0,0246934944282547
0,0228257616268809
0,0223779604379975
0,0249301724057688
0,0224426162394087
0,0240705028014585
0,0249514600829259
0,0197472124362906
0,0263729791720149
0,0225281789426346
0,0242873693354897
0,0222409905608591
0,0250479768323314
0,0250900954022122
0,0221592878188882
0,0243334724742233
0,0256875201502881
0,0226333077077504
0,0238041481835305
0,0257867510180119
0,0219698841971116
0,0231044908165755
0,0252130988314742
0,0234135715995034
0,0254447934571388
0,0231633364105572
0,0247190705913803
0,0261095997214835
0,0245097533455907
0,0246217902472741
0,0247228440052109
0,0253540378127522
0,0245795345659785
0,0257340618713186
0,0240218117862091
0,0265644267452091
0,0247673030743869
0,02450790309113
0,02674043951974
0,0274296171187686
0,0262678704385864
0,0280672753658102
0,0250608488060952
0,0306692524703888
0,0203223252067945
0,0308570684253871
0,0241679545729878
0,0286175026372246
0,0238657278503753
0,0288325459404928
0,0256014335028118
0,0295434442986653
0,0273946351680957
0,0271882502526113
0,0257478398926975
0,0252750443317547
0,0323086269761956
0,0260808856488441
0,0299203266650916
0,0288616376749503
0,02862076613211
0,0265312637361455
0,030452571572884
0,0277583692222304
0,0335136323715756
0,0251783578667219
0,0283552757833034
0,0313228522783015
0,0284932226322457
0,0337986045981248
0,027659133929026
0,0294583887076446
0,0304718333873204
0,0289394871596614
0,0311848111770999
0,0296904652084342
0,0349415881571274
0,0304373919894453
0,0299310013153326
0,0319031498951638
0,0292501308713993
0,0329714434623902
0,032865068586728
0,0323197919025742
0,031477007742267
0,0328584156264499
0,0326154911979796
0,0317154719829886
0,0362634060238671
0,0290228936868959
0,0431537338901941
0,0293920123478788
0,0371913431579124
0,0321272839267219
0,0381345757259192
0,0331799179626486
0,0372374092913191
0,0338085555693642
0,0393564489694238
0,0353163628848172
0,0419300062731867
0,0358468368703614
0,042059102367147
0,0395883326997881
0,0405031352733822
0,0395758150160418
0,0466165549260376
0,040323050599944
0,044896399382594
0,0424005662454397
0,0473002110834549
0,0456999342918721
0,0454815450266614
0,047816050009984
0,046691369498017
0,0469803606444868
0,0506416387138936
0,0486746397960137
0,0489164187334463
0,0483309383577389
0,0496487644871801
0,0468224082112296
0,0573017393751729
0,050074915969681
0,0584241050290957
0,0531790656271482
0,0572802106221254
0,057676821188059
0,056059411782253
0,0585378664183472
0,0571327834028969
0,0590724201144808
0,0602210684624642
0,0587426861575945
0,0594416481520458
0,0565481412572298
0,0636938683702144
0,0593952355564292
0,0695718604812847
0,0621281106824848
0,0723247596876779
0,066239439107366
0,0755436577416246
0,0782553126761798
0,0731865428818906
0,0819180626486801
0,0722538077546056
0,0919188057451524
0,0853702433630916
0,0886933139311979
0,089653553399521
0,0945975596909183
0,0964872817338823
0,101493355006751
0,102271183575488
0,108795481013789
0,110791689408752
0,115553653393682
0,114460148312461
0,128331121050012
0,129181763990965
0,127153642431213
0,128633091485764
0,137695058140091
0,137506136304695
0,141653647285024
0,143948703785765
0,154414005730095
0,147359879871436
0,168832763149373
0,1576588833476
0,16730154196673
0,171308768362334
0,176809084165903
0,176274718747766
0,182045531493561
0,191896462476475
0,183982485398056
0,197021604463262
0,194013641609888
0,20553239664645
0,20595204456896
0,210702095426043
0,208496812366415
0,214925205306748
0,218953409540985
0,213223829639578
0,219291097512974
0,223625068986347
0,228474852272298
0,22690124312566
0,229625538463933
0,237771119552898
0,240089153679848
0,242639602091127
0,230745961674247
0,235014134930976
0,231541260113743
0,235558515550638
0,2321679483931
0,242922134567931
0,246713575274878
0,233333560538843
0,240273582522505
0,238308185420017
0,240313106359472
0,240771938661433
0,239589695303272
0,242071617383272
0,240361390515987
0,246454115421372
0,234222631546392
0,261443988495836
0,2425461035775
0,238845682150535
0,235746968499564
0,243078805204796
0,239566386111743
0,241340194566286
0,232568889815476
0,239585793633901
0,238093442469735
0,23638892545281
0,234953686033849
0,22982142023083
0,237032807137774
0,22723010170832
0,229164958208296
0,226139461500152
0,221880462045078
0,225778107759269
0,223089844184721
0,233829923383037
0,220462520477237
0,220711583465651
0,220252041010047
0,216909238624848
0,216185549898745
0,211734362237664
0,210556138248215
0,215270388890259
0,213995186311534
0,212364062993993
0,210961653976305
0,209583182412236
0,208251606344736
0,209526308137009
0,210632670768424
0,205295694882765
0,206245777528783
0,203282468074478
0,204774658640763
0,20473875464642
0,203603961055794
0,204030774689837
0,206401046965707
0,205378537634794
0,203811678274107
0,202450066104325
0,203868016837046
0,20093161024498
0,202298443286135
0,202333673422268
0,202395611300875
0,197913743827532
0,195448502542497
0,198618777487958
0,202174967095394
0,195372495632365
0,196292324199144
0,195760108590503
0,194937197701585
0,195221738256048
0,192637270993635
0,19443302280318
0,18812190804192
0,194509985513059
0,189745031930431
0,190244683070454
0,184324775807547
0,184016971377218
0,183959953542646
0,182118980005232
0,179994148306796
0,178290132517098
0,177543832771112
0,175691767746444
0,175195880849293
0,172240395191966
0,168731119149406
0,169666716498189
0,170049299299311
0,160542694136909
0,175817321639447
0,144095183494623
0,163050578229711
0,157676900828618
0,163552724552311
0,156599967932794
0,160796139369543
0,154850352052251
0,153424030847137
0,154193737555805
0,146079769704626
0,155652416880138
0,14861152768068
0,151441957561876
0,148424954081721
0,145035664720758
0,149286339775084
0,148965282520595
0,140453655020057
0,146065065820069
0,14667290946506
0,147868273113823
0,150026102283963
0,13889049527674
0,136086209262452
0,134059779956783
0,135558369685476
0,131732390719229
0,130265276925312
0,138236164909706
0,126310273042687
0,130164257367879
0,12683900795451
0,130076432648615
0,128381583983891
0,126674070736654
0,126770876691441
0,12367406045989
0,122345439927484
0,115711401615092
0,127261935242747
0,114835293793031
0,12119264685247
0,120153516252624
0,124096097738269
0,121164181692102
0,126303129889704
0,12508736430901
0,117510229253812
0,115841143428258
0,116338796787719
0,111010237875894
0,11699417108381
0,108175726121889
0,111963384069489
0,109517397973416
0,117187778633359
0,117462033815493
0,114614493382309
0,112226420399875
0,110857556553588
0,110744600762859
0,114439889608259
0,110222347281338
0,115071177027368
0,103986545338345
0,115926951176601
0,112863029420555
0,116956863070778
0,117877116654132
0,119331220907691
0,118776542243543
0,122897888418407
0,122786121118777
0,127106883773353
0,124947196499626
0,128509320506907
0,122616248998323
0,135637453104409
0,132913765150862
0,134959265571445
0,138855515890761
0,140779857908349
0,141607656280407
0,149774778288508
0,150713571369972
0,152376685419797
0,154456346181562
0,163260677860205
0,161425356455618
0,171974875942735
0,172911146538205
0,16908395714739
0,181110706534177
0,176187715360097
0,189091293952394
0,189548551644988
0,188757916845199
0,195993247939912
0,197897684823296
0,20225357367747
0,201411697057519
0,211065064917791
0,212624763364613
0,212276615277195
0,216985704842399
0,216818812177249
0,218282325869754
0,221176698356579
0,231010898036534
0,225116115592253
0,233121608781318
0,224055416379163
0,234873391015134
0,238407218710992
0,231543797596757
0,240246159109029
0,237191189905468
0,24350458029181
0,245464336052509
0,247322631076877
0,245846434623354
0,245610711462964
0,250151872887603
0,248295339784707
0,247712115603732
0,254397546302373
0,25319623169211
0,258507293569866
0,255807475931938
0,261490198495287
0,263123437248878
0,260636147504726
0,268383866177003
0,266406027369938
0,27479533784928
0,272489554510116
0,274362475244569
0,281901550429711
0,279774205802629
0,279145243062486
0,279662721457687
0,285938105257438
0,284449149300649
0,291179384732015
0,29001085962635
0,294600375177865
0,301633305850287
0,29290799800698
0,305188152361781
0,298690966357962
0,306373074092746
0,305264698753871
0,305316574249845
0,310320922904947
0,30302547882568
0,311605153826391
0,31170843058909
0,311773792567146
0,306725791417419
0,309819194783916
0,307702673713055
0,313563835016587
0,305979990518301
0,309089523202644
0,311170491814366
0,309004585042449
0,30935547136071
0,304833626365277
0,304939778454134
0,307871917799527
0,309282443094516
0,302504954354045
0,312460963704825
0,303762296143801
0,305678525710181
0,308980256666287
0,312663186996708
0,308561149097168
0,307487215034759
0,307440744873137
0,30707472398662
0,306744830881478
0,308146268135904
0,313707357968208
0,312771507647986
0,310970885630316
0,315612044486574
0,316162151088905
0,316943211069803
0,315769961362244
0,313716675900031
0,322611789443472
0,320518285444441
0,32555999192974
0,322893785601171
0,326377545770854
0,324412727376675
0,323235655837304
0,32301991757809
0,322334414391532
0,319956576062587
0,322370140364204
0,319012932230789
0,317165517217356
0,314794098553835
0,3137442663825
0,307557571451013
0,311065973720105
0,304813829037919
0,30332021934498
0,299550934813177
0,300950516046644
0,297215109017015
0,293178450564871
0,287109805188193
0,289435667765628
0,287269463477225
0,28429020532057
0,281276531861586
0,276661865058484
0,275677212531031
0,279269912887656
0,275726969763724
0,275158846060091
0,273697914432877
0,275771713976938
0,271008042348018
0,27024511813306
0,268305168604997
0,270568651796254
0,269411011118442
0,271568168149686
0,268727880476538
0,270917043320108
0,261815479515331
0,271531344571189
0,265280100096357
0,270660265676095
0,265598686664571
0,267489101681315
0,270806124785036
0,267525654723702
0,266895307940938
0,267516177636601
0,264338288279678
0,266056420119846
0,265377917037972
0,264028838382194
0,262497258396546
0,265381472015951
0,263244722738391
0,26690246492746
0,263830239004678
0,262401461437812
0,263898801417503
0,263140864988792
0,263180560819455
0,262266009850097
0,263526602415682
0,265358543239495
0,261686456937801
0,265279365370143
0,261560619093295
0,260374824822698
0,264462240126047
0,264676669357984
0,263052404397424
0,263088525659424
0,261324754543098
0,264861796827211
0,257440335656146
0,26175620430632
0,258111885480491
0,259930277044899
0,258314743244362
0,252999319956759
0,251397355079799
0,251754811062253
0,248832187707757
0,24721237994542
0,242440521396746
0,242528733878396
0,239925506516396
0,240778437762356
0,234333819082075
0,232491581345885
0,23176732542335
0,230034041815719
0,230983430471458
0,227200019870823
0,226482306024644
0,224794169934548
0,223299316119349
0,224597402366742
0,222961753588378
0,223368183925017
0,220789457548763
0,222782469104865
0,223657016736561
0,224166485408669
0,22206965695448
0,224788992382177
0,223116144078897
0,22454408305693
0,226664196214128
0,225130472861258
0,224805201152196
0,229509369315861
0,226641203173214
0,231393693831367
0,231232468226575
0,232821185397186
0,233348419554229
0,234172062852474
0,231890686860285
0,233371934189783
0,237495815279509
0,236435479817588
0,238696037555516
0,240333696680429
0,239745060742731
0,235614353955401
0,237755529695478
0,23937275854888
0,239168932485167
0,240498993578225
0,238642110682575
0,238387689401286
0,236856343090048
0,237087580336512
0,238026061044789
0,235064088371526
0,239147935312525
0,233326641908174
0,233203860501711
0,232122096908156
0,230819635844965
0,228760843605402
0,230659468839928
0,226771932137838
0,22779278883649
0,230967974069717
0,224992928817512
0,225275145116525
0,22669485761819
0,224156590395383
0,221493389988311
0,22525141969971
0,224101036400531
0,220095083911749
0,221477755502478
0,219414345201762
0,218476263409914
0,219315430292373
0,216919298429637
0,217105553652013
0,217309219842823
0,215914838440673
0,216657960099593
0,215951599816829
0,213362645478075
0,213216056351204
0,212333446066282
0,212069991488661
0,209474602930934
0,208136811425178
0,20946750403447
0,204837581197107
0,204576242910463
0,205608407748947
0,201967259312126
0,199985328726177
0,198483946822516
0,199105944538154
0,198828197070351
0,195115669388529
0,194893049589805
0,193114133703001
0,191643373304137
0,190416394300378
0,191275451122697
0,189572571292998
0,191727292619324
0,19072470472992
0,191196965519241
0,189891685276936
0,19056259378544
0,188460102647732
0,186336264503604
0,185610012266429
0,184901946630748
0,183172537071083
0,180740690765607
0,177629094359588
0,17850990832003
0,173554330672551
0,173334496263894
0,170595401245051
0,170021372888791
0,170294662668235
0,16957989848795
0,169553266047281
0,171975996128464
0,174598264267981
0,177568647700904
0,183441010984698
0,190813456207828
0,19722293965268
0,202373505682033
0,211794609379886
0,220103594538183
0,228981852105338
0,237237869713219
0,248810013762307
0,260412687882641
0,267409010264304
0,277331388116892
0,286704172971032
0,298347306364132
0,307917385384874
0,318894685576893
0,326546886696726
0,33783684385851
0,347672384860143
0,353872508379607
0,364110786718889
0,373064548241552
0,379534059223666
0,385873644469074
0,393499572467486
0,401167662134676
0,404360497351479
0,408010954118559
0,412561294436352
0,420612861375852
0,420230263927358
0,426001644595601
0,427469063609521
0,431537777589346
0,430273381134958
0,432259082185512
0,431258966599041
0,431424888193282
0,432482061397393
0,436066019159286
0,434775597846726
0,438195147520256
0,435502371244983
0,437989720942122
0,441680403419939
0,442899122331548
0,442374826757308
0,4452695440788
0,446378710081312
0,45021828400431
0,451241449252532
0,457411805046091
0,458277727168024
0,466725062673114
0,46931078293619
0,476303129564687
0,480942234610043
0,487687343697252
0,49501379270288
0,500914188951946
0,50854274019878
0,515217659480554
0,519905267835296
0,528981594979076
0,539745760094404
0,542437629559297
0,552277123418312
0,556803934092474
0,563183068926689
0,564174822841253
0,568063868576133
0,570018886305028
0,569794718591478
0,565803350422366
0,568997932565024
0,560208858261119
0,55891474892074
0,560735195426576
0,555973497174573
0,556404513870017
0,555601180723346
0,562152047819031
0,564638483595727
0,569622509878759
0,576781185683325
0,582963119016921
0,594860656232988
0,60466065183453
0,613486723712995
0,624560277294244
0,637949846382247
0,644616279000806
0,659961327856439
0,673784245831699
0,678997795231735
0,68795669162066
0,702202733638754
0,709438703395717
0,720962600645171
0,730840913854448
0,746097566828586
0,746847958829518
0,767055879423277
0,77776348694421
0,799446087866957
0,812710306942484
0,837934907026716
0,848491340119837
0,860981309717448
0,872231895701813
0,894283934737729
0,895358051692902
0,912001950050031
0,918109607892261
0,93955786745822
0,944545981185456
0,956278871610475
0,950651609978355
0,980592605608904
0,979189110376321
0,982589688337964
0,988683836807398
0,982029253714216
0,986625387228602
0,986502127040526
0,972441947901969
0,973955493581129
0,956713238409113
0,968396384678384
0,96095732228718
0,94349198043686
0,947557895301656
0,944007679006246
0,935463145133101
0,949666283189846
0,943843134322883
0,965666900227118
0,956047580852487
0,958902346359703
0,980649900339266
1,00176719110789
0,989523234177325
1,01045437700281
1,01072576958513
1,01302277717752
1,03124977210827
1,04297054003027
1,05458169009653
1,04852079486604
1,0498617559897
1,06438871719664
1,07894775056626
1,08485575536193
1,0737655442012
1,0650732930455
1,09434035806561
1,07522301130467
1,07263585716668
1,0857913633249
1,06407097029317
1,07999315711977
1,07783090419834
1,08513570799946
1,07723961328214
1,0664535447233
1,06401787854771
1,05442655337504
1,05048717591466
1,05935712262449
1,0630880227483
1,0450411600902
1,03795651500895
1,03806390470315
1,02733190309293
1,00517437684819
0,991933131148829
0,986521075398854
0,954094710274106
0,922485381697913
0,903985885649577
0,875107943728625
0,844337155559993
0,826951317434393
0,775910400999362
0,755772326444258
0,713779030538145
0,687563819104948
0,660654628269705
0,635767954217191
0,61435228332616
0,58892534139488
0,571994315800691
0,55938157956254
0,553737361318852
0,545463895658878
0,537250385561121
0,534959636238337
0,52658867800938
0,528640215504026
0,516883762908098
0,515694318223808
0,50712737753109
0,499055875860442
0,500116808195718
0,492616118132565
0,48266334232727
0,466095270521682
0,463858386372413
0,450888853221601
0,442599263722787
0,428337350735138
0,415492664060066
0,399188465927315
0,387622674833261
0,375246683904449
0,357841674859708
0,345606741281833
0,332725249024695
0,318281818219247
0,299022780411665
0,281597868649269
0,272623191537632
0,258788389711242
0,245488024103944
0,232268941159342
0,223113841188783
0,21045570809241
0,201881270696721
0,196219386296097
0,18872276903738
0,182194428924512
0,178697758677558
0,168637354687712
0,168080490416713
0,166630111186241
0,162500360474878
0,158746506682092
0,1569037072386
0,152997770178065
0,152949354002193
0,151810649452501
0,147477061416068
0,151806235171053
0,151533018182166
0,149346868448801
0,151483368421407
0,151455481584694
0,156645754860273
0,153454274768081
0,156154691378287
0,155528096727799
0,159220837758212
0,159497219312959
0,159111149892364
0,15841421092505
0,159515363673563
0,152659157384393
0,157781839687281
0,154851736617012
0,151540362170385
0,152425841059068
0,151730639259032
0,150366405374243
0,15036376269246
0,15069742899505
0,149369361180963
0,148816886492619
0,145767065421882
0,151034177045396
0,152108740989902
0,152584231231517
0,151557567321769
0,151072544148757
0,154099785032192
0,155702622018393
0,157563284323302
0,15872066275311
0,160780026537669
0,161611774831077
0,1604241883599
0,166601328464673
0,166653691071191
0,16876482318194
0,171478416300688
0,167665218143068
0,169874609405064
0,171909880218269
0,176696275511333
0,174360492199232
0,170948995059096
0,173331747670122
0,174932812996174
0,176569870411541
0,180218299871836
0,178663219964254
0,18245668967616
0,184896911450685
0,189779424450542
0,189301720135037
0,194526453948426
0,202367203263214
0,204976587710305
0,209288957360731
0,222827073757459
0,221107698620344
0,233376852539961
0,235228328974761
0,243020992245727
0,242859945526269
0,24556100018322
0,247307435962165
0,248192777683905
0,242523226774453
0,240351694360136
0,234914410387349
0,230085945867737
0,225140852959188
0,22191426232013
0,21635633249945
0,211676629851802
0,214037415585556
0,212682445175155
0,210796881546863
0,213241946443741
0,212346724614615
0,208618506579084
0,211890866016817
0,214350241261877
0,211571870102271
0,207014828481626
0,207112918168658
0,202621299765425
0,203224315650513
0,203886829236353
0,20121872338863
0,199803227145802
0,195939076290639
0,189888743329848
0,187834617113258
0,189814301174577
0,189984097803504
0,18562208025771
0,180610900785078
0,183225940522035
0,17979440315858
0,182773178352394
0,174561571914702
0,178696428365797
0,174683109414201
0,172884569269912
0,169809676171454
0,170580585986597
0,175046909192375
0,176017080317806
0,173338504848337
0,173613513668294
0,167871788720114
0,174178887414939
0,169266017439603
0,171409406595067
0,17100256510937
0,162657077711873
0,160546126816076
0,161905279028239
0,16028693855697
0,163001784802583
0,163427536579426
0,161562892798979
0,162019838736927
0,155214518774093
0,147913338396686
0,15545392648074
0,151929146260866
0,154714953321849
0,148137208817665
0,152258188671266
0,150921971323436
0,152983128743491
0,156144956006632
0,153644380647351
0,150418804411093
0,154922387653624
0,154504686444312
0,151801521180013
0,158082607887009
0,15687691364476
0,15825915036119
0,159982899681039
0,156591824947512
0,159029810819162
0,154817917553684
0,158081991398464
0,158618457267195
0,163887166957952
0,165425217804914
0,167512485890635
0,168479886156298
0,173000072532469
0,173270712330048
0,17099593375188
0,170970246912111
0,171307161164201
0,177203006838208
0,187097776924945
0,178760051446848
0,183826225496373
0,19786329916483
0,194375764165719
0,193103765077184
0,205608711845448
0,205591582089093
0,220041930641001
0,221988149122267
0,221034904155799
0,231591333150246
0,234772907979969
0,234902677221796
0,258241837464758
0,268168107523701
0,271457108768579
0,268151296564534
0,277773558146753
0,286127702760879
0,300225427501274
0,306375613739305
0,307191518168917
0,304603056711297
0,299823775338529
0,301077455212185
0,307538881013015
0,300566720831092
0,301162851850773
0,290013757566283
0,28987497894491
0,293801687822496
0,289054627286603
0,278081311659414
0,289681546464212
0,27541471236754
0,288367718548481
0,277509485450795
0,284080856812629
0,292516164512219
0,280006532933331
0,282716322810322
0,285943801885047
0,275052943057757
0,25093582505256
0,255748824020135
0,279124249235632
0,259358370679577
0,247922050354285
0,266655857732831
0,258700375788968
0,259160829794777
0,24515581052294
0,237692791339928
0,255006294298037
0,241878134457389
0,246355526225932
0,239927227256136
0,244269120026087
0,25608440175622
0,245488349074757
0,245588098731372
0,250255696498961
0,237522085609471
0,254050063305075
0,261889264909725
0,231364894853561
0,229989143397027
0,256577784972889
0,259082662969572
0,264064578444496
0,238182951018317
0,235278275634905
0,240150830135025
0,242296893229869
0,254441713263903
0,264313338584246
0,257302382011109
0,255126022222879
0,267224345045257
0,277483746861021
0,279596737605976
0,270888379278467
0,255247758284773
0,257930041907374
0,281548724667681
0,295556860940788
0,296389678914789
0,298499425406747
0,276841677398743
0,266645793803889
0,27722251947097
0,299455520236304
0,297153436218723
0,286154566253948
0,295823567711241
0,311577268501762
0,27565301192884
0,346550521980422
0,349323718467537
0,326666887529698
0,339564343176072
0,338190361137206
0,315710640714199
0,349325799806638
0,406362287451519
0,401059329609503
0,358029296953071
0,356406222477166
0,353044398815591
0,349295501796137
0,342412784488554
0,372725092087039
0,347944190435185
0,369164975653582
0,366346182453561
0,346902076709262
0,36696838568328
0,332006544614469
0,319523058601369
0,330781672090846
0,28949572679927
0,312402487243756
0,3641577460817
0,346956628930282
0,353139738671056
0,303251383372548
0,312312832473266
0,336390420436122
0,279890594488279
0,422223621958648
0,355776722045143
0,323152872006945
0,305854833658131
0,364196288841423
0,316643867776549
0,300574095317631
0,33762374277416
0,395761262515712
0,34035109611224
0,366074231351658
0,435870920197015
0,307357966626501
0,349959977476174
0,328619673939459
0,313082446881238
0,560540459348049
0,476501587384473
0,2918960974307
0,388045341155161
0,339046267641498
0,316083181054887
0,280220108816904
0,236637905219398
0,328120984296875
0,450212415365802
0,413198905490735
0,210958782551721
0,400132618572492
0,628793359751565
0,352626570402658
0,236107684222429
0,471077437169793
0,47540694233974
0,486897368409406
0,346722678215482
0,203700159035983
0,320113108175016
