3596
4000,36533379555
650,420452594757
1
2
2
0,00831188551191541
0,00253038992974472
-0,000210735933717068
0,00134857495326306
-0,00513357616646051
-0,003271759368183
-0,00234300976547695
-0,00148180967998067
0,000778051665889011
-0,0043076891473268
0,00147784248210674
0,0041863553307926
-0,00139624201312314
-0,00327338414354624
-0,000340254145544857
0,00280067458174855
0,00319700422094607
0,000999154398148144
0,00466311542161256
0,00221558266710775
0,00796540475436016
0,000588145393348318
-0,0104777500861986
0,000410482596637598
-0,00184015173576882
-0,00295209022499289
0,00124143387580298
0,00408610308784203
-0,000140108063331348
0,0036256689146769
-0,00351752996860464
-0,00628866586618795
0,000181224161259279
0,00116030988140029
0,00584460447556718
0,00733723733321577
0,00280736948283146
-0,00308040114485406
7,55079732078058E-05
0,00184359557688274
0,00441533924906652
0,00372377798866748
-9,92520611784526E-05
0,0041331883628244
0,00119596280871236
-0,00114398760275173
0,00414281343316661
-0,00283834220709042
-0,00445627906898914
0,00207994581501257
-0,00318978350549184
-0,00445673880327042
-4,01765541993093E-05
0,00141648739417224
0,00618999176237358
0,0058031919055219
0,00289360277472428
0,00391146081136528
0,00611068479594045
0,00387105484524402
0,00770753535155694
0,00800639342463125
-0,00294542021612455
-0,00517514978307902
0,0002171424758888
0,00255404358681953
0,00611163330478496
0,00170072646244239
-0,00389461190778727
-0,00214005695184577
-0,00301779788263463
0,00545997816792
0,00140867283692811
-0,0085364780416697
-0,00187985527121538
0,00740471623838513
0,00211481925852798
-0,00264467777195043
0,00210876213290039
-0,00116228428270885
0,00302764616270515
0,00590489448735992
-0,00204603060597547
-0,000549769037397642
0,00324835665014309
-0,00119640327982254
-0,000793582080241612
0,00596141707885638
0,000108990854286263
-0,00243903887108564
0,00098423158908519
0,00365734280069865
0,00272265684481175
0,00174143191275161
-0,00145771119210798
0,001381069349563
-0,00184337896847505
-0,000169409858962658
0,00576535988369293
0,00423132185624259
-0,00640986457353837
-0,00753076693810386
-0,00479474349381294
-0,00110375993658818
-0,00110760688759508
-0,00281141122062705
0,00522416888403005
0,00108449852289309
-0,00497510230667084
-0,00270258319669989
0,00186232529485277
0,00477409525591564
0,003465391677194
-0,00356943550805828
-0,00470221453551171
0,00184315128450345
0,00288002377980008
-0,00137510819712059
-0,000626657842264645
5,58470136793037E-05
0,0031823092015065
-0,00190422377231127
0,00229993329526812
-0,00193195432387533
-0,000784446596124666
0,00375269358544889
0,00741167511712186
0,00481647000290573
-0,00771739158996838
-0,00360291122828779
0,000723979125242943
-0,00019372841663424
-0,00628701229424804
0,0037249875922592
-0,000920887191247885
0,00657820872965282
0,00120403343979159
-0,00244009661466974
-0,0025645326762411
-0,00605618202650502
0,00544564653063002
-0,000858583376048114
0,00186047392392175
0,00834741472657254
-0,000254729530402497
-0,00338986098483879
0,00540561788863908
0,00543742210381561
-0,00170823640796048
-0,00189523986541928
-0,00594217374731458
0,00204418208039533
-0,00249507604590966
-0,0079873763885567
-0,000224843756606341
-0,0108720738401009
0,000934220977859434
0,00320974027302869
-0,00879394967959053
0,00115830518276272
-0,00192885868752744
-0,000306275424006775
0,00122450291848136
-0,000486530229576727
0,00556211166391053
0,00455292429895775
0,00262200321468791
-0,000997323097911754
0,00194117370069914
0,00167187376106866
-0,00328909168509729
-0,00437335139843079
0,0015147919676335
0,000268765179500576
-0,00218579578338714
-0,00589932469068757
-0,00564119561774996
0,00390049080417381
0,00145320822775704
-0,00139809663022957
0,00441199813352152
-0,00285065825189654
-0,00269701836766605
0,000538777404108015
0,000271541467414809
-0,000354844413513778
-0,00407652538799564
0,00314215986957104
-0,00349304221037793
0,00548964926693819
0,00425889005028563
-0,0112000633050413
-0,00348363624286454
0,00713711659596412
0,000946137707297065
0,00638069973497783
-0,00338703354576798
-0,00504566987311574
-0,00497526155448998
-5,41266245435335E-05
0,00577466446736073
-0,00515660643587714
0,00121024029981047
0,00198041602601417
0,000918751853943994
0,00338190819498312
0,00616599890187868
0,00438411371629427
0,00321172180397774
-0,00159794663102043
0,00554088408806115
0,006492629112463
-0,00653814032098364
-0,00251991368017668
-0,00511526675124115
0,00222258839513844
-0,00330875153753033
-0,00263033126846305
0,00115049265274109
0,00297353779246902
0,00682025089056064
-0,00377067655267752
-0,00823372649140443
0,00543504642523568
0,00447377177840543
0,00327730110665753
0,000237086190637647
0,00349040509479494
0,00431796002774256
0,00580434006493245
-0,00429383891450121
-0,00662990395155985
-0,00313360818721203
-0,00265707284630541
-0,00237695581426273
0,00265464847944188
0,00303095700847857
0,00188423316310368
-0,00089342546804256
-0,00422554059275109
-8,6700953596314E-05
-0,000316558748904955
-0,000745571062640401
-0,000234932439168707
0,000361642814032928
-0,00405127669341152
0,000218021379729266
-0,00382977338993628
-0,00372011161662866
0,00235878952182476
0,00236295036703724
0,00162218099666412
0,00496477340253933
0,00164706167061176
0,000573313993407512
0,00243764886978868
0,00218873644138198
0,000117036314609233
0,00612603475120665
0,000934114225319481
-0,00550335265075911
-0,000838536163777608
-0,00631688973653334
-0,00409520556710126
-0,00798526599594809
0,00360824255957743
0,00467067982506896
-7,65410132418497E-05
-0,000937576922134002
-0,00420835031597319
-0,00161281938088182
0,00454918212297559
0,00382342145901159
-0,0136563910672789
-0,00456900623139891
0,00462563321992561
0,00084514602425108
-0,0021112545270925
0,00576502753575434
0,00275113015335674
0,000645017428141166
0,00183434100388451
0,00819984893739285
0,00511758839267949
0,00470583033228835
0,00353742236410003
-0,00547970750576352
-0,00264736451630059
-0,0014667620311366
-0,000753729576191063
5,61823399332467E-05
-0,00020127202617743
-0,00313189720366828
0,000996165277800349
0,00763337644760494
0,00138327324543467
0,0062890967023215
-0,00995672390329767
-0,000156857548104242
0,00865889679690753
0,00186304641876456
0,00291632778159381
0,00427903453935564
0,00176607672722897
0,00976223722016026
-0,00345516626771433
0,00473755753939257
0,0103596123600159
-0,00187376695992903
0,00304361704370977
-0,00244046902142463
0,00358954431070652
0,00193955825659297
0,000137123523454975
0,00496822413072924
0,00223475201055724
0,00220506129653408
-0,00296255089016156
0,00543882168066423
0,000741563882183557
-0,00479638535281613
0,00220946023924055
-0,00374696431540166
0,00794958172852463
0,00366181317385261
-0,00411558755553548
0,000356495493828275
0,00372655431372713
0,00211899277361727
0,005678137536073
0,00871394179490659
0,000508209954761474
0,00437277176891685
-0,00328364093496701
-0,0022416673867898
-0,00139616651937152
0,00534238848246831
-0,000451846547819866
5,2223943794478E-05
0,00546625343941481
0,00344726341223967
-0,000326583818500785
0,00527945265703426
-0,00107288645407116
-0,00120734476079747
0,00695024654931567
0,00618918494191062
-0,00634830998097169
0,00710055391479452
0,00970752719796265
0,00403458478696072
0,0125714261571743
0,00520063195393359
0,00510134992685233
0,012197846682614
0,00501934455522041
0,00443201728857964
-0,00116633327394544
0,00278081967339685
0,00501531225631693
0,00548106837276424
0,0025605083388939
0,00615979920048892
0,00442062231723716
0,00537021866999479
0,00378004118685276
0,00539116083529169
0,0040587858932167
0,0105005872896009
0,00919924716544646
0,00638333003840864
0,000294574895980797
0,00417425070466231
0,0112051920380321
0,00835027232036977
0,00240273279301533
0,0110111825482754
0,00461844529992162
0,00287643435085346
0,0110405072496961
0,00858195839220224
0,0075565267179231
0,0131615406830258
0,00325249655067844
0,0104439659717845
0,0110512281447097
0,0124335014234529
0,012142251796815
0,0115652562832275
0,0124270575007103
0,00840364087751284
0,0124028117838197
0,0224467872668233
0,0103141939145464
0,0127575055685912
0,019729059059989
0,00715138036571451
0,00438234753748342
0,0197473582437612
0,0100866301613338
0,0131375889163735
0,0165658399926509
0,00882508729096055
0,016321794824496
0,0128071602769793
0,0148595404641489
0,0153019918217694
0,0176057590266133
0,0165235940291396
0,0166400540726788
0,0187623923726876
0,0232955570185025
0,0209618940723136
0,0230562829820264
0,0267690020476758
0,0190967366109444
0,0209467832352104
0,0194604842017754
0,018085918071977
0,0206692249324009
0,0205657037058991
0,0258051917579735
0,0206612249523242
0,0225644826823199
0,0200895826302205
0,0260416114881675
0,0280955474542606
0,0290104331256822
0,0361732279576756
0,0261178704039295
0,0364980676759427
0,0267350217996437
0,0325990306641505
0,0265393019236492
0,0330652850648106
0,0305258137475737
0,0353853064276326
0,0351804077972804
0,0356260639312149
0,0344476678243242
0,0408620434233468
0,0365666635694339
0,0374114901390757
0,0419566820497161
0,0431508044622936
0,0358339095570632
0,0413037408316262
0,0359988542897846
0,0374352929138889
0,0375967402124178
0,0404431722776156
0,0356245107462191
0,0393168749700847
0,0468968948517704
0,0416332589453617
0,0489410725116437
0,0486429976304115
0,0569613630919176
0,0529031231174178
0,062676249275397
0,0464083522496794
0,0581173926359338
0,0514317232454618
0,0455025147078483
0,0568582925124499
0,0521841357827734
0,0545672752728904
0,0593754714514256
0,0523924091463935
0,0463858227521745
0,0594166950426463
0,0533481929212339
0,0591206268153485
0,067340001127162
0,0654423831982718
0,0617948750892601
0,0597109745050744
0,06692927857768
0,063103293049567
0,0786514686324453
0,0621902517929579
0,0691907384334872
0,0734923112395757
0,0709925198667072
0,0761870754301498
0,0736908585467536
0,0813977389852006
0,0702679011379364
0,072830885151874
0,0766752716662403
0,0679396075933042
0,0754702853620256
0,0657465954793472
0,0757532971204113
0,0850367233235828
0,0906666687737894
0,0807972669265307
0,0794951662743497
0,0753724592952343
0,0920811488404504
0,0813518768842923
0,0884840166070069
0,0860164599369424
0,084955897087712
0,103704405980107
0,106624654749691
0,0940093600400454
0,0887036511330404
0,084742874536382
0,104627886848426
0,104405924924721
0,0977742104628356
0,113925163988405
0,111940353118712
0,0942120101340399
0,0994682242983168
0,0994747554158533
0,0991198101908343
0,10665842713654
0,118606327516381
0,0992146378619577
0,106415693751088
0,107578841217844
0,123568869178504
0,117223234211684
0,120225528002222
0,11539557050459
0,12578701313043
0,122627150506886
0,124400108422581
0,127021486258669
0,12101982842414
0,118498794038731
0,11747957097935
0,13262414676756
0,118284946921812
0,131194682566503
0,122538677390474
0,132043104590393
0,135507417840791
0,135042673845542
0,12928895230961
0,150273739794661
0,129354327101156
0,143196304950949
0,1391200761018
0,141407459299752
0,142979276045336
0,136502015343032
0,136953187980253
0,125248968124324
0,144398259008598
0,142299078802628
0,150760370901892
0,150300032629595
0,14372553324626
0,158162336460038
0,146956307318577
0,146749372946676
0,15385553772938
0,149349103360599
0,15587262372593
0,155679771418987
0,167946426557519
0,151346872505528
0,158677390637637
0,15829942888321
0,166178755715408
0,155451801951496
0,155106735606016
0,162213001530153
0,167005768700601
0,164136108839006
0,159450886992931
0,174884173154949
0,160544096763013
0,164974261938028
0,172210152959153
0,171934684592297
0,180952752585993
0,184868323694074
0,176689081980125
0,175662130464986
0,176032134771971
0,172963926369377
0,19511066646789
0,173878139319503
0,177319486871206
0,186446933117863
0,18561240320024
0,183563962710678
0,171320617098191
0,181847854130688
0,190384743740098
0,194790315073375
0,18858950066943
0,190290125879524
0,179947633632069
0,206802689207059
0,178339373082827
0,197790428859306
0,200982258406666
0,185726041819705
0,192028013104895
0,190110512912797
0,196332725272435
0,192366281432227
0,199244088275911
0,192911256634373
0,186790175873389
0,196893377254234
0,201544970679237
0,204209050745705
0,210891564171029
0,208206804810094
0,200186538127353
0,189427433358147
0,209578061164137
0,195667605964895
0,209304550705947
0,199288088503248
0,207078907152321
0,211886519996613
0,204631220440534
0,215658820446122
0,206900717138177
0,21001419729954
0,224060285790719
0,220295287969319
0,196879804031723
0,203638044084472
0,220856382341638
0,211122803595572
0,217222392238479
0,212962263990791
0,211331693381505
0,220840844866887
0,218726320464742
0,216668823186158
0,217983003417379
0,222947033724202
0,213917767055383
0,217348639209974
0,214645748807553
0,21929463222259
0,215717372642934
0,217061441932178
0,212918296073665
0,230783744674661
0,217985357185813
0,220618944897902
0,235534825625023
0,222974314092939
0,229061754608361
0,231279738626425
0,229096232427064
0,224291946390127
0,237177580690844
0,222471732330497
0,242690081731753
0,228545959337008
0,235915180733843
0,229203834753554
0,221650378293093
0,229301353925415
0,233219017364747
0,223933909534876
0,222937616786965
0,221747601803639
0,227389267085992
0,223912956930207
0,237006441311339
0,230236157184245
0,228903056343304
0,223412819611195
0,228604540512298
0,225620404245247
0,231268735800404
0,234221948583891
0,237110716316614
0,234081177019279
0,221799348447907
0,243982618359532
0,229716120388495
0,234372141492811
0,23031082652718
0,22850539697772
0,232808758006482
0,23636996421462
0,233163350055302
0,243604940418946
0,233801481079676
0,241015010351351
0,243552445605404
0,237524866384964
0,232259282965015
0,232198179954349
0,238080252410964
0,223744805590952
0,243305023162801
0,227123043785834
0,225033201245269
0,238919198577554
0,229330102505173
0,24143701593879
0,234823743876304
0,229684665996163
0,237746262161172
0,228565700176582
0,222594207534844
0,229132535431606
0,233762329612122
0,241782249123618
0,236401742539366
0,227129529223107
0,230569160098441
0,235091542405086
0,230734208565334
0,233588657238713
0,231201268550276
0,223611450240054
0,231506677295711
0,236928275961339
0,225239234882758
0,226793611390229
0,245264485593408
0,236948441000585
0,231244198729389
0,228071790063909
0,2398380623981
0,235927053122989
0,235552315545811
0,224640937824974
0,222765159773126
0,225869523182255
0,222627318749113
0,229102953919485
0,232175666674844
0,224947702402069
0,220795269635809
0,215265120986051
0,231276353865481
0,223684439149433
0,226491997400812
0,23149662292146
0,224719937478769
0,226517585300146
0,228059995189812
0,221568482887967
0,219981456389701
0,220187259834826
0,220867341467343
0,221608179380376
0,22397227346924
0,216771605241156
0,220182859489281
0,213008152714231
0,220489276546837
0,22224383122215
0,219794783537645
0,222426311770688
0,221956001138524
0,220565543978434
0,216809136974137
0,219776565273709
0,216614933562688
0,218087544716606
0,226769351818803
0,212305498846266
0,21481136788444
0,214983880372588
0,214024230199515
0,217975688937411
0,208414721913789
0,209030107213277
0,218790894506636
0,220974056019644
0,215693793894807
0,219571333904995
0,21477320261861
0,209113322304686
0,209844066153988
0,208189584890415
0,206885501693803
0,213301179080825
0,211634663307444
0,210537237093731
0,202952479279032
0,205516844521016
0,206307426327387
0,200457988206201
0,198421737208313
0,208623830408718
0,199399849615159
0,203458359449948
0,20219786481967
0,197896691844974
0,207119499894689
0,204165379245585
0,206520714236088
0,204029041153689
0,200805493321086
0,196927203366551
0,197059217018235
0,202736854182535
0,204007735566217
0,199704896974579
0,198425231128235
0,189991947348866
0,197684695567
0,199713287812272
0,196628154606478
0,187601284806168
0,18915287429654
0,199485705284417
0,190083705602633
0,191452625469769
0,189221823329266
0,185216587735838
0,185874810669716
0,189003356565003
0,180651828578887
0,185633902177678
0,184827821758773
0,187913796513139
0,195805666583304
0,18766898645911
0,182176048237572
0,186898926252705
0,187418634099855
0,182452099890395
0,182413685277632
0,175344082486602
0,183404208473713
0,178629969475462
0,175341934241602
0,181112840903817
0,174070367162019
0,175266989425118
0,18134716042887
0,176417018678686
0,17956138486835
0,176127003274226
0,172294447086116
0,172661647332604
0,176482978974754
0,164072062784051
0,168555057485113
0,173199049212032
0,171882171366945
0,166769818088014
0,172128613171506
0,163797148572076
0,166484188824851
0,166971662687205
0,167183122673843
0,173841254832664
0,166767946299655
0,164594488120278
0,164265574793032
0,158177408738072
0,158695776538047
0,162634645674256
0,155378434962943
0,155408027848804
0,153028484979814
0,155738317744055
0,15279821709648
0,152999816193602
0,151399284330899
0,15530294414336
0,154645051232244
0,154417376069376
0,154482173522191
0,146769486385255
0,153814120650569
0,14659003293203
0,152127335833281
0,148156395514752
0,149446590973128
0,143963377344862
0,141180505675022
0,147202288319596
0,150279485355048
0,147141614046609
0,138294380974386
0,140046318975591
0,138201297829731
0,140762393524497
0,136982745422965
0,142229931878665
0,141951187173628
0,141607182786177
0,139572757390287
0,136172489903031
0,130714440830997
0,138090603764925
0,137636658702492
0,131706924597742
0,127569488938579
0,133466146258511
0,131857917518689
0,128497244678325
0,127060082019238
0,131954678297661
0,123613372615475
0,121005414391819
0,129352551204174
0,12681889441742
0,122065328144434
0,125719331114013
0,125801010533793
0,125072551015345
0,129428192479606
0,123786915322404
0,118382397425535
0,119920410031273
0,118338547272996
0,114195293841702
0,120510309738493
0,121411380466345
0,115535365488644
0,11535108917564
0,113367255944206
0,119325764656848
0,114523696117939
0,119399793713154
0,116188039078662
0,115645350016341
0,112835644143614
0,110590218410912
0,111843867747838
0,109932429652262
0,107708810114367
0,114086693200533
0,113241184746077
0,105178441692982
0,109061041917119
0,112680440546922
0,105438472586774
0,101304977668114
0,101829032463689
0,101439436270633
0,100110390482507
0,0975506271317387
0,102667232365385
0,104004617993666
0,100007193380865
0,0983384904459669
0,101012506145903
0,101271142396301
0,100426506563061
0,0960543593470163
0,0981675639399392
0,096254457237463
0,0937187957920491
0,0995155731514639
0,098247675173788
0,0922224787936332
0,0924340202638724
0,0919613902585628
0,0933429574102367
0,091844607171583
0,09460557612687
0,0919798575352999
0,0935569719909645
0,0876361195390738
0,0881322307924017
0,0887020552797476
0,0863705313915559
0,0911092643518598
0,0898030900759323
0,0903500649236177
0,0900366705594411
0,0878928937049679
0,0872609364027051
0,0860512617108786
0,0805872401119948
0,0835584168642513
0,083466115181298
0,0843289109262651
0,0818787459673779
0,0811657680790624
0,0838075597119881
0,0819320266988484
0,0794329297129827
0,07998062370926
0,0830262202332088
0,0829344861526957
0,0789613554663681
0,0798290557212805
0,0786493234573404
0,0850362349431608
0,0771150692333222
0,0758193386023368
0,0750984957543206
0,0773438300999
0,0726132073952915
0,0720086767853042
0,0817076918472759
0,0737822431029714
0,069755058029324
0,0752558511984514
0,069176566799382
0,0726839953975323
0,0710871985553806
0,065375501599851
0,0693082154010748
0,0713027735655498
0,0695490052741677
0,0714763514372678
0,0699986175963816
0,0703065973092675
0,0703404379888802
0,0649115535198571
0,0724527532242493
0,067734399172725
0,0674577334195302
0,0662359182896353
0,0617559643026634
0,063827917495201
0,0702345837329589
0,0671633462206259
0,064686531770436
0,0620264304178453
0,0628505496474344
0,0639277398648411
0,0602360089589233
0,05990726215404
0,0627546282840984
0,0634946432197569
0,0607748844340328
0,0574686783620566
0,0595068456002814
0,0599568864027964
0,0606582589539916
0,0573963723409112
0,0590712151443928
0,0597742755202762
0,0610032427711205
0,0560361097349484
0,0603324639263819
0,0576963958425633
0,0547235652243742
0,0551427602460539
0,05403028535401
0,0573573137442113
0,0601594205065599
0,0534344009357314
0,0570795702275775
0,0542888994298937
0,0543375922977951
0,0522337150505076
0,0527592119223697
0,0541269640691212
0,0505554477061007
0,0512692302463392
0,0531106269952099
0,0537628916624683
0,0539630710509567
0,0523879691061027
0,0535330957984642
0,0527955651217021
0,0535252196372498
0,0515517541946934
0,0510709577112199
0,0496838858604909
0,0543076619375505
0,0500727711939041
0,048283641584913
0,0513469993599134
0,0537812295271788
0,0479989098730213
0,0473926521568308
0,0506369403531733
0,0504856382193454
0,0510246325264975
0,0526964742877724
0,0477346718936659
0,0522832410090861
0,0514951104858494
0,0465591259367783
0,0467105282361602
0,0508731753507626
0,0564175456311847
0,0556303345663805
0,0466971580978431
0,0481413762108725
0,0481511112318809
0,0516677749180678
0,0538738499420153
0,0492581210110783
0,0490439073577646
0,0501765261385016
0,0521267618425717
0,0561781033585302
0,0535743132918949
0,050636150902073
0,0556851229176366
0,0531339696860026
0,0493152046538014
0,0540416311679791
0,0513038357792322
0,053433156111615
0,0555318640034096
0,0532049699230255
0,0602339567730164
0,0603350823096119
0,0543027288777598
0,0565231172870355
0,0593202684999029
0,0555216149405398
0,0581267769995483
0,0597212488796304
0,0606767713431496
0,0614235589503843
0,0598177953915236
0,0594446232226034
0,0584183949926945
0,057400718239345
0,0603866916615762
0,0629508585475041
0,0655578056544351
0,0663328927465736
0,0646150366772522
0,0626798069096516
0,0630139515104592
0,0690619471994271
0,0702905416147362
0,0660016201880841
0,0690312642041058
0,071390505042211
0,0704197032899772
0,0715399872691864
0,0688525506790876
0,0711911756679998
0,0724673780712894
0,0751939230327608
0,0731715669818932
0,071889735441215
0,0742312814110788
0,0748274243764066
0,0750311718168376
0,0760199634287942
0,0744396498626803
0,0750396244369798
0,0802469974175882
0,0788417232542496
0,0773520160863301
0,0813878607521957
0,0779628604122033
0,0774438030009882
0,0790437743893379
0,0762778285813806
0,0781391372485438
0,0784551015938979
0,0780527532522588
0,0773170484296089
0,0745049832876512
0,0784927110064271
0,0805462136354299
0,0769894569158416
0,0805332403168206
0,0784449397639537
0,0766794625539641
0,0770768066947789
0,0765744531195158
0,079915925714573
0,0764572502985664
0,0798757726874635
0,0765281315183484
0,0754459171870504
0,0780441330263121
0,077730252298004
0,0779965631709545
0,0798894797404835
0,07805549802135
0,0746895703589461
0,0735129588434458
0,0776586440538082
0,0778147530342478
0,0755778580535942
0,0785585862109422
0,0776011915804578
0,0752844314458238
0,0755793397042167
0,0770837584270518
0,0770088172234805
0,0767051654057663
0,075805853434706
0,0770492499201175
0,0773143503857052
0,0746887204054075
0,0772777318914612
0,0799788491183681
0,0761699596264411
0,0762712127075633
0,0760556109023668
0,0766928043383298
0,0722351725462626
0,0720255432024432
0,0819905819763158
0,0757218863926881
0,0698294296696034
0,0735963822112063
0,073131263016724
0,073835424818021
0,0753070092542845
0,074191446774314
0,0748372508264024
0,0727301706952953
0,0695069524943924
0,0720545123427438
0,0768165626627586
0,0743000762319252
0,0720486975273245
0,0723691255535978
0,0696314748221023
0,0703981065741801
0,0697213400419895
0,0663362848247555
0,0673374608579572
0,0653640474274985
0,064343498251878
0,0630005414749757
0,0611987766628319
0,0641878385207191
0,0618437981190338
0,0612714765090255
0,0653479261665888
0,0625715294208285
0,0601120043655541
0,0623531936137589
0,0641530162875183
0,0583852037857466
0,0554073645263473
0,057143095881193
0,0567582540655337
0,0544410073996297
0,0538136834214622
0,0560806042615376
0,0549552917324382
0,0547561235550056
0,0532039380973126
0,0548505737311139
0,054850898347887
0,0535201919694523
0,0521301467792326
0,0500833987366955
0,0521083733604775
0,0485559364133518
0,0494746560402698
0,0491557806035146
0,0493543284077538
0,0476110117194639
0,0422484919019367
0,042739798525775
0,0450791878008109
0,046739811933011
0,0474005015726115
0,0467916831202712
0,0450597429717566
0,0440869363696665
0,045352368617557
0,046232636546581
0,0465615007204342
0,0446369549871063
0,0442798410615402
0,0462876516242951
0,0446217663981086
0,0452630662496821
0,0434844509012547
0,0409111274307469
0,0432473971693288
0,0425317577963941
0,0414126930584848
0,0428533291081968
0,0436089472561009
0,041713185047779
0,0379712906902678
0,0391139314371253
0,0431313699029813
0,0423892789662841
0,0402285274053881
0,0388861120155072
0,0419980238493529
0,0414362927963511
0,0395693967808988
0,0412104955745161
0,0376277892360452
0,0381983397364321
0,0404743431390546
0,0394394103597639
0,0375974404333941
0,0356326339992521
0,0359344437905895
0,0379824930982669
0,0385514469790204
0,0403139746347203
0,0362487976463084
0,0356571149498696
0,0345579251756203
0,0319836308384052
0,0338382710176593
0,0375703795701326
0,0372390990850034
0,0350823053509822
0,0380229847026095
0,0394537387876165
0,0357583015860731
0,0368383491963814
0,0362012771242409
0,0312170844485911
0,0349761989410655
0,0379008238281311
0,0347468081318539
0,0331249232460674
0,035631209257041
0,0366300529357808
0,0342412373278909
0,0360937730331493
0,033399015165996
0,030812348477603
0,0333121343940286
0,037334077211362
0,0392447495813251
0,0343685745196377
0,0360892520885492
0,0393946508899861
0,0326046873670075
0,0306392826427979
0,0296660546020573
0,0297178394908162
0,0329380422844589
0,0333825037305429
0,030555855653271
0,0310452575979038
0,0348355984926476
0,032524038370167
0,0343555308852612
0,0332766406825093
0,0323993328887963
0,0340843528656427
0,0315011163304814
0,0302004726039697
0,0309695491996214
0,0321801985506263
0,0303667789216317
0,0290255797476964
0,0318671233101141
0,0290399346086133
0,0311540330223547
0,0327661414163798
0,0306437315529006
0,0307470555806801
0,031486539832274
0,0288791833364243
0,0283567432478668
0,0302616570286291
0,032675515325258
0,0328998607848776
0,0341684209704847
0,0306411895146243
0,0310115567139972
0,0320921251898792
0,0313147707467467
0,0339994495612512
0,0315076007373481
0,0300814916971002
0,0302263949924306
0,0319922379935482
0,0318734764908055
0,0283834726507767
0,0300103476660919
0,0285111049275497
0,0270684693136188
0,029724668482722
0,0324128476689303
0,0314527903846261
0,029469305685388
0,0299986418278409
0,0301756752223196
0,0276912664343867
0,0291884474854292
0,028882053589013
0,0279051406817085
0,0298030104115082
0,0307634593682058
0,0332070397598083
0,0312948753277404
0,0302168199769298
0,0277846612118203
0,0271400872801177
0,0292327707945134
0,0295059599561255
0,0323135831272412
0,0284613471376928
0,0255559111765267
0,0255972421839839
0,0267518487054059
0,0276273682539854
0,027362854975873
0,0281423547227292
0,0259664331054618
0,0275375307518495
0,029120892034509
0,0275519278866272
0,0294821228289536
0,0287186818361725
0,0307960157352964
0,0257840129367979
0,0251251946843425
0,0272988970184875
0,0281584330854742
0,0280589513816004
0,0261509336579206
0,0236820274921204
0,0268442245311771
0,0263881402871571
0,0273148724866152
0,0257373727355084
0,0256395102223321
0,02532130674305
0,0245853763309383
0,0297337505237634
0,0283910035407982
0,0242117208176386
0,0270044990454503
0,0299969657733263
0,0247745911350494
0,0239829157457006
0,0271364262999409
0,0231674021892673
0,0280162171153343
0,0248677031128732
0,0240229840840102
0,0246818655310807
0,0224038380703008
0,0227699143442896
0,024592185626298
0,023119375275966
0,0244568858073309
0,0270575166556301
0,0245955327944149
0,0238631010974193
0,0213341628760954
0,0209356527298706
0,0209176625657046
0,0229191807399541
0,0234121037374774
0,0189265102393303
0,0214455314657596
0,0253810982717911
0,0265710078201179
0,0228397059150885
0,0215112664610856
0,0237760894915812
0,0219148605830476
0,0236856701206624
0,0222496309473064
0,0233476540417151
0,0218200755852689
0,0202516209961215
0,0218417354995493
0,0221145856495601
0,0204816942789491
0,0189134082862865
0,0223995654662678
0,0194977399854867
0,0212021307069475
0,0200056370649497
0,0237429172653173
0,0198407435282374
0,0179814038089405
0,0191721600561171
0,019716643952446
0,0201243823485353
0,0187215471475144
0,0206229060427686
0,0217337674054581
0,020059480021512
0,0199518905302161
0,0195293009591185
0,0185762658283107
0,0183682453947506
0,020613856060158
0,0183738015549471
0,0191717075597362
0,019463791646472
0,0187617794817535
0,0170210999101555
0,0186050021790023
0,017668093951823
0,0167329196427773
0,0171898997001734
0,0153409119898394
0,015466464554052
0,0177981651655135
0,0191684257891169
0,0178875971352341
0,0164239402166641
0,0157851290523391
0,0181973537946823
0,0186000720797515
0,0180849946928857
0,0160960899349548
0,0157671530239777
0,0169136401076053
0,0153602692429133
0,0175412833889534
0,0175386082524115
0,0156603658597317
0,0155404369414839
0,0174891774009077
0,0202201827368313
0,0172606795081234
0,0162958985821799
0,0160526585175015
0,0156827595007669
0,0188445472466965
0,0173194012571682
0,0171337772841256
0,020922079130513
0,0170319706355291
0,0158543657098851
0,0145783951390042
0,0172211864432983
0,0136431412849634
0,0167353766947064
0,0176987882685726
0,0181917662502971
0,0156415637811886
0,0173688765959768
0,0168027556790661
0,0137420220446362
0,0157806434611409
0,0135028445295419
0,0138281557164208
0,0161366428789996
0,0170189194286949
0,0165321231959176
0,0169722181882809
0,0149590369874162
0,01416924625054
0,0144574099516346
0,0148526629614425
0,0126579319653263
0,0149277306727276
0,0150395046285328
0,0151712358487366
0,014013142708739
0,01902893603508
0,016446889963399
0,0160718968425439
0,0162318969973614
0,0158220309169448
0,0159346467514013
0,015030648313036
0,0211575035141306
0,0170309807644862
0,0162732722511392
0,0161324167546479
0,014420894618106
0,0155493269492569
0,0128047901482292
0,0113529434931159
0,0144091639802494
0,0129215290516546
0,0153448918112888
0,0139741766229483
0,0145173971796758
0,0136247136202914
0,0143737344789659
0,0141460158096746
0,0141206009591081
0,0118407549738429
0,0154258203886715
0,0151219437265242
0,0131553852952888
0,0106632467824124
0,013230564690738
0,0155335744608945
0,0136026747491271
0,0147812250653671
0,0141059259458995
0,0147129817773125
0,0145430173892363
0,0117979553280943
0,012394079807777
0,012712957419116
0,0148363781380447
0,0145908232944087
0,0130827524478448
0,0117965011455919
0,0137159667671615
0,0147403712480861
0,0104266235433462
0,015789316022264
0,0143169621577457
0,0104645344041722
0,0140947196348813
0,0131081414719546
0,0133697415971505
0,0116762629401064
0,0127584811363733
0,0138674446533392
0,0149586243981071
0,0127986773026061
0,0133547081054034
0,012355107573192
0,013064776533745
0,0131338159378265
0,0139340653432639
0,0147241302182032
0,0127138950635649
0,0100216478640671
0,0124813895098708
0,0108981739820188
0,0120084365850377
0,0104318876785806
0,0136655723512688
0,0122331952767622
0,0124558249125908
0,0126222338273083
0,0128429903877741
0,0143522826446624
0,0131076655094389
0,0113440620790028
0,0122334474456975
0,0109264747713783
0,0109354604347306
0,0137482942265442
0,0122443578916637
0,0119537014006457
0,0139934279468347
0,0122530333344084
0,0123256464616958
0,0124584123819473
0,0116389446428501
0,0116342697280711
0,0128846887364268
0,0129287148688549
0,0124935310660857
0,012549935943269
0,0116677641007624
0,00972548906751621
0,0107530224349293
0,0112164149390689
0,0125685720508054
0,0106181765759108
0,0115912602631337
0,009641534746708
0,0116777947563485
0,0139630491811101
0,0103490584975673
0,0113286485340782
0,010968690084946
0,0102866347626482
0,0109731192182804
0,00942358946404049
0,0105799472954272
0,0115958748428042
0,0105151680046268
0,0113808364265609
0,00988430388196986
0,0111100805299546
0,00789247855885146
0,0101368307161103
0,0099775045805429
0,00779384158158123
0,00987748772480075
0,0110832354709377
0,0117070502097949
0,0108702323619246
0,00901326744974877
0,00741640269094588
0,00923782298942701
0,00980379182409895
0,0116168752688228
0,00955568724608958
0,0115727028923206
0,00829674208424893
0,0107903942123256
0,00794172163417334
0,00889328715658483
0,0098592488960695
0,0109179062667889
0,0106525695894305
0,00825191407714475
0,0100328449513764
0,00974883731554186
0,0080789860947916
0,00835905261706493
0,00615035472701883
0,00820325904931019
0,00851667203276017
0,00834140035879224
0,0103033691285819
0,00794539365206255
0,00834836308289901
0,00832053491278004
0,00626764070935553
0,00976272615620172
0,00738963975923462
0,00925527522190898
0,00928997887561766
0,00891065265936552
0,0069272796377387
0,00796912816062722
0,0077542710021239
0,00620805364209975
0,00988717174190989
0,00735022297250726
0,00958246563712111
0,00951116312683988
0,0110530195691446
0,00872472343071971
0,00730376599239993
0,004876499190186
0,0106836489232657
0,00827905887145741
0,00622969915072509
0,00732044813545182
0,00546072997556733
0,00669376500940188
0,00914923616844721
0,00782418101903925
0,00731376928355388
0,00941253040334855
0,00877909222098253
0,00598351154792961
0,0070168492803067
0,00633761375698756
0,00554879374304034
0,00627164827289177
0,00692745264655682
0,00582180046763028
0,00650965546617325
0,00861118716055402
0,00758191013884838
0,00558071391634564
0,00628768097941717
0,00202561351329061
0,00461351040274296
0,00252833304256866
0,00795638943887074
0,0037885157084692
0,00409156315374207
0,000153686382781156
0,00345056463789499
0,00123400009169733
0,00432397142382943
0,00149292898682619
0,00140022982365899
0,00305363623278577
0,00160358629348635
-0,00340834395704157
0,00359256803178403
-0,00224265523326562
0,00247236796373054
-0,00192295595392447
0,000314092589942652
-0,00228316330512815
0,00123688143244921
0,0010563098316909
-0,000127078112908794
0,0037054156139179
0,00309476177532651
0,00237842343119677
2,05144869944277E-05
0,000362847912728793
0,00292942080527923
0,00549861334156616
0,00546235088761788
0,00189661744401382
0,00158011437871511
0,0061903381006017
-0,00227899515037944
0,00111888057168731
0,00087987231583761
-0,00131559826036896
0,00107243395392493
0,00633617065830354
-0,00193999410275105
0,00252198800784664
0,00156686119477756
0,000588362196480851
-0,00257873474668994
0,00205844363212653
0,00401177338311315
0,00018475608572184
-0,000825145407363965
0,00175305267715927
0,00142749764432722
0,00374661407493039
-0,00193742797645536
0,00316724374680791
0,00234151110838999
0,00394021244585498
0,0014067748084523
0,00394988614992818
0,00371250194158862
0,0031115345449452
0,00201626936903431
0,00311132323524411
0,00236041548433442
0,00358539859857239
0,00726826412692297
0,00156270218400133
0,00581742640347125
0,00365115384646952
0,00640967996067199
0,00220846815648822
0,00495179542184622
0,00241128728980656
0,00514025751843963
0,00489905301110396
0,00430474619450102
0,00554679753715033
0,0057350348081115
0,00742916926377679
0,00414458841537102
0,0054246208079821
0,00192404473507899
0,00613986771320072
0,0046161704994746
0,00460594863176057
0,00587832316161208
0,00481502460165414
0,00560599600504648
0,00718650417338146
0,00636735909769273
0,00617475183104816
0,00491233045807722
0,00677004428240694
0,00798770660217803
0,00610455868576403
0,00533619973507934
0,00357504395771979
0,0064395123424504
0,00657765771625912
0,00816667585957072
0,00580923431899241
0,00811001031471168
0,0061258686573566
0,00528499413644599
0,00604131462983801
0,00764198810902501
0,00631192067678969
0,0047794887864161
0,00505007072583185
0,00577969015589849
0,0067865793767863
0,00569713767744788
0,00432271486433709
0,0032956187999219
0,00529287740970737
0,00610996030557655
0,0064512637509599
0,00658871122454145
0,0047695277572483
0,00780479889970495
0,00333740112785063
0,00426954813764258
0,00593707286647981
0,00505977176879675
0,00575422463248479
0,00579961240286278
0,00700938761285906
0,00616129990000867
0,00613478217297757
0,0067196236873199
0,00487618322254099
0,00716936093280226
0,00693511550601555
0,00675426797662788
0,00581670732389273
0,00590609362017636
0,00695105801625613
0,00434667989610095
0,00466655143333261
0,00724564573683787
0,00614798445675278
0,00573868541584762
0,00595435680286985
0,00483474281458287
0,00644903602866112
0,0067814227744688
0,00452374431490923
0,00488124004571026
0,00603858712995362
0,00401943091670865
0,00571842947690677
0,00621409917087696
0,00829889094963608
0,00599834726768081
0,00507880358429739
0,0053395716523009
0,00632498487329692
0,00669148201427932
0,0074013452751629
0,00848146780557782
0,0075778765199407
0,0049217169994901
0,00519385520891926
0,00655744234662382
0,00519212911269928
0,0071352478262174
0,00458732652222934
0,00462596813593246
0,00648060808434253
0,00744306053118345
0,00574767627512553
0,00665874535090931
0,00546373809374057
0,00651456684947583
0,00720790012066847
0,00600018152724214
0,00818320002368535
0,00435643488043095
0,00666051870755478
0,00654502675673058
0,00565872200829908
0,00850723953056819
0,00560315310629798
0,00553989498697075
0,0057961851046823
0,00495323649767853
0,0066870086580304
0,00655261589725092
0,00724180139331864
0,00667436202914059
0,00729782869625989
0,00881745286649461
0,00465184946246027
0,00717713621102885
0,00566609028698472
0,00836587352760177
0,0059440950947153
0,00651204212081246
0,00509928932506561
0,00473585312913186
0,00854124310074333
0,00638856050486406
0,0068201669489463
0,00787077668798299
0,00602746156692744
0,005519756151725
0,00551991824158388
0,00859046065060517
0,00677579415794221
0,0073759643094039
0,00835364537958611
0,00586431708971359
0,00755563386185148
0,00654056566330893
0,00617350503878769
0,00642553346041416
0,00701894143776794
0,00663767737659664
0,00620610480784159
0,00691101811062976
0,00959581171127575
0,00558011789817115
0,00473479718364426
0,00723065326913723
0,00408285999128779
0,00644669828715344
0,00783894187870734
0,00571393758253001
0,00558028095473244
0,00605081067355772
0,00732699533156973
0,0072286349316417
0,00807222601535119
0,00709807825928057
0,0078521547258121
0,00881452060278495
0,00771292260993239
0,00782681966141039
0,00734674146583379
0,00717706806454409
0,00360955434530827
0,00713233468802709
0,00771744987546145
0,00813304256144025
0,00560123269555574
0,00884474190018695
0,00699328534077092
0,00597049876532769
0,00727771077659717
0,00521825485016158
0,00832942035227841
0,00676898952681853
0,00629982930062269
0,00846353312870732
0,00660248184341087
0,00679065009465967
0,00823536343577172
0,00687427649702183
0,00619179705990055
0,00695355651742451
0,00702637344562613
0,00512070410558533
0,00579394888903592
0,00581019934226266
0,00761662822993852
0,00862979545322652
0,0069890170231754
0,00797300579634187
0,00620830874851303
0,00599270409269348
0,00494493120392939
0,00773323439549219
0,00607161474281808
0,00698770803774739
0,0078462147648467
0,00741373999911152
0,00745796217313672
0,00578147423630843
0,00746028443165425
0,00671658372426655
0,00649813153549675
0,00708345611832064
0,00542097718129793
0,00950892278530239
0,00797802446266152
0,00661219566668349
0,00587926876890613
0,00715217118101896
0,00535812760288602
0,00734831185505769
0,00708229428646249
0,00547366956507852
0,00694943436235993
0,00774615161842548
0,00581776878858093
0,0066606486159618
0,00677060076332622
0,00708737372057892
0,00673316663670834
0,00434053707814351
0,00858379746827787
0,00690115032293509
0,00799425611298803
0,00621775687587946
0,00670383920806474
0,00269241330171779
0,00611595986445301
0,0046642321051129
0,00618273244174534
0,00768459272455909
0,00537224770751013
0,00533343966944651
0,00488632473906116
0,00483192693604566
0,00791558051347585
0,00522923404829493
0,00373789062026308
0,00477604009579827
0,0060701394577705
0,00617542245984324
0,00775003162372377
0,00583097681131459
0,00676553506002267
0,00499365413274103
0,00791627432513739
0,00708491791581235
0,00732205618550521
0,00704607905435112
0,00508642427013272
0,00821734924423151
0,004646636494783
0,0055793735400232
0,00791302353471756
0,0068578571138609
0,00734284392898127
0,00708591648336152
0,00480106827235446
0,00704071460362637
0,0080672061638976
0,00553729173491208
0,0087281287319804
0,00804562029369742
0,00672331869186645
0,0079814444752703
0,0065015010399264
0,00665162533168508
0,00650885784893327
0,00646980021797474
0,00564571512598902
0,00699037742412677
0,00585382075542966
0,0060446097299708
0,00449899372650645
0,00563842039222853
0,00703093049870207
0,00680984994639588
0,00691647273451378
0,00688176475012868
0,00621298298482015
0,00483829042029358
0,00471393269429136
0,00571053087402921
0,00561779749582858
0,006191468603348
0,00666852750547032
0,00572163231198886
0,00738423267478103
0,00681418750285023
0,00697800267366169
0,00715816073304856
0,00670714087761663
0,00658061394728879
0,00552154079365444
0,00534992011015806
0,0051431125533754
0,00661003472482095
0,00730616221744142
0,00720143084484119
0,00527457933586037
0,00608209455481003
0,00572619094119446
0,0037006615693323
0,00560472825903843
0,00279159431399172
0,0050610459746873
0,00688796627329695
0,00494054106251696
0,0059511834327019
0,00630612192834181
0,00554791219435244
0,00718690384545478
0,00506222227147353
0,00475512959043148
0,00708075062313874
0,00748335741368168
0,00567822112344091
0,0062286018131535
0,0073967715711487
0,00569272410371433
0,00592183933480369
0,00551825320260369
0,00499920021375773
0,00448050595610815
0,00551135287693115
0,00350280802781086
0,00586101495639544
0,00530289629255887
0,00688692519386926
0,00365502172679882
0,00253170464614906
0,00628619658152834
0,00518034660861071
0,0034246406384279
0,00441624278560944
0,00372090614685454
0,00477686058405373
0,00680025594184245
0,00436314740373508
0,00711153009588061
0,00697953776509481
0,00536949846554841
0,00352105261623094
0,00454900029850312
0,00576657070752948
0,00468021618601481
0,00533908573330897
0,0055472611295454
0,00636750214286826
0,00492757942706687
0,00536728191496923
0,00439222625622452
0,00708216048295976
0,00579885838293001
0,00398065375957976
0,00392989981786348
0,00701853309781872
0,00543301625248356
0,00546550536557925
0,00448627949477047
0,00344751927475638
0,00397195542263577
0,00325183332692845
0,0041610444560782
0,00615149187439786
0,00662334320957789
0,0048833754477643
0,00588852519984288
0,00555058440182242
0,00607200028338232
0,00556622586431238
0,00320351954000808
0,00480354194175771
0,00538015753534909
0,00518782383904627
0,00434893194793525
0,00424974729298868
0,00475284219958412
0,00493500205195661
0,00542227142853233
0,00567935644531959
0,00516191314403605
0,00389481588314889
0,00554464055911211
0,00487570779703134
0,00360279905881615
0,004032178405683
0,00355479658860866
0,00407784323562946
0,00512286449333736
0,00627251360783064
0,00453235613687067
0,00360015261200991
0,00641123727221227
0,00366935493234048
0,00455197551994396
0,0059926671639233
0,0030211964613248
0,00424326489904732
0,00456223022444244
0,00607018951573883
0,00570060817832286
0,00402441850268676
0,00541541257288891
0,00579441630882539
0,00519223753557566
0,00524926157394188
0,00383514173110256
0,00219877401514942
0,00563875521926873
0,00313637329335909
0,00340259118251689
0,00533115969987125
0,0054332669147371
0,00501670805129505
0,00391977430852546
0,0041834440315607
0,00499092115234671
0,00448217532507165
0,00499155456906841
0,00509782695814076
0,00589026645038006
0,00754774196447385
0,00509327208048932
0,00403520027676528
0,00689039161582995
0,00516991446650453
0,00572613527422686
0,00437295120925505
0,00710917144843851
0,00468945596025919
0,00484386773205425
0,00372487331474024
0,00291903615884473
0,00667606198070647
0,0075660560271198
0,00616781228347541
0,00527103253371109
0,00529042147267563
0,0052327174416665
0,00508434534768619
0,00561666804280535
0,00664683837988086
0,00572536650067637
0,00516445934780558
0,0056010860218877
0,00413524973392538
0,00394826399637024
0,00465707351162032
0,00350578751747259
0,00404118677630443
0,00466497245851912
0,00353975654070195
0,00379555354447515
0,00479078501103768
0,00504078629494894
0,00497481429246436
0,00705637526426605
0,00493465888612579
0,00465854165873253
0,00566261829067506
0,00504216952057114
0,00391365841063344
0,00525377106520847
0,00610759132313474
0,00727522838861755
0,00533922504156578
0,00531263309781355
0,00533755588236111
0,00474938560324254
0,00327978396976055
0,00319229388266577
0,00367049867612963
0,00345841073754649
0,00455663637208003
0,00650852478202194
0,00547442657814782
0,00451158631852867
0,00447273950655397
0,00585346982589985
0,00559773082700648
0,00495965400100567
0,00607338348911964
0,0041120702400149
0,00346814199886756
0,00347559825486537
0,00467047966762438
0,00632867594212557
0,00472625739264214
0,0078444692671585
0,0050379286834664
0,00450632858573555
0,00822652263148665
0,00247116155161633
0,00322134476897956
0,00640242320049119
0,00685268747517724
0,00570135711324389
0,00508756485783347
0,00411886621667798
0,0045675250090141
0,00463999404945835
0,00556240327939888
0,00525985020624789
0,00527989772975752
0,00520647723872962
0,00342053553636203
0,00352388342514137
0,00403642224984934
0,00617390664984528
0,00692330913591209
0,00637094162063978
0,00649537472893987
0,00270115389492488
0,00425586132793974
0,00575913819167952
0,00462360510676315
0,00476198362529978
0,00512580271149008
0,00594425559420532
0,00513123188384994
0,00656078123551627
0,00655353708834015
0,0042671488455247
0,00505204604359259
0,00632020038097676
0,00620795648171767
0,00704287231189423
0,00485449467068215
0,00491702974843539
0,00737011002564836
0,00554333079529554
0,005457717261213
0,00596057644666524
0,00657901501239811
0,00642766568716817
0,00511822726437774
0,00409460474607327
0,00600685160071257
0,00695385027992143
0,00445082733853474
0,00366324958543896
0,00359301582099954
0,00524842564580744
0,00789967227610107
0,00741401683733007
0,00569886094495741
0,0073922456472912
0,00761064636516231
0,00702798456005278
0,00653272580622771
0,00506541097676063
0,00509922853684011
0,00735889307916297
0,00620186843613412
0,00570553429041668
0,00759935790986965
0,00498454753749616
0,00708716761455062
0,00776826968275307
0,00671933775073509
0,00640594135891491
0,00514206044040326
0,00423989376936429
0,00658413406135755
0,00723662820031752
0,0074790775160836
0,00797526544359421
0,00874899439988957
0,00845937965244588
0,00606399312786147
0,00623982083310119
0,00495624424143658
0,00680294220140266
0,00595788087195011
0,00415743655747515
0,00470238025517499
0,00605761162068402
0,00704377234705776
0,00685067406013439
0,0100480280096309
0,00889882185126608
0,00664896852533742
0,00575508788843544
0,0075358876311761
0,00972847229464851
0,00785817955144279
0,00817328008811495
0,00876079423921399
0,00686555156983347
0,00604540883128221
0,00947247095971997
0,00643827218160772
0,00595168162340759
0,00956453512486053
0,00954641715183719
0,0100294720929318
0,0098861553935796
0,0111180907825075
0,009948355482913
0,006999494265548
0,00756209692682221
0,00768321499332967
0,00743598823050252
0,0100943760901096
0,0102356833339419
0,00891204251936915
0,00862241405638005
0,00932703384219095
0,0112704824972297
0,00877084274342094
0,00914168823589996
0,00873363135981792
0,0102834668057606
0,00992479217561866
0,00941663418369819
0,00962159805209362
0,0101389672688915
0,0124816053837615
0,0148116652974656
0,0127654543332213
0,00952963318824844
0,0115381721783297
0,0100532563727754
0,0123970830932973
0,0148706395914027
0,0125309003552653
0,0160312788219802
0,0230930366483426
0,0145590249200834
0,0123848243898207
0,0144023521545847
0,0140083152480409
0,0115930445097313
0,012425680299417
0,0138123938516273
0,0128037790835737
0,0140836461984302
0,0141646782057154
0,0139804662226542
0,0145078057039924
0,0149050084017493
0,0170991881639302
0,0158593914641774
0,016802588279916
0,0188322264004704
0,0183780895288557
0,0158814637663531
0,0194622950145612
0,0169098580105379
0,0184789878351239
0,0252225213551791
0,0189453048591842
0,0191281900366375
0,0215526618875283
0,0215956555122994
0,0233445857768483
0,0250720681420893
0,0254051138160915
0,0226608122569041
0,0260018893468917
0,0287229600577596
0,0298298751061177
0,0309931770958224
0,0259143736467204
0,0357617084379872
0,0316176382096605
0,0349752063249953
0,0381952167406275
0,0337013362510499
0,0360090988245801
0,0381050529752321
0,0393180267511942
0,0395021768805132
0,0424646583033844
0,041821953797484
0,0426609677124592
0,0436150409378004
0,0447311737861689
0,0466101134969113
0,0442860211764409
0,0479904926208278
0,0495967271113265
0,048563302247267
0,0499704291038817
0,0537132815782533
0,0540286029782486
0,055230261156879
0,0577096593490694
0,0534581006350564
0,0555379151706919
0,0572231002339609
0,0568699263875278
0,0595022771580377
0,0595843151796043
0,0603214235725498
0,063790758783392
0,0721403736811839
0,0736858262625394
0,0581833426328017
0,0576924132320173
0,0618513300121183
0,0603107998269551
0,0611836258539502
0,0604392778566278
0,0621424399203423
0,0599198710282405
0,0551490494270573
0,0579101508247577
0,0591823826109249
0,0588877369170023
0,0606184816701129
0,0628707206222054
0,0628549443158639
0,0615260934178565
0,0605000701504811
0,0647020784233903
0,069030577565264
0,0639977251357498
0,0614497577573206
0,0615560124234219
0,060815155843713
0,0573370492894354
0,059388391464687
0,0644135242847694
0,0620538502357636
0,0589813077169283
0,0615696146821563
0,0618667144483438
0,0585388286770684
0,0630957055429057
0,0558013646054446
0,0559810286486493
0,0612442591028755
0,057780284128021
0,0567825122207859
0,064862961988717
0,0583620503328471
0,0521326651323583
0,0541034630792678
0,0550735145707089
0,0544314282138255
0,0568281861786449
0,056517666299474
0,0549404057470102
0,0549580796232323
0,0529807313431782
0,053667360281599
0,0516814934366163
0,0532759458506463
0,0529869046402229
0,0508866063588346
0,0547414597661889
0,0541263379954972
0,0522115354769731
0,053162259137213
0,0534985775876893
0,0517087862406416
0,047811537383868
0,0483793063346286
0,0517587672502598
0,051562969056577
0,0498651017370317
0,0515899590383678
0,0516878447801044
0,0534768773389126
0,0519200637426309
0,0506094088667051
0,049607007747694
0,0483218060988408
0,0524682425893702
0,0503073900678646
0,0515831193804175
0,0512609196500066
0,0510444413335789
0,0503760509263499
0,0495867232837717
0,0497310654464035
0,046589315489718
0,0500203329270829
0,0542510897048277
0,046347677049557
0,0476419591370797
0,0492831459771875
0,0465930509662796
0,0465358556823678
0,0469820560806269
0,0490984577131404
0,0451487088600166
0,0420432001350348
0,0446717484104561
0,0429772035656741
0,0452110550426783
0,0433657414146458
0,0426958450748113
0,043930148836351
0,0444360594186014
0,0568674588993625
0,0480928839205546
0,0437722215195965
0,0438554870174508
0,0360288440466586
0,0415486446957263
0,0433242097818631
0,0417740850797706
0,0385213228926705
0,0395359514771681
0,0385367392222974
0,04158756487565
0,0395563859150527
0,0351963325704406
0,0362424469762132
0,0396629718439819
0,0404262034177605
0,0366898805539627
0,0371511463080572
0,039374129492416
0,0334964425312561
0,0363086245974519
0,0458740620575409
0,0377688165559959
0,0320325341188974
0,0352283124596699
0,034696678951318
0,0331418031914221
0,0368071900991376
0,038001210479017
0,0360642448978764
0,0340009551071778
0,0308820148816537
0,0338622632814383
0,0355894407295682
0,032179011363559
0,0316123910040706
0,0340561721484649
0,0316241844290657
0,0286053990798421
0,0320605350690016
0,030886585352011
0,0316192529367614
0,0345387121330524
0,0316487380396126
0,0257061985348371
0,0318267092932162
0,0329398388767879
0,0302001715924941
0,03160092388961
0,0295936147983186
0,0322063204380228
0,0282060584738726
0,0281539743654184
0,0297490299517741
0,0303293276114441
0,0290370546887197
0,0331950861042998
0,033173545662295
0,0264624995796004
0,0263780494290984
0,0244521395863866
0,0299471019388155
0,0305927151717694
0,0286276546300832
0,0299833478756349
0,0299852234800806
0,028422938011578
0,0316586760443458
0,0327857125874648
0,0284699863146445
0,0281329382030051
0,0305165616256502
0,0310452735155709
0,031597249415819
0,0367804009222336
0,0324065305039514
0,0306205208124468
0,0318552638884309
0,0334031709635214
0,0310479137770622
0,0342026203946817
0,0344687388626219
0,0352976100499872
0,0361170848672532
0,0419150624038544
0,0405919818992093
0,0400616140310431
0,0424968455269191
0,0427424418543541
0,045173173912234
0,0459704289315826
0,0430376469932929
0,0517214118127592
0,0484848846013436
0,0486825026769675
0,0468319122679657
0,0488959479267834
0,0510384790276544
0,0509247973793001
0,0507529609489055
0,0533663258568095
0,0572366121278865
0,0582940856500532
0,0525335470641225
0,0555324634596245
0,0555718239867335
0,0558292152461833
0,0567577542384415
0,0566399320400834
0,0529573399199869
0,0705349962159497
0,0615989829827528
0,0597175363879641
0,0614315194657267
0,0577637750249088
0,0629641282182764
0,0654432496913886
0,0629479582610371
0,0654173050004249
0,0628601455331505
0,0653954586433467
0,065704959623825
0,0648349262237708
0,064974971899292
0,0657496311656217
0,0641759484825988
0,0664482193914746
0,0669180946609616
0,0684168128609792
0,070045894390542
0,0651482410410554
0,0712700263018567
0,0765600752299882
0,0648830992418568
0,0689218497767462
0,0715959882139711
0,072262242376162
0,0731417079118922
0,0745133025411635
0,0744570352862996
0,0741701719484905
0,07045832224497
0,075342850862705
0,0767559559882042
0,0756190971455815
0,0791722405220106
0,0795807394743917
0,0757069332531713
0,079415168356519
0,0770949851284261
0,0864240481481002
0,0820211221115983
0,0786236608021849
0,0799064024718013
0,0822655109606589
0,0804353560013687
0,0800845339427687
0,0811294128515439
0,0809354580494158
0,0836865221944223
0,0822005106357657
0,0820381988767424
0,079747442962521
0,0829890119249377
0,0801117118868786
0,0799091426021562
0,0840667694426794
0,0783375485483495
0,0792854980035665
0,0816652474382668
0,0797984291576905
0,0796194529213036
0,0834156317158118
0,0811642687086231
0,0793349428154829
0,0804456284070964
0,0852068904104901
0,0841137863691033
0,0770490686759715
0,075167236823822
0,0785132376655473
0,0785390518865945
0,0807315878919242
0,0812939069303873
0,0851523769156042
0,0807234199725154
0,0791317579733791
0,0811431314770028
0,0821422198757597
0,0811423363780957
0,083106330769844
0,0823663138765033
0,0839292508642022
0,0819188960740004
0,0844619545809837
0,0843967526234272
0,08447626364057
0,0839826202990171
0,0841645679487468
0,0838689143827867
0,0862976560775598
0,0828585739447713
0,0846153384492354
0,0819663719063086
0,0819065135060756
0,0812778582460817
0,0810665055161968
0,0798416967610734
0,0809921758180738
0,0766899685087514
0,0779154032964682
0,0810286768382195
0,0755908488981699
0,0771942938868346
0,0767483115752134
0,0745989135297885
0,0757932454792375
0,0736518623854822
0,0729181214994014
0,0740015198316127
0,0732660762410385
0,0730111402210349
0,0712940935870888
0,0712274855035466
0,0734027518907347
0,0704918059993461
0,0718983926243813
0,0689179244598535
0,0686298041140746
0,0683887642538312
0,0705247129472986
0,0685935239393022
0,070501930473123
0,0691534260881271
0,069138929397856
0,0692326690477093
0,0703744460975134
0,0688188763709461
0,070127165729824
0,0701407372143915
0,0684472167578001
0,0689687615743205
0,0700314219397883
0,0691527682767398
0,0690104937222388
0,0698848742064132
0,0681804488730581
0,0681586782919617
0,0685904017599403
0,0687189365136129
0,0685026554797774
0,0684579493561279
0,0691485026993773
0,0684157219550002
0,0674882111307187
0,0676916778383656
0,0690320841123244
0,0688610743295149
0,0686415166680216
0,0675466417196855
0,0682810097328391
0,0698465971349651
0,0697181342538546
0,0675960667625801
0,0656950723189502
0,0698120611440225
0,0660510410131236
0,065061996244907
0,0677010185328538
0,0696162410482341
0,0667732187613993
0,0668800421204789
0,0685938534296019
0,0672662140158987
0,0680934016191537
0,0659218544843457
0,063419517387542
0,0658862884123673
0,0667985850521797
0,0645026004366293
0,0646151365737714
0,064053476880457
0,0632735093984166
0,0617180961929034
0,0629639641084912
0,0590436704754525
0,0639302149338072
0,0598288828560481
0,059487342750413
0,0583827490454355
0,0603223735562848
0,0594538122553943
0,0574603246255306
0,0571248774205048
0,057251094656632
0,0571419788103496
0,0577620103480762
0,0564400662518591
0,0576346068583558
0,0565088616832321
0,0587262244713567
0,05544994206939
0,0579757044819891
0,0577843610507155
0,0558908797272551
0,0574523739917055
0,060949124345576
0,0570744855655335
0,0605922743268539
0,0606837505587271
0,0586669996186536
0,0595878837002652
0,0602277611993394
0,061424684512188
0,0593084191763318
0,0620410357538528
0,0608232562779911
0,0613144055204776
0,0595466874041206
0,0607370487282124
0,0613225340395395
0,0623267843440128
0,0597726228346526
0,0619606659636784
0,0627082904310806
0,0616509940805833
0,0628414442848589
0,0619541240462925
0,0630192585393396
0,0585230979121097
0,0629131175860079
0,0610914840912424
0,0609337998779273
0,0612997034941894
0,0603808532085956
0,0616641080024759
0,0613834498956043
0,0611790195182087
0,0603351902450425
0,0614555955626787
0,0593264789788717
0,0608665891753161
0,0594711990775061
0,0598877468643556
0,0606497199483432
0,0594551435056266
0,057999460373292
0,0566838798380137
0,0581109251342883
0,0585431909901738
0,0566969761719108
0,0576692017541713
0,059685556227414
0,057521954336333
0,0564249184645533
0,0555804028309942
0,0573861275192561
0,0565238837526641
0,0563099602609091
0,0579447161436764
0,0573476923276161
0,0566888942022786
0,0574213806032021
0,0569774105012911
0,0555218190515837
0,0556390044542857
0,0544231747151236
0,054196335373256
0,0549655825820402
0,0533272937942227
0,0532007926981979
0,0558051059810184
0,0533710700584451
0,053315444710706
0,0525396133702044
0,0510869561606315
0,0523188096689341
0,0519440399852662
0,0504679959551461
0,0529702496562013
0,0509549260447881
0,0484261890126562
0,0505996361579815
0,0523124193523662
0,0522870377560796
0,050399296970665
0,0502674542989376
0,0490195115664739
0,0501615554264371
0,0505766382350245
0,0503533051669395
0,0493396351258881
0,0491880691429559
0,0488689324682272
0,0488755362849476
0,0465464215490381
0,0478475628865476
0,0460541255616854
0,0470670634887781
0,0459714631743013
0,0455628839443879
0,0460741522567696
0,0465248477778163
0,046196263418063
0,0486367767437689
0,0472323698076817
0,0495969405421251
0,0497672427459537
0,0510457302354846
0,0548728218465483
0,057697587768445
0,0600326764906272
0,061543057681946
0,0645280981945559
0,0669402963895771
0,0689776481483559
0,0732180617256168
0,0764050190886621
0,0793587344687946
0,0830804772523214
0,0840619713093116
0,0861998363793316
0,0901183361540139
0,092511856758064
0,0970271865239945
0,0967876326473203
0,0998264135578543
0,101830665527614
0,103487970520167
0,106144942449514
0,107655521020145
0,108621592254368
0,110827909854693
0,110956288887208
0,112115268700307
0,112799480435898
0,115731415835399
0,117122144345015
0,118622987906664
0,117269113743176
0,116779973251555
0,116896930733803
0,118439653337632
0,116749074020965
0,117530910804658
0,118047711820974
0,118304316222559
0,117951095606636
0,117275984304231
0,119392749536255
0,119097794372885
0,118504051218027
0,121542053780743
0,122459318590919
0,122447642905181
0,120273833341498
0,12449336099034
0,123972586450507
0,126169204529644
0,127577955589152
0,128793269017525
0,131049601580018
0,131901498406618
0,132083588482551
0,134285699516807
0,133679649230661
0,138004849615662
0,140313877197197
0,139659818048541
0,144734423674261
0,144978495406231
0,147898560428293
0,14888764960857
0,150792697250354
0,15122593704673
0,153074400227902
0,151935074972772
0,153214272803838
0,153852809480953
0,152635534360814
0,153713270128614
0,151954923118451
0,150991671679796
0,150320754664091
0,149936369240375
0,149807394726725
0,150439393754365
0,152259377125418
0,15225376392741
0,153253240220459
0,157927065101806
0,159766194957957
0,162152980065449
0,163556018867414
0,165851404266137
0,169682713800207
0,171562950406198
0,176562036771471
0,178258181870136
0,17998720942262
0,184360684193766
0,184913397101945
0,188349328308144
0,190916896195734
0,192991807779567
0,197772495149271
0,200433236794013
0,203797318234557
0,206012804495693
0,20911527908137
0,210614837265374
0,216199039770414
0,220526940508501
0,221542403111947
0,224950849399685
0,230456752083989
0,234009802873956
0,233509597984292
0,236581425037124
0,23958926639213
0,240276246499665
0,245404529538381
0,244469921892765
0,244465096660806
0,245112235414549
0,247115269935979
0,247636112478166
0,244489403689415
0,245063020217735
0,24552130264145
0,2435109454792
0,239708123377604
0,239861613987636
0,23997268935467
0,235684571003175
0,237291021918278
0,234409951797711
0,23354664997682
0,236755947486677
0,231886451807687
0,233745903295372
0,232612225175924
0,237815676426272
0,234374327618473
0,23779433897648
0,239314379406958
0,241874696849956
0,243809951015753
0,245544653173436
0,245761184467673
0,247381367961205
0,248781992148415
0,247019076091961
0,250930851510475
0,251879424896139
0,250677145497678
0,249890438064739
0,252644675726772
0,251854532546739
0,251436171983946
0,247469599082411
0,248766100613309
0,250664992145006
0,248181687857913
0,244885966318506
0,243799735210681
0,247195917062598
0,243508404491342
0,245030644088906
0,240767535422517
0,241653760371779
0,23805641296105
0,235878997456794
0,236948166940759
0,232404504427197
0,231242914640932
0,228883789742927
0,224717130285541
0,225480254921494
0,220165708809009
0,218786682145659
0,214106064017865
0,209251734766054
0,206794438777416
0,202334626064435
0,196705295486657
0,189329869719542
0,184326046773591
0,176676150743933
0,17200259861996
0,164676846238375
0,159872930019025
0,150697699565575
0,148187388129243
0,140572850274529
0,134943631141414
0,133419865729956
0,130000833037105
0,12799578102857
0,125630921892508
0,122020722484065
0,123206339682321
0,117565335647427
0,119708838165959
0,118583455289594
0,117268398100029
0,116831608216364
0,115159581012949
0,115579236361021
0,111799325956717
0,111903260544452
0,106863694404638
0,105628499264219
0,105159013377397
0,10380028551526
0,101724405201571
0,0979671821412605
0,0927737643520865
0,0922824940470525
0,0886670477538452
0,087291673903554
0,0843810205709075
0,0795561697735966
0,0767803174212039
0,071302607786344
0,0690402966461789
0,0666909627629409
0,061093038038084
0,0599323961386361
0,0563527643887377
0,0552953221717188
0,0514643796765979
0,0493231580992994
0,0500187965971085
0,0461805977586031
0,0445689914572607
0,0421542629110209
0,0422973230468089
0,0392552163181163
0,0390324924788712
0,03809182678395
0,03627853040287
0,03664152661309
0,0372061324911234
0,0351084913520424
0,0363559410608439
0,0360438773348787
0,0339986304851396
0,0362029256041187
0,0340137549764712
0,0344392223762998
0,033789574034033
0,0325387449501115
0,0339355015656858
0,0328571053055714
0,036774331254633
0,0394920095553194
0,0366170091039543
0,0349903336545145
0,0366518059338237
0,0380445441887718
0,038046463049937
0,0348757595359105
0,0363938372999547
0,0369483619464964
0,035109558144443
0,0341798567195042
0,0340731520490319
0,0373231145787285
0,0351366815277148
0,0360547646698187
0,0329573895487823
0,0358113812567029
0,0335275042886132
0,0335548549413156
0,0331458127057349
0,0335640957989222
0,0353681885148965
0,0370596004097486
0,0386299605932916
0,0363195301469012
0,0375626312191162
0,035915515501564
0,0373306417223709
0,0371404247163588
0,0425776586874706
0,0389732425665525
0,0369732834437391
0,040138636449093
0,0377036383509128
0,0396597059945645
0,0420554157036664
0,0426560825049382
0,0372132774144607
0,0412648428550618
0,0397127687259487
0,0415856999483521
0,0378851591613534
0,0405372181546629
0,0407874406590844
0,0426044457733799
0,0451641451615817
0,0432794338068399
0,0444193490343661
0,0460046435785779
0,0455409068803483
0,0504501607281651
0,0483719016601447
0,0499320344488737
0,0528085765491471
0,0517529801606426
0,0530663364025241
0,0533218814286482
0,0560027651256874
0,0616184952577355
0,0568556178433839
0,0575803513036964
0,0586724837972037
0,056345793400807
0,0603281672720611
0,0541354512313592
0,054895609842246
0,0517414274927307
0,0551413782651186
0,050629432008953
0,0487626629426958
0,0478900469447769
0,0502975633169096
0,0509828425965214
0,0476697206495339
0,0540315317552845
0,0488757917788321
0,0479605161873234
0,0471467807534457
0,0520214016885971
0,0483738882139085
0,0474688141982591
0,0458384016596501
0,0488768725555983
0,0469035446766691
0,0468424136138274
0,0441163231427149
0,0486060372242025
0,0481030122211389
0,0448976626434945
0,0480484927064557
0,0423802757776628
0,0413576508486826
0,040152831024994
0,04120092425505
0,0409450536053411
0,047104283645948
0,0444373079625395
0,0456418785907287
0,0420962597512846
0,0430260113330009
0,040642065810035
0,0400594840366236
0,0435428668176998
0,0347775743461101
0,0404112319609583
0,0412243627966563
0,0374959800830523
0,0370877641768452
0,0376414118110317
0,0366338246240031
0,035020202007697
0,0352968504101699
0,0376472043077046
0,0372062595397397
0,0377305518455467
0,0353060084423662
0,0335846954466045
0,0335645387243377
0,0393765833241636
0,0357742579103971
0,031566425872547
0,0307908574091316
0,0371093355538868
0,0368950040591803
0,0378341527890464
0,0377957857506753
0,0349169022854293
0,0314455164336773
0,0380771842698984
0,0351333064963641
0,0331400093134164
0,0336741371045624
0,0335291779326555
0,0347111935148233
0,035189315724727
0,036065841122154
0,0383450491026982
0,0327855111530733
0,0322416382873568
0,0368586957675283
0,0309279979295799
0,033581109089871
0,0337456296999634
0,0344240931524786
0,0422167713052338
0,0349488848753507
0,0329901049832971
0,0434094167378764
0,0350587915307887
0,0399457101039157
0,040083076812594
0,0444860775822753
0,0379499328340412
0,0398619845452298
0,0473261669616504
0,0509639245943755
0,0446700141876444
0,0548619351386004
0,0375620310292616
0,0438764632686087
0,0602315806720484
0,0548681135823722
0,0553878658583363
0,04985175965453
0,050528592103867
0,0497465295087103
0,060386036135214
0,0596948308497965
0,0657727164991677
0,063597182719504
0,0606368660459335
0,0629318656099177
0,0741297872852419
0,0760036256465246
0,0702334422190521
0,0721420119542256
0,0766369643004869
0,0679741833610226
0,0722807490771209
0,0645152449374287
0,0701756885175915
0,0766862832450195
0,0684706842147766
0,0622414919313817
0,0629078028915397
0,0684328703620932
0,0749717166561666
0,0657503725426935
0,0672677778995498
0,0666939481875162
0,0730695392272216
0,0673088554564822
0,0566061594530608
0,0672580000452876
0,0646997652062062
0,061591981909625
0,0687267827779427
0,0545534072145774
0,0638620477129631
0,062343720219031
0,0554970412161437
0,0558159716221962
0,0540586822093448
0,0649389235064778
0,0609438271098045
0,0595196801746539
0,048227542084535
0,0486075990182427
0,0613015828516505
0,053557933170694
0,0509854307246071
0,0621695405912187
0,0544091265150882
0,0449142460579323
0,0502344567749818
0,0743481877148006
0,0624707492513739
0,0661671096404378
0,051930800778709
0,0493659836388572
0,0521154844556181
0,0452564015944488
0,058980817007564
0,0634204649187175
0,0757125198734243
0,0773171208672034
0,0575097838740383
0,0559581363322068
0,0584207950748539
0,0538604758814738
0,0538997794703629
0,0719232953796238
0,0733308130804695
0,0594536218802358
0,0753681972836393
0,064405444122704
0,0522813194511859
0,0596064565634067
0,052672804787916
0,0503179777127821
0,060002643268216
0,0584069450065223
0,0786478542806963
0,0804047466633541
0,0763785618572795
0,0715727392876844
0,0789567077585607
0,0748427072584035
0,0570201676831243
0,0715071786195148
0,0756908620885423
0,0809744386693226
0,0913735540458593
0,0951694120176855
0,0757753054402875
0,0827576066246087
0,0781310446175393
0,0723644156949566
0,0909887105988072
0,105971364850749
0,0882848443886783
0,0855929880343492
0,108326410119195
0,0764891414409595
0,109573262471574
0,106206536093951
0,06128713679953
0,09609523017179
0,0690893092901653
0,0668966510809097
0,113172869746999
0,10200269394392
0,052469405887242
0,0845485572604453
0,0648744585997987
0,0661717232150522
0,0862975827152546
0,0676216449218114
0,0633117039719372
0,039022031649066
0,0606150615427808
0,0651113205151658
0,0698086954855868
0,113006705598536
0,102198158633221
0,0864152154031381
0,0622224881494288
0,115743346844147
0,092683367778523
0,0146559035186267
0,0647627678629223
0,123530715541945
0,0600487047309994
0,0470995094540487
0,0534034162078485
0,0690340147605332
0,0543270514637394
0,0720904198495593
0,106051139651398
0,088443018498217
0,0598095781934104
0,1112781809493
0,0753993765159381
0,117378493094052
0,192951635446209
0,0785587045010186
0,0592674256487772
0,0507912702542196
0,0962824444965172
0,0932268255281628
0,0774837112189472
0,0337375868138496
0,0264033236477109
0,111675214505895
0,131417645748382
0,136849567224819
0,12876787535102
0,0882755544342641
0,0241703031230166
0,109878753556629
0,169642391419979
