3596
4000,36533379555
650,420452594757
1
2
2
0,00336605819986731
0,00758571360327027
0,00791783003082256
0,00901780961989173
0,0116436023300527
0,0071738899588773
0,0112660111660115
0,0106692881699676
0,0109829403772596
0,0093191909547049
0,0131630665594465
0,00908537110918461
0,0063321077190239
0,00352616866036978
0,0059203054407761
0,00135482649323793
0,00282354213270204
0,00225911947844993
0,00567026332860395
0,00155707634390097
0,0119379927565422
0,00716995108209348
0,00127832458768799
0,00951057959095584
0,0101993233719292
0,00785074757750715
0,010147345969775
0,00517327900172374
0,00997291938576247
0,0027488000451992
0,00402888909442915
0,00523411491319971
-0,00282088575092625
-0,00341000911664789
0,00714472956136517
0,00315309301185442
0,00760553804857786
0,00616058433314013
0,00787726488678604
0,00663024372723078
0,00884420382795692
0,00653100229485441
-0,00241248761966993
0,00381120178119993
0,0112281860604825
0,00588835918384763
0,0108372322547333
0,00637043549648948
0,00312778752748076
0,00464349569663004
0,00990564793535957
0,00459071176069376
0,00576226893289886
0,00754248995897781
0,00901003720953312
0,012347952474277
0,0034737625147063
0,000335611617202578
0,0042734113709842
0,0145352874645684
0,0103249896432534
0,00808878778066048
0,012011702419096
0,00565419414553327
0,00200940155539166
0,0086821975229372
0,00492843237691067
0,00194397907024627
0,00405119623290253
0,00515159757648494
0,00868642541037532
0,00654237724221309
0,0170249511861943
0,000104567012360265
0,000653672796351982
0,00709451929494492
0,00525890556753672
0,00717389189236096
0,0155547423249169
0,0112304040058389
0,0102662258469009
-0,000698421132458592
0,0177004632856472
0,00516702770114595
-0,0016947978891994
0,00117491083158509
-0,000828950995165885
0,00516782809484203
0,0105864067132984
0,00464967623804082
0,00760283149384176
0,00148770049964775
0,0113328852613341
0,00710853034125819
0,00133248789438706
0,00543713384355977
0,0102283891764973
0,00678248837432232
0,00448498866699608
0,00677793557786735
0,00660540956457807
0,00427732328320551
-0,00535338577501006
0,0130177724708334
0,0200358362619713
0,00385401065744611
0,00822054082538713
-0,00776398869981943
0,00212769987198783
0,00363069706927839
0,00802566670874531
0,00223731802729102
0,0060251802037445
0,00608198395120993
0,0104053402230117
0,0100744907712486
0,00842628149415693
0,00416576489500066
0,00236412296557846
-0,00242295180040142
0,0123242597985961
0,00427222312582326
0,000833652145740896
0,000873673338359654
0,0100513384565817
0,00703490801296812
0,00884397904692785
0,00302209204085072
0,0107206607622503
-0,00270066764145034
0,00445332128848572
0,00390646544512197
0,00934384266727284
0,00916347333832357
-0,00262190066435909
-0,00508477482804889
0,00491345753392485
0,00795427390591082
-0,00111553261115893
0,000954605366992457
0,00223360946920207
0,00624211673220658
0,00547792915178
0,0066368511825066
0,00478312446016733
0,00101662728257546
0,0020395242463666
0,00199347313557748
3,43900867238376E-06
-0,00542807381010371
0,00262085484812257
0,00862405923256335
0,0002300844082709
0,00227947827244565
0,0155503953207626
-0,000149343693332877
0,012655009170187
0,00420817461609812
-0,00409981028136208
0,0142962142432057
-0,00595370025697225
0,00364065958488442
0,00324337430175402
0,00602586819980159
0,00357773471515743
0,013443091557111
0,00540798694691724
0,00277816644886505
0,00515591787252673
0,00120140135296763
0,0027198776481284
-0,00674860197701526
0,00690530032924804
-0,00997064805665335
0,00580629084234502
-0,00155808931046804
0,00627792428037559
0,00345721039842266
0,00484192775520283
-0,0035153854447291
0,00975260048317342
0,00463804575185881
0,00352509134329158
0,00471168902314157
0,00839197657394515
0,00559202480205941
0,00555570542968039
0,00568571554047889
0,00496154614922781
0,00775693082035352
0,0111791418354393
-0,00494423036858763
0,00351650468513233
0,0121931911165482
0,00810196951407178
0,0138090555408679
0,00116978374043358
-0,00504133953293467
-0,00656787136304829
0,00424264926368754
0,00582780426084289
0,00305500218846095
0,00659883379092761
7,64658700930929E-05
0,00606798698270399
0,00832111409311422
0,00550549742022852
-0,00160333644228426
0,00581936817753665
0,00481648770853202
0,00143662876739482
-0,00113517658822173
0,0115372702566515
0,00546920821503951
-0,00368635918996302
0,00349571897416163
0,00496098121555673
0,00483442082361327
-3,80382760268734E-05
0,00586306660491339
0,00248644824701304
0,0056796164759905
0,00589242705180363
0,00607145914568115
0,00600197905958743
0,00107541560845477
0,00939961238303454
0,00490343781993888
0,00542897691175129
0,00976225843270494
0,00274971818368144
-0,00139397925700522
0,00516785578654559
-0,00136472682734253
0,00930736410177841
0,0109123609109431
0,00663757382124669
0,0159204423195046
0,000136472412070666
-0,00261921344925737
0,00582827919625638
-0,00245222777655223
0,00655852868273028
0,00530101992557208
0,00444704775670674
0,00302450097016794
0,00109115234696781
0,00954115327959148
0,00205244456867878
0,0102107184210696
0,00900824760736272
0,00180690584375568
0,000223554327966015
0,00409842406323233
0,0149966897482683
0,0131994895712602
0,00445990524493466
0,00831251664778324
0,00385750507601793
0,00826237697833461
-0,000679103026646789
0,013162357542472
0,0106444814962629
0,00749886029105282
0,0275975948228793
-0,0148146986554943
0,00547547618254495
0,0083795569128282
-0,00316381328661062
0,00501446598150747
-0,00940904710815642
0,00798605882358615
0,0188775096818197
0,0115583157346642
0,00134788284902372
0,00390033466555708
0,00389072983086855
0,00254381316471212
0,00216522942601889
0,00460260204745228
0,0134517427844471
0,00920614879736435
0,00696747760497969
0,0140677009349929
-0,00545688159879035
0,0106335168887896
0,0070008858195422
0,00467166803622682
0,00248522970665129
0,00349215487579334
0,00856010396948668
0,0094672357815083
0,00129014729066336
0,01295939648583
0,00399864580820019
0,000590663487678485
0,0106539810893386
-0,000186790850931416
0,0018418949499985
0,00828416799200993
0,0122934990282355
0,000676165738529689
0,0070080906640231
0,0062332021576747
0,012874933817468
0,0022128475791259
0,0148501159432094
0,0222540125196379
0,00636747659457051
0,00290208699587265
0,00703967545222093
0,00246456656362007
0,00783248529453996
0,00950403408236694
0,00458450385901072
0,0086214116809284
0,00293247333340412
0,00823172576811242
0,0143992691380799
-0,00529421400814383
0,011360230826044
0,00315274091208026
0,00554275206363154
0,00987642826538106
0,00461161178391104
0,00579746250305211
0,0127398209779732
0,00880170487534329
0,00949156186987603
0,012900082787312
0,0126025573620081
0,00869531837712885
0,0227795739767078
0,00315526235771252
0,01426255356688
0,0107113252462586
0,00847246243684765
0,0156482709157436
0,014181345910868
0,0102683619118237
0,00382055801133236
0,0126404296730133
0,0178556010487118
0,0112889691879075
0,01043804649168
0,00453021360807259
0,011962057700563
0,0261535009818661
0,0127764416919891
0,0145422323651254
0,0130265132854765
0,0130255829257967
0,0164782256855107
0,018947306221107
0,0214614699238429
0,00745917785201179
0,0081749740813883
0,0178821401253657
0,0126238354569861
0,0174989502624461
0,0146010556274984
0,0111134712384667
0,0219300683541243
0,0190259892759803
0,0153708198668557
0,0245070980211486
0,0212777092462428
0,0250887178134249
0,0135263395259438
0,02157384296238
0,0255400809271573
0,0181173306142689
0,0278150472936176
0,0282348718007303
0,0228093710114723
0,0270393573384603
0,011879306744058
0,0256906426251767
0,0251783975431321
0,0275612129039873
0,0215752753320082
0,0353520478866525
0,0234650894961326
0,0290357266164199
0,031177639558237
0,037422998214213
0,0307458294085279
0,0335917389114425
0,0326606491247359
0,0341580086625183
0,035447813993073
0,0415610124253931
0,0248973591823058
0,0374058131453745
0,0380069782123979
0,0491084976343333
0,0428718852397838
0,0529879587597549
0,0456132572958046
0,0439874746528656
0,0445367382971805
0,04526534229594
0,0430782144713348
0,0494007365896207
0,055499335836132
0,0479795796809836
0,0628226752890136
0,0524222435044952
0,0520002907129837
0,0562704182996249
0,0507574414554288
0,06256564368583
0,0515046005819645
0,0573373107044152
0,0586966394849767
0,057749758668213
0,0658507579439404
0,0568968658467729
0,0647295426346428
0,0609188285897257
0,0705790635531629
0,0648072526735542
0,073814513589156
0,0710965653160134
0,0667956620531839
0,0611399393063829
0,0750652567667846
0,0733469518366448
0,0774581032542149
0,0742771994616976
0,0916117312390325
0,0882717387935785
0,0885406472083712
0,096033887190952
0,0815161455167476
0,0868756166844917
0,0855852350662385
0,0949679925156904
0,0924559296693081
0,0968651536329911
0,0995732194994233
0,0961419045640689
0,0950106445108667
0,0894493055181484
0,0962236880274426
0,102104393481322
0,10354357000128
0,106740284937762
0,10269553837285
0,114458650797787
0,105452024317423
0,117412520972186
0,122110501940104
0,120995877395081
0,104635253532142
0,127647423018979
0,115896738571567
0,126996561402134
0,122031526062962
0,137701190347829
0,129972059748041
0,134455258947608
0,156629199004904
0,152552375650617
0,136365116627759
0,141244501356379
0,14045093839988
0,136782072308317
0,128496198883282
0,147863347620804
0,146091727145326
0,159525413273411
0,16015459338437
0,16494881183399
0,16250670775881
0,166840122214844
0,158523605601439
0,18760341762953
0,171548045658553
0,162672622067676
0,174500959062901
0,168387407375912
0,17463241878148
0,167226930282611
0,179983748258642
0,183235946890614
0,180210004601392
0,198314231952078
0,183938486157358
0,206882736054496
0,191555594174417
0,207480983493785
0,214354612306808
0,208212699080154
0,202269531203544
0,21299606965875
0,212626180397028
0,209451038944487
0,205404216190146
0,216494713051522
0,210841503863339
0,236324116974701
0,221610722226091
0,241070896684594
0,231632286639137
0,234016134190951
0,218386443756975
0,251292724620061
0,235541107812749
0,250688987647718
0,223071842140352
0,250009744819063
0,25208993356242
0,256036721231009
0,256224402938604
0,271409672507857
0,267660632461475
0,269866975181337
0,261842034580604
0,28076642536636
0,271429460581431
0,272869939017621
0,280533164859142
0,296100323204532
0,286751917760707
0,299729793299024
0,29623029526537
0,295985601408243
0,28681062130915
0,305559901938954
0,295564784832325
0,302274477099581
0,297018505798972
0,316342273514868
0,303302652332842
0,318006739028038
0,31793864561718
0,310387284660064
0,322531103005533
0,34088879360425
0,322865873038476
0,333034176750453
0,333837539026192
0,352476001017261
0,336026205644248
0,349146959890365
0,32751787483456
0,366959087249181
0,355677458949283
0,381779824939787
0,349641579632292
0,365036419899246
0,355132926458995
0,370101858120948
0,379744393932538
0,387671971918267
0,376496551712304
0,383345732430554
0,383516137133032
0,399649669637435
0,372092104565032
0,396783243375773
0,369701321908572
0,399979954276158
0,381892946019645
0,400602478330688
0,383373503292074
0,409182203834782
0,391449867437161
0,408424990175619
0,401196129248888
0,412940978853823
0,41318223407533
0,423057987398661
0,413126150296238
0,430795680606818
0,416004820979868
0,428294256752299
0,44445465730093
0,454848856639248
0,440389514976671
0,43513387831875
0,432711981812209
0,436873489289063
0,441990315123481
0,443298290541476
0,444135644495733
0,454886029920298
0,447610338070967
0,451046643211774
0,444485102392947
0,471972753697346
0,457115901702578
0,493813410886225
0,473532828186632
0,481496261850618
0,451936337977854
0,473004373998816
0,479225816750111
0,489941398666294
0,47035609273436
0,522775609723997
0,465463027760163
0,489467860432549
0,485382387250404
0,497556019640185
0,493209611447706
0,520262432391284
0,504893871109324
0,513235406164256
0,476224262366416
0,503175874342756
0,512464771245254
0,521388075519248
0,502670968014648
0,541443326197621
0,506221009385955
0,520820453291307
0,516904396003667
0,542289344659138
0,515866558786875
0,536179107398325
0,54684396050635
0,539334126431752
0,536112810233745
0,548830980064107
0,513390805441195
0,532001931512661
0,523652276297745
0,537549936408546
0,559027635462467
0,560733828525951
0,53672153830841
0,561692631196648
0,561088496518422
0,568093143254815
0,5481121521529
0,570397044909437
0,533596669897744
0,551290589866221
0,531537085432295
0,555891444527051
0,5409911352857
0,572112068616509
0,571963582881221
0,586699965445657
0,55690054958518
0,559389695908374
0,573048176134374
0,580267556053318
0,554631707339432
0,566898606496855
0,578181420751309
0,573167675316006
0,575178739403995
0,592156548053351
0,607716035740692
0,585129316769335
0,587199874766339
0,588121838416806
0,571729373973817
0,589977890735055
0,579252002836223
0,588797295387171
0,567355078783415
0,619650156095754
0,576389005846847
0,591787849675252
0,596010350689419
0,587011575190466
0,593235407979747
0,603854715015621
0,587272195569203
0,618395237027076
0,555762165477407
0,593069208133498
0,562211227000752
0,597080103078105
0,605360003757139
0,593366557158836
0,603010706026249
0,629206424224601
0,584809463666157
0,597216420455873
0,606923373876189
0,61632189020148
0,600881920341556
0,629573268325231
0,596285269384883
0,587000098113369
0,609119140676716
0,623940939538268
0,578243923242057
0,619032197163481
0,58183733304734
0,592174937092799
0,59390461837979
0,612697302744437
0,596331881675786
0,612708282283111
0,585249824393528
0,617289151762559
0,5957893114049
0,602256098046111
0,58643448749719
0,600717276994304
0,595324222042757
0,608824070806777
0,585118845919451
0,597759375322249
0,596845821536057
0,635935222834075
0,60813896500259
0,603576151094934
0,598148814994721
0,621686499379037
0,582040170497938
0,608847859188188
0,593290862919936
0,605721989567518
0,576982031413321
0,592038571838295
0,587874145248258
0,601044937266278
0,601410565955391
0,627153596178926
0,594848201024909
0,605911310699486
0,604918486557162
0,611429174897542
0,595251480446948
0,597921334830544
0,579328593083655
0,600509251675528
0,582535351311001
0,586469656694678
0,586442651296449
0,59437361455006
0,580026505316857
0,597118123189601
0,595460541428006
0,610340455613193
0,571183999744263
0,594673775997636
0,581129421953456
0,582695232255396
0,590257991944911
0,590704188547408
0,558572622450319
0,587345792849045
0,594442569101938
0,597872753422997
0,598095745901102
0,584170312769999
0,574190785745149
0,565190296682166
0,575765799098844
0,579697849913791
0,581281120110506
0,581156676010055
0,565709251774981
0,592834648409204
0,578232018656211
0,584146239894464
0,557388419939894
0,577952518649169
0,56333256802527
0,564594730355828
0,56519877481001
0,560104176483063
0,550921811493966
0,568241292564166
0,560194843200784
0,566443123154145
0,543517342795103
0,561369850675102
0,545893807039145
0,564732593604138
0,555936366446185
0,561959266493035
0,554143926638235
0,549701347175399
0,543995191823965
0,561691537267193
0,546871626995803
0,566089440035934
0,541717270873659
0,552824729957697
0,543411283936005
0,542456971756967
0,543788574753141
0,536729530217839
0,53473332928629
0,539676635227362
0,517847338341115
0,542689475137586
0,53654138661269
0,526750732675282
0,522518787385458
0,540489039131146
0,525258602511162
0,518733107356746
0,506164596258177
0,514740880473106
0,508285548058249
0,522993074445038
0,517508193070262
0,528088337497377
0,508111581868135
0,525345667629896
0,506079558876004
0,517711488832334
0,512848470485557
0,508408508309407
0,494507502911218
0,50262143427534
0,488362099124677
0,495778544983827
0,494859234599698
0,482632619410255
0,485728379852364
0,487081390932763
0,49540551200594
0,499857623152015
0,482768473425661
0,490643761601798
0,485893506980195
0,49019602272009
0,48339412917914
0,482092493017458
0,472859057563245
0,482954702764689
0,480133902060479
0,479257222592869
0,470511009432562
0,462101286895754
0,469571722954225
0,472967171244662
0,459485034500329
0,481721682183524
0,456560869135361
0,46475120009228
0,452642732885539
0,454267623405889
0,451601119800173
0,456182607512013
0,450489207053452
0,451973042881057
0,442492360174473
0,454044299672462
0,435081724778312
0,440418639892723
0,437762345054463
0,442595286929218
0,438636737161975
0,449315319591295
0,434362403679295
0,434323357975372
0,423600370767539
0,42701210591956
0,424143862144745
0,437081774826307
0,420278413394434
0,424741818111722
0,416649357677841
0,420500278041104
0,408821913373686
0,418264670281895
0,412416461203266
0,411155940351818
0,40935826256838
0,406403294008958
0,401038631394835
0,41087414401148
0,400223991064397
0,400208564411575
0,389698032200974
0,394754032169362
0,387262898574662
0,39815626147564
0,38102403137328
0,396179972717185
0,386033339149706
0,383065344822973
0,37838119430626
0,381612050152217
0,376320881387879
0,384093663376329
0,372794338889368
0,366767592617043
0,365983818750778
0,367098207967911
0,360325492135026
0,36258175974197
0,358359847404679
0,362433913688702
0,356407744220997
0,356032227788028
0,360150802383795
0,3537340579977
0,348724603624888
0,356352776106887
0,356603590284241
0,350673829908454
0,338002526234871
0,348846635899801
0,341148243668779
0,345122739400009
0,340234473784035
0,331610096036993
0,334845323645156
0,342380937815057
0,332518678433636
0,332456682793219
0,327906733117687
0,32199349902224
0,318079474779962
0,326823286550699
0,318833620167215
0,311781687365476
0,319170136494598
0,319292304556599
0,312108228492624
0,306669946734622
0,311883149311466
0,317849403131991
0,30459889446646
0,309733090137028
0,305052226321391
0,303986290889898
0,302380069190825
0,303589179183398
0,297255613344667
0,294248297013838
0,297668216820091
0,300857782110231
0,292475757766709
0,292206901186134
0,291313332563056
0,295428638924147
0,28572831377847
0,288054932022256
0,285579006032374
0,280627733132635
0,276265215363558
0,286426687510094
0,287052975342503
0,282242477903751
0,278002703145879
0,273308989726555
0,265989208285819
0,272445608580095
0,274901304122679
0,271299705573767
0,269009423339908
0,269869162427321
0,263983937160856
0,266994655551867
0,261377752509429
0,262122736408229
0,252223579935339
0,259987215266987
0,264011958305218
0,260932215497214
0,256213052802112
0,259264250862064
0,257639367554341
0,259532062287632
0,25019587618776
0,25032398274844
0,246239597804275
0,24921147103732
0,245479978719425
0,24087672574772
0,240188203410328
0,244730875346504
0,236927839092609
0,236101788428334
0,238158450457269
0,238439918853656
0,23576689929594
0,232611448769038
0,233353821301767
0,230940064402197
0,229125010742871
0,236021689550291
0,232646739541243
0,229150163644408
0,226949972232899
0,2299606283635
0,223314095600697
0,225369561178546
0,226486148340548
0,21625735295735
0,218427043291244
0,222687289018995
0,216650414492777
0,218864716003758
0,216676261667621
0,211738813634036
0,215551499004088
0,212705890978632
0,213457168114056
0,211962899626476
0,2096825556436
0,214303276431793
0,209314124302087
0,208998711581921
0,207333393835305
0,202285900010643
0,205186469239724
0,207554265139797
0,193224379147086
0,190079044679912
0,199335695538453
0,195857182251806
0,194493178755569
0,194691360892193
0,192222122128646
0,195047369075718
0,193179523888716
0,194106396356597
0,19344043773128
0,192139669810388
0,188344172349644
0,195800462501776
0,190319509372955
0,187442493509217
0,185760745237185
0,18229403426755
0,182049691173796
0,183470816087387
0,180744064144051
0,177196161248201
0,172068606171609
0,179841641888473
0,180586631666148
0,176322720907538
0,177750104228198
0,173120777046951
0,172627814420528
0,170692493473954
0,171926118136153
0,172924813117003
0,171918314680715
0,170830345956064
0,169692779938281
0,169751565274208
0,165406342781549
0,166861897876445
0,167181698601938
0,16292890030771
0,162975839412814
0,165244065820754
0,160328689658864
0,163115718979065
0,16419696861408
0,159164520694678
0,161234321753756
0,160444278395814
0,156910192831499
0,159075791735431
0,158751517224675
0,161614224701938
0,160005485725692
0,151528009303007
0,153118482592522
0,157449820927647
0,156109329456839
0,154226120465076
0,152675236631885
0,153567276623994
0,154692198302545
0,152142799326689
0,145501638169297
0,153534520204935
0,155770815909154
0,154639906353422
0,154557774502656
0,149504454922588
0,148677930256386
0,151013688099122
0,152538865359791
0,155947565175604
0,155831922367462
0,153677076564835
0,148761674457523
0,150150425595258
0,151959750268904
0,155835659628089
0,156921021224043
0,154630892891344
0,153075961818167
0,153927462888992
0,152243598973646
0,158951397174284
0,159137644938053
0,15663718465192
0,157032847883612
0,161436593370424
0,157413472412858
0,154577305061456
0,164220799547629
0,164112215472024
0,160561126086808
0,167495967374555
0,167136842933593
0,16171595537477
0,165716174088339
0,166229965612817
0,167641150459294
0,169005106274069
0,168292726175742
0,170084645584656
0,170214895264808
0,171794670689135
0,172990466128929
0,172066218658242
0,175322686331589
0,176662316635351
0,172465173139957
0,179459491096335
0,178156622901545
0,179483050676491
0,180583978502487
0,1829272973902
0,18477641105178
0,180791880391997
0,187444236684781
0,190631814363033
0,194472944477527
0,19159801145065
0,187526861173833
0,196317997082837
0,193034447315162
0,192460500513019
0,198902755867449
0,200966736241882
0,197816931966898
0,20239496714422
0,204808326794904
0,206171837594197
0,205681305391588
0,203651575506849
0,206904744651982
0,205157690377599
0,202706395274438
0,209142659855306
0,214926010365061
0,212158276545398
0,206374631369218
0,202871680877322
0,209063691310682
0,209719250699123
0,207592934977216
0,209869762247086
0,210032324641561
0,209576110808321
0,208204385026029
0,211697995983608
0,202987569771673
0,204864820820689
0,209538046782559
0,206446868901021
0,21434876079152
0,21257903556447
0,206671115912101
0,212408501204927
0,210436693959618
0,211219669651184
0,209783142930206
0,20899946064451
0,210716041503726
0,209415428926841
0,207875793879151
0,207789206089559
0,20856411891471
0,208010743061744
0,20896050860421
0,20756745125319
0,209619876740282
0,20843083522191
0,206837379642009
0,210562437506979
0,210463724691148
0,20954078384929
0,212522491313101
0,210505801217718
0,210212320423546
0,214850229950299
0,210535205054818
0,209073772878717
0,210903290351055
0,209786973699785
0,210983847388663
0,211358900833458
0,210791252581406
0,208924692891516
0,208151716200904
0,209155639508532
0,209278272901624
0,206908598080324
0,208965059528292
0,208772574685398
0,20851111088145
0,206112211003602
0,202126827601145
0,197008339585122
0,204746682023056
0,201406195541895
0,195913953850289
0,196761645425805
0,195334787042014
0,194968470572919
0,192804951365935
0,196365691103728
0,195080775962512
0,19042721670177
0,19093523160367
0,191417038813418
0,189870056636194
0,187241939048449
0,185510904705619
0,180732606733726
0,182556038533386
0,183125343338075
0,177446661746173
0,176111562960149
0,178827534319211
0,175711663988609
0,175839957358655
0,175300297078404
0,171658640364653
0,167080351032465
0,165420683296727
0,162369083149938
0,161885451349749
0,163234507369339
0,1644046597025
0,157123133114657
0,156997693370332
0,158465180192599
0,161065060670624
0,159054749196108
0,153218603123806
0,157175456760093
0,159415489911674
0,152153355007496
0,151425892978105
0,157397393306888
0,148382047385501
0,149881482159297
0,149716580246931
0,14362721001217
0,146688752591593
0,143596407851045
0,141748481394662
0,145140702000034
0,146214658289081
0,146548765869036
0,143332788685124
0,140216913623055
0,140533686918167
0,137648236660948
0,138409775756089
0,137624223472791
0,138019948986477
0,137836230083022
0,137883992194941
0,135059286933651
0,131506012977136
0,135235517631677
0,133416690621757
0,134320507537745
0,134216647332403
0,132476988419159
0,136253813527011
0,132147543859279
0,127948197988911
0,13095087132358
0,12945800914647
0,125813281490524
0,128884553595604
0,12676469589596
0,126596920775227
0,129712886604117
0,12649752700037
0,127067697498006
0,126772353757385
0,126332007771777
0,122910861492864
0,122284745048922
0,12157332143229
0,119660459087818
0,126479536537354
0,122319179622291
0,127154905306779
0,121728467568484
0,116928564394196
0,11915060648572
0,120033108801916
0,116671180435648
0,116673538708943
0,120859532066557
0,117603140590066
0,116458119030708
0,118027663753275
0,114400674174783
0,117043019971781
0,1149785712638
0,114264876355914
0,11622636446615
0,115383028557631
0,115152250016677
0,110501239338182
0,112061080248401
0,112866683445397
0,10765088091223
0,108210759574354
0,112239325292116
0,113942697900912
0,109949123335678
0,113754831307189
0,111762454432129
0,10767362469637
0,109141208257841
0,111200099707265
0,110648227323353
0,105334975019808
0,10601367528479
0,109091022474966
0,106848892043331
0,106058510813836
0,10508237171572
0,104624112710441
0,105366922262316
0,104018134610889
0,105595890040985
0,106812231486511
0,106665505406386
0,105458164952681
0,10458004788529
0,107307586519855
0,0993021653097481
0,104662403349103
0,103534074089954
0,102895705183025
0,104462477937057
0,106972703266761
0,100482379276117
0,105656578410672
0,102768139977767
0,101123788242439
0,104098844326874
0,100258681151149
0,101457365541456
0,103338126313317
0,0998466172318998
0,100321361421583
0,10223303326938
0,103071793300538
0,100644851740002
0,102723758891202
0,100533228436342
0,0992670898149785
0,0994634659483235
0,0983438154576911
0,0996975937337343
0,101009253058892
0,100141554872646
0,0975882072323004
0,100635436427036
0,0963009424020148
0,0988979663557285
0,101792451443892
0,0975704503450561
0,0963168795360657
0,0955768932277372
0,0968965462748237
0,0954552736812383
0,0962540328258295
0,0960157913094017
0,0963857447774012
0,0948361798720508
0,0985169178965684
0,0994446608616848
0,0961397116944488
0,0961089459844965
0,0957058818518215
0,0931323865889178
0,0929255777291491
0,0963444650833596
0,0972495163233082
0,0918752612141928
0,0921121251630301
0,0942898337087899
0,0885800886420153
0,0921531480816494
0,092293340922902
0,0931329036228553
0,0940756700018052
0,0880635976671065
0,0914857565164331
0,091981174886677
0,0911385380745146
0,0902907435135721
0,0912850552382149
0,0902315166453891
0,0917879441914301
0,0876855477213856
0,0896539858969629
0,0853076534323926
0,0860426055659401
0,0879626586795039
0,0846723464866011
0,0863659272245388
0,0879282906481513
0,0858973484975159
0,0846298478862934
0,086655701608775
0,0892442897409261
0,0848136317930988
0,0841859597693043
0,0846526508098699
0,0825651830207018
0,0794474663309697
0,0830571241543589
0,0900239822292504
0,0847856674977558
0,0851300454475849
0,0829205564973767
0,0816088513343345
0,084402179395291
0,0787444713183635
0,0757344977320162
0,0807451371256232
0,079398908892199
0,0795112690582278
0,081472968335418
0,0788489014672938
0,0764806939105104
0,078659157399646
0,0780433564065647
0,0754117133944124
0,0763451676585813
0,0763883102076947
0,0734615026413916
0,0765516205996927
0,0772708080908912
0,0727854365103304
0,0756793190952262
0,0741239665913203
0,0724729849612368
0,0704855849478087
0,0783922540165739
0,0743611467242479
0,0734713349158924
0,0734881579521911
0,0705681826551171
0,0730910714673065
0,0720972639442476
0,0710807098394675
0,069230826457281
0,0678810062999316
0,0692208389675279
0,0677123218650234
0,0695492120069881
0,0665072291239183
0,0707184426150974
0,0685198752714348
0,0667986842869887
0,0688067179566488
0,0669321969224643
0,0678203039466662
0,0672773725023498
0,0671938158298162
0,0667601563439275
0,0638409967777865
0,0637172512725645
0,0640086753079822
0,0606313065424606
0,0654575519827767
0,064692094362455
0,0641070756943861
0,0639672298992025
0,0640538847106621
0,0627976851040822
0,062589249314814
0,0624545591908861
0,0583342594153544
0,0612516356916933
0,0610570561921293
0,0618160374534829
0,0604295309563208
0,060228988818666
0,0593853800939535
0,0596439152947738
0,0575991066620186
0,0596116138774497
0,0565324137746474
0,0570415544268847
0,0604578327151528
0,0582265323845009
0,0563184205974797
0,0587333890028824
0,0583594112804491
0,0571982306816419
0,0571688466922927
0,0577916521716747
0,0585111115207541
0,0566766581111732
0,0582533273838963
0,0550010943212858
0,0536095006545761
0,057989949579682
0,0561138629715327
0,0530657073189173
0,0557018174605042
0,0541501858688844
0,0550943073860327
0,0579182713737851
0,0515644443477541
0,0537781373927459
0,0557475249116328
0,0512092106357114
0,0565980600175899
0,0544681348158305
0,0534327383575371
0,0513644327282389
0,0549990708898036
0,0512421346467996
0,0525803953724739
0,0540535972572572
0,0517929714763147
0,0511690734750463
0,0504803903477416
0,0520733569444064
0,0517789158901576
0,0525288600453311
0,0509778233774635
0,0520669889558088
0,0529463898332014
0,0484406089632575
0,0492245156138146
0,0556306637311823
0,0511076166120765
0,0510354590776703
0,0497903605733734
0,0513882744870397
0,0490991883781719
0,0496872787340037
0,0485807334496342
0,0477951300136226
0,0506670825683352
0,050180422045051
0,0479849831201445
0,049835874762829
0,0472916872180956
0,0495943924456433
0,0480043861267808
0,0454036466710068
0,0468167495971191
0,0480556296803587
0,049207062176498
0,0498818186936393
0,0480845367994443
0,0504834423492525
0,0489350209361862
0,0491524108951679
0,0473169602948906
0,046813768287851
0,0482491951320135
0,0484141306669461
0,0428927630938395
0,0474710011586457
0,0465988836378626
0,0472295897317803
0,0470076058404743
0,0473399803081849
0,0484344537759685
0,045057699445411
0,0449562695671913
0,0427085449809324
0,0434869372654473
0,0463214844823426
0,0445708914548585
0,045464620570489
0,045965338757196
0,0461330438810074
0,0456767166615465
0,0477128622246075
0,042357556399891
0,0423491960323955
0,0456241398216108
0,0431373323697303
0,0448489589949321
0,0458466303715307
0,0436108460253594
0,0449526762336433
0,0450050261736238
0,0411775232531557
0,0437125349611217
0,0417961378809106
0,0411858200958567
0,041226619487569
0,0419522262577221
0,0449719983956829
0,0421308348886043
0,0416893993014996
0,0416579685401419
0,0426170284476869
0,0420987512997267
0,0420225898545925
0,0423243269458029
0,0394321614475325
0,0406859848165532
0,0416301849131619
0,0407422447257241
0,038848851292258
0,0426800444118065
0,0401166109228094
0,0426904573992481
0,0395049327033125
0,03931817997492
0,0434067148180743
0,0380617718814441
0,0413425932872964
0,0404950862397225
0,0379114013183238
0,0373258053346316
0,0386901872805582
0,0404161482341948
0,0384308626271907
0,0359423222476637
0,0393315956953458
0,0376887094823185
0,0342207688720811
0,0402402520302374
0,0374421730634114
0,0374130592974357
0,0389619615727625
0,0389717881230973
0,0387718334809096
0,03579466822116
0,0392295497821887
0,0356794750713116
0,0366063168156726
0,0362451477568781
0,0385129757636283
0,0363906848644955
0,0360379832343672
0,0373356258750965
0,0328966756312253
0,0349185143783916
0,0348159079966161
0,0325771327103193
0,0353536143760869
0,0326091005168064
0,0343375399623591
0,0326831493838561
0,0341525475969683
0,0343112171437667
0,0364205982714506
0,0321518392804224
0,0331029037712795
0,032065566904919
0,0338523219775596
0,03171439147946
0,0309988564622676
0,0312553726781146
0,0347238041771039
0,0335515009730815
0,0338545052861961
0,0317693793488711
0,0303769208620272
0,0312754813620998
0,0329341696772916
0,0315876609073915
0,0316712544289677
0,0306803816528884
0,0293263612051213
0,0320753991463859
0,0303140864391544
0,0295827604147067
0,0333410166275972
0,0304335913544268
0,0316196615190969
0,0306655491529731
0,0306621361755827
0,0306308485214078
0,0280766825758339
0,0297216812663731
0,0275129688756897
0,029942672377132
0,0297835455077092
0,027634637506831
0,0325462292381547
0,0271001102065114
0,0283149892814963
0,0279519645438715
0,0297841796173894
0,0253184888618664
0,0293269324344102
0,0265961590881051
0,0277224347573478
0,0296614745305671
0,0269469056661947
0,0307314353825386
0,0248838266904128
0,0258975013343988
0,0254547430763337
0,0276577229729285
0,0266621571331927
0,02719857072931
0,0262426100470725
0,0231967427320926
0,0247351482484865
0,0267128948399951
0,0253029158351799
0,0252991741869666
0,0283772400361643
0,0236410993831054
0,0251872761193059
0,0244346021846916
0,0258382800846649
0,026172233890399
0,0275598583225135
0,0246236484610849
0,0226467834599725
0,0286776041123852
0,0264653662566589
0,0225583661038841
0,0247343617816061
0,0262715655176025
0,0236791456005444
0,026453130511624
0,0268042595664283
0,0249895653650607
0,0244143482130681
0,0249229673208282
0,0254004103085993
0,0238625939812993
0,0229108834372209
0,0270286282650166
0,0271216008237624
0,0258523189480013
0,023488706407723
0,0229092271020971
0,025684859506924
0,0260201265655987
0,0260932432351877
0,0226942805775543
0,0268829227998808
0,0256293359909031
0,0230823164650842
0,0227594719275938
0,020021702160446
0,0260030285224642
0,0292213936508264
0,0228792132053498
0,0268144800602303
0,0241672507782508
0,023628746398719
0,0231337752935589
0,0278785663270178
0,0211978084064612
0,0237450660398477
0,0214065239688232
0,0250508917496476
0,0194509493533553
0,0238094188094437
0,0201660311076932
0,0246085211173398
0,0254834535132403
0,0209664909113141
0,0198868158578471
0,0245998783547657
0,0220186187064079
0,0245499319375025
0,0233650800469563
0,0252245550417072
0,0194546254454675
0,024431965719838
0,0249232871682707
0,0224720005771921
0,0244917489186396
0,0258472719401186
0,018407680108624
0,023224130922921
0,0200157263140764
0,0254017648694542
0,0249133583043919
0,0204202869986438
0,0244079833076583
0,0207264638135213
0,0222879085113447
0,0184799455298085
0,0247740063364625
0,0170721233498274
0,0207742454690611
0,0192059617202414
0,027947751734644
0,0180831488557032
0,02651862571048
0,017790100748734
0,0282644013716899
0,0186606673772672
0,0249012631424271
0,0192787777961095
0,0252560752157952
0,0190811735381559
0,0226692848732479
0,0207228855501229
0,0211960873474217
0,0201991993620955
0,0215685038131017
0,0233471882532557
0,0187325219802884
0,0205663116166068
0,0209114075854469
0,0199667833426535
0,0214366308386477
0,0191756905712463
0,0205215560422862
0,0195911039943665
0,022365991273972
0,0182458056564351
0,0211142624744363
0,0186829573836884
0,0189579534337183
0,0201247269169987
0,0210345916347205
0,0217093257574615
0,0193836831114918
0,0218671208943226
0,0212822277759513
0,0206971430106476
0,0209944761181514
0,0199083473502238
0,0201185552027896
0,019866020359348
0,021809460961448
0,0200889687895726
0,0215841862648506
0,021746425799936
0,0214390510719873
0,0185294210349685
0,0202271358094856
0,0196351886868438
0,0175957090841982
0,019534151050738
0,0222326566552233
0,021344834761535
0,0213378847953199
0,0198805800010547
0,0212931377927876
0,0189039858966866
0,0218614066196621
0,0197358170081034
0,0201695691669037
0,0203481299467707
0,0205012457233595
0,0205843702942825
0,0219680076857129
0,0190550911836139
0,0202154848958353
0,0208695249798578
0,0195880687875528
0,01938942755333
0,0214330995093274
0,0194210725902857
0,021221384634297
0,0196689935501408
0,0201171481937619
0,0210497071398086
0,0218907909389586
0,0188082236641716
0,0189086766102295
0,019531439181946
0,0206996102387647
0,0195756515409967
0,0211458124769894
0,0200247071098012
0,0177994874425128
0,0209593712681297
0,0193831428633659
0,0234614151797492
0,0231356586645845
0,019003322493904
0,02297221468342
0,0201975966708666
0,0184327072918431
0,019907159002605
0,0189971700590869
0,0211079274181046
0,0187485370417868
0,0196549487989229
0,0205652680667144
0,0198353606415444
0,020076259496077
0,0204819301782737
0,0225029664562846
0,0220346755645421
0,0200907534363918
0,0193094839039584
0,020579233550074
0,0213770378598555
0,0197247980916858
0,0189468977810901
0,0186113628308489
0,0220083600820193
0,0222317726725919
0,0204893954441601
0,0211610436766525
0,0204948020028957
0,0206984648489815
0,0203631467486062
0,021901877657586
0,0212801747376001
0,0208818292939164
0,0205369453069709
0,0202364002257813
0,0202538983465042
0,0209104602271257
0,0219419383074626
0,0209256623892151
0,0196851179678378
0,0198909354248683
0,0194811673905089
0,0210722063311868
0,0213698540112674
0,020437058765832
0,0212739243499275
0,021610805193717
0,0199754326892804
0,0225671489692798
0,0208031782434036
0,0209173711530316
0,0214171686149768
0,0196805923170421
0,0207022610048901
0,0198659803723307
0,0228924220743353
0,0205543036117362
0,022341416984428
0,0203216918229877
0,019371547761774
0,021165133523052
0,0213221034368142
0,0219511712903891
0,0215348310887141
0,0221033051796827
0,0224505849279013
0,0245692024787719
0,0227086526221927
0,0202048611466526
0,0201966321209455
0,0214306528595696
0,0190777055658144
0,0209343877132893
0,0219645219659174
0,0207645827334394
0,0226314701114724
0,022616584479646
0,0201784940130522
0,0211703101781915
0,0202326157229295
0,0210430261401909
0,021042946181665
0,0214310461046408
0,0237166722769072
0,0196204149415572
0,0216485780707556
0,0207623492246932
0,0214223293635643
0,0232541703154221
0,0214001604635577
0,0221234965558499
0,0224252139131011
0,0224321698180981
0,0224542002883058
0,0212281173100359
0,0223962121873411
0,023284270501797
0,0231133542570773
0,0229719082228547
0,0209973235381423
0,0225689956185429
0,0226618753884884
0,0215158495168439
0,0224917807584535
0,0210572704635713
0,020284899855848
0,0211600919831117
0,0229226499615804
0,0204646857518974
0,0201200097365682
0,02234001360935
0,018866144388153
0,0205484556761454
0,0248191142785899
0,0221232589601117
0,0211530561817513
0,0196802211357699
0,0218612190430697
0,0215046414468269
0,0217452637160686
0,0223947199034899
0,0235251389538898
0,0188598867486646
0,0195956628454068
0,0201839065004552
0,0187783352549046
0,0197384861689261
0,0211589540123294
0,0223137396676635
0,0209085883159263
0,021878601726404
0,0224615071967983
0,01946216719202
0,0214797581516951
0,0232645375328068
0,0222602215861181
0,0208040932791813
0,0181817773220383
0,0216764861546523
0,0205998233698824
0,0216937912118888
0,0214436271396124
0,0189573678013584
0,0199258591732421
0,0198063810380137
0,0188668005796411
0,0200727152032231
0,021900476659088
0,0210377751684428
0,0208164937870987
0,0200017440775701
0,0219038415955868
0,0189706066939039
0,020119348201176
0,0208831601015402
0,0206871342795422
0,0211443784713961
0,018720557562893
0,0199246382730118
0,0199837452743309
0,0185390625487318
0,0188824172564135
0,0209280617960931
0,0193140451805712
0,019227230945826
0,0213330667375903
0,0186838201096228
0,0212699881224737
0,0202614083739956
0,0196379288685235
0,0205305558218524
0,0180727012713498
0,0184365615314707
0,021228455119064
0,0203357115269767
0,0202970931464685
0,0199939387144453
0,0200127494389811
0,0203929433790598
0,0197609601051013
0,018732611779893
0,0178512108653829
0,0189869479723019
0,0180783153307829
0,0196389203634293
0,0199434133271296
0,0166564497412816
0,0195343843030557
0,0195575969886195
0,020600926869507
0,0187524205342038
0,0207499668354201
0,0185398064830945
0,0175636542261925
0,0174572914640506
0,0213974179352879
0,0189286291204296
0,0184203145444325
0,018234087667314
0,0202609035502907
0,0213854887656187
0,0192875322040286
0,0189999232152175
0,0186610379183766
0,0179706352484498
0,0181687756093086
0,0195839010324075
0,0188747866465439
0,018518866082017
0,0191101096237102
0,0194823860157844
0,0185535917913938
0,0189792445254708
0,0208851878351545
0,0179629541924073
0,0155402461580352
0,0177190581245471
0,0186945230589189
0,0195674810850129
0,0193955606888185
0,0187015261332118
0,0183277046933769
0,0188131184756246
0,019190547137221
0,0173754309519533
0,0172358979469363
0,0170885534621559
0,0168533209304183
0,0166419981736166
0,0175370831228083
0,0154336468623416
0,0170198766572724
0,0178464210253982
0,0169727508511384
0,0176350130798552
0,017447271043953
0,017214097693154
0,0181553550296732
0,0171878571388216
0,0168173802072968
0,0169943246603659
0,0157815959911227
0,0162152679241252
0,0164441878971852
0,0173341674641378
0,0168259281069574
0,0136559368251893
0,0180542046253698
0,0178818500944012
0,0166879373124759
0,0169183648038119
0,0155806342595159
0,0150861138260042
0,0160726414935972
0,0155639884824926
0,0157980680464166
0,01692763084444
0,0171613656564171
0,0178732425493858
0,015683593327223
0,0134742354737601
0,0171119157403285
0,0176006972763941
0,015660405571798
0,0149775589882641
0,0164976476573093
0,0131990445985121
0,0157957511409522
0,0164872041417832
0,0148626227462193
0,0159504901591936
0,014908719963027
0,0166404220924807
0,0182996867787273
0,0161804013858311
0,0137290413574407
0,0159481115388531
0,0152651161035934
0,0160253041504386
0,0180728273151828
0,0156501204373544
0,013904600392239
0,015141697788887
0,0148182818175833
0,0167966106512266
0,0140462954709122
0,0143424713043641
0,0167241640366981
0,0189333718873268
0,0168890609231027
0,0148364628245651
0,0146419671886061
0,0153320045101267
0,0140479237760511
0,0132816068191525
0,0131929422079423
0,0150536862923449
0,015001315388467
0,0146408666493058
0,0155071168877435
0,0149237030307307
0,0151398136308526
0,0135374822552561
0,0141700030837589
0,0142370921070825
0,0170226467754132
0,0163735843539798
0,0143798257530034
0,0144658940315532
0,0151282925509177
0,0139871291568313
0,0137385948743458
0,0146445244465571
0,0160508338099032
0,0149832858286166
0,014396947123474
0,0145236431677626
0,0150799291642085
0,0128738966150724
0,0138309600759514
0,0126806225251162
0,0145326080389469
0,0121596621272218
0,0132026726934821
0,0133687705926285
0,0129973726918373
0,0145362550405461
0,0143339373791811
0,0153082833844139
0,0147081028482978
0,0152055034780008
0,0156511218311218
0,0133662457701836
0,0145111112943707
0,0138890792335054
0,0125173677123158
0,0154402568720932
0,0153341229564589
0,0137799531163891
0,013864281431865
0,0151457539302121
0,0162403555999997
0,0136043101783451
0,0134803741679814
0,0157219977519402
0,0135517702367631
0,0146703002784025
0,0133264803500147
0,0114813759116094
0,0158924128308987
0,0139336912880106
0,0130110919515938
0,0149445652038835
0,0138173118750227
0,0145482053678162
0,0137832554806613
0,013827174760764
0,0143887174893572
0,0134066971703665
0,0142085245764087
0,0152343081927525
0,0151144691265894
0,0127671379812218
0,015276585986338
0,0146088409218688
0,0115888703465868
0,0139255423862204
0,0132600333102211
0,0138599587080028
0,0140647850667
0,0150152489052645
0,0169931167137936
0,0137158266466267
0,0114847759096439
0,014040068223619
0,0153809396191494
0,0143024695617681
0,0151134297561594
0,0138347245797025
0,011544667677231
0,0139619036127293
0,0141500250102918
0,0145925841902906
0,0150495616426631
0,012858131107032
0,0136008225667921
0,0150929146866659
0,0124326511162067
0,0116335699819604
0,0149723064696224
0,0154929751388518
0,0143559446285883
0,0132819782125868
0,0121490458696908
0,0121016878241735
0,014151927861879
0,0137204620881774
0,0139290266175357
0,0148265551539927
0,0166350606233864
0,0151855401734736
0,0114644094740952
0,0134682351728572
0,0136399064823107
0,0141395839594476
0,0136317212422697
0,0144712395609529
0,0143385245369132
0,0140015941093891
0,0140346737045345
0,0138347665640517
0,0129639489316326
0,0142360963622475
0,0140507686816759
0,0160082819026063
0,0160987689856286
0,0155667696189138
0,0150890771284129
0,0152051650845972
0,0150112905025417
0,015135498170998
0,0146257766849962
0,0148276844150778
0,0138811789694366
0,0146879924184866
0,0151523786255517
0,0180053533756963
0,0149446102635849
0,0121519578759994
0,0140846664206571
0,012728985710301
0,0125077008780317
0,0136346541531398
0,0145782154696977
0,015535136372649
0,0170996492700178
0,0153040518106248
0,014808507216874
0,0135086295602093
0,0154301585889751
0,0149747721110152
0,0170106842633655
0,0163267983305987
0,0127267931227745
0,0145161302307778
0,0141947425857899
0,013308172431759
0,0152537644302369
0,0146718070603454
0,0144449110490097
0,0150155754527626
0,0174057627977374
0,0153952077196872
0,0143836751457222
0,0170783432246564
0,0161988015619
0,0149394339428236
0,0165694299826854
0,0165712043421384
0,0136824441884197
0,0149003962512951
0,0167589431605811
0,0167916341562702
0,0157388768546741
0,0152411306275517
0,0168058486538653
0,0166522399909433
0,015628843390223
0,0157836911208652
0,01622718727116
0,0147746034282222
0,0150360473553702
0,0141630498771588
0,0149044958775952
0,0185256943793686
0,0154079649574867
0,0170293529411148
0,0176850005618942
0,018299213728607
0,0168561544280711
0,0175948620261399
0,0210465133278329
0,0200573497804571
0,0141346468465775
0,0169241984303686
0,0173982411556028
0,0166820997061411
0,0180184779825293
0,0198342628888843
0,0174578421598257
0,0167298844991149
0,015996312381239
0,0154207092341084
0,014141874749757
0,0169545480976049
0,018081111876413
0,0159460474615532
0,0193546259972556
0,0175780093300705
0,0187911415236308
0,0184030327618906
0,0191215999723119
0,0215973753643384
0,0196374510348063
0,014675573017177
0,0172340875098068
0,0194671047783359
0,0188722080721827
0,0186424022476249
0,018537902887463
0,019759896722646
0,0201766021297592
0,0174509905750134
0,018497122460409
0,0215178180423347
0,0210098843837808
0,0181570472454943
0,018703287494888
0,0211038885191251
0,0203888474531223
0,0201191092584231
0,0199626578604177
0,0195814264078314
0,0213715599117948
0,0206438666944928
0,0215494814269014
0,0224317419392557
0,0210050592474783
0,0215413675749742
0,0268669320428652
0,0205112309882188
0,0220246677919143
0,0231555850294118
0,0236958679089616
0,0231222907708901
0,0219680278264357
0,0207644579013506
0,0261606386702573
0,0267849467249627
0,0238813807606968
0,0233710034495047
0,0252586208408829
0,0261550910479052
0,0273752020832626
0,0264846917762337
0,0269087947688187
0,0262140824036925
0,0252538850943042
0,0280517268639764
0,029303564502825
0,0284145887046233
0,0286921199397785
0,028298755645121
0,0267372797124826
0,0278277208848949
0,0308791047057076
0,0311408793510763
0,0301076852433229
0,0293929150730347
0,0327114320287781
0,0329176690191449
0,035093258447991
0,0389969483795914
0,0350174756413378
0,0334665230841259
0,035286423894892
0,0343726028797738
0,0346335702701197
0,0368887731860445
0,0355524040290518
0,0370743071023325
0,0385920550595883
0,037992777317526
0,0381525634196787
0,0356228674281948
0,0395444153277245
0,0411481422987226
0,0415296701855378
0,0418571831510033
0,0462504582500516
0,0502898086555389
0,0426883227483147
0,0473615306141962
0,0475975294943185
0,0547179191185231
0,056335168031798
0,0520638588508464
0,0539220605854311
0,0592865371035762
0,0590745026798111
0,0622840878853407
0,0636368721059915
0,066218613463877
0,0670664441965722
0,0725039428801665
0,0768815651322323
0,0806299525069733
0,0758559184165753
0,0848014339612316
0,0898570925249418
0,085911767185621
0,0883992723584202
0,0928247562863936
0,0944026442329941
0,0983316513126344
0,0985439485608471
0,104631445665096
0,1068318088389
0,112489908695913
0,108535817397923
0,112993228818551
0,114556809243341
0,117906361459665
0,124442239957976
0,127279809735777
0,129016054769396
0,130372405866696
0,134168679699516
0,13305646447979
0,139024748386123
0,141976693986685
0,140652132721041
0,143170511982274
0,144197970116235
0,146011240461641
0,148903905657718
0,150649967323845
0,150140771937037
0,154158070519525
0,156134034893544
0,165764289333449
0,177516227226858
0,158964582628308
0,152730613470491
0,156332172557726
0,15915904005202
0,161163866669404
0,157153869325772
0,161603947700909
0,163311693198219
0,165174186514232
0,156724194651501
0,157197169771035
0,163794598379699
0,160703869877114
0,161792612203675
0,161061438617567
0,157952810633557
0,163970024928242
0,1644366858087
0,158885302571984
0,167720392125925
0,161469416850353
0,15570104024318
0,156345473759172
0,158612915922046
0,157654343291149
0,157669599451316
0,157554294617722
0,15255695377146
0,156961293393507
0,152474910742833
0,152906888046534
0,147622748395576
0,151603915781397
0,147137771730954
0,147930714392906
0,149933396860662
0,147286711476762
0,149798199264146
0,150262122082572
0,148482448191006
0,146263434537217
0,142606026037739
0,143574299872987
0,141695862640384
0,142184850169223
0,139299739817031
0,135260600814068
0,136939164704667
0,139511343476543
0,13833491465711
0,137501232133929
0,135266040133787
0,134583254282315
0,133979974202917
0,136769197289296
0,132486729894974
0,131783524172855
0,132345909753939
0,133631285644179
0,133686639756623
0,133547941638216
0,132438097670387
0,13268437390088
0,12952553133316
0,13081137591215
0,131861175274573
0,131311171093508
0,12669273399827
0,132161749455093
0,13406315467485
0,128713264466313
0,127814229483445
0,129480568228211
0,127847137643143
0,129483526032428
0,127989856138522
0,128429631281848
0,127701733611912
0,127370780238989
0,12518883305579
0,127656839246484
0,130444798298154
0,125198539872472
0,124460364831141
0,124902799197412
0,123293827081768
0,121149019788775
0,119643770003814
0,124596429158285
0,119746348258199
0,118415206654168
0,117457960375609
0,118972576142026
0,117908550063254
0,119892735685003
0,113218352661644
0,112215932293618
0,114818949095403
0,113597364457829
0,112454590961881
0,116111969740572
0,103694667747357
0,111312964901959
0,101156173760492
0,106429024378193
0,111710513085964
0,11117787551382
0,104476055231925
0,104503936622373
0,103150357672486
0,104027752471496
0,10368760855503
0,0991410735486663
0,100294437697242
0,101312454893543
0,101106157565239
0,10048732080995
0,0999857988404082
0,101587985267442
0,104270590655806
0,101942843152813
0,10091235505112
0,0990397242351404
0,0954496668510803
0,0936522635586682
0,094063200356119
0,092221597834271
0,0917660502995415
0,0890242380211308
0,0879082393332534
0,0842307924923543
0,0852063100306038
0,0871034038378582
0,0878317264590994
0,088812245071774
0,0827472550544792
0,0862052753874857
0,0839513290736588
0,0853176586825683
0,0810886333046611
0,0826802557015957
0,0805585349631977
0,0821713848668432
0,0825409284870247
0,082137808397564
0,0886675596242913
0,0789520529603883
0,0812577367615285
0,0785809955623241
0,0777404159082542
0,0785163092839344
0,073655397094844
0,0776933118314178
0,0740265654276129
0,0759425071999903
0,0748912710792546
0,077060106089573
0,0749407160496319
0,0749951559627847
0,0726326412283985
0,0746362934904283
0,0740011892185915
0,0730678384465911
0,0740856116824342
0,077091517172886
0,0679580452434604
0,0764797205311121
0,0762546135314637
0,0756512624577761
0,0747036876211268
0,078041490536054
0,0770466753670534
0,0792703524894254
0,0800772200475887
0,0809500730577404
0,0817357970692154
0,0817723429987907
0,0801764651129022
0,0854487828536493
0,084967249802501
0,0872389642381009
0,0893619377883282
0,0891524280546052
0,0901243483553146
0,0953402549685271
0,0945330003733833
0,0957625305184686
0,0978966259088599
0,1030248076414
0,101765181982459
0,105696098844126
0,106453613803766
0,110786425579884
0,112089966973541
0,112882620008769
0,116810928982333
0,118354530682423
0,122430275836735
0,125963011398168
0,123196701773419
0,1282190577778
0,125177443326385
0,13213218460888
0,134456873617039
0,130644337381626
0,13972417246287
0,141262147341933
0,140997403934273
0,141166503197865
0,143576431314206
0,136781760524935
0,140687375807947
0,145243472593528
0,143971587838194
0,145857081493903
0,145602620720059
0,150726858075694
0,151489328934936
0,155229654709827
0,152100210919034
0,155847531530414
0,153320744631706
0,156433063612055
0,156489109768814
0,155230822916795
0,159472433113296
0,163123404029217
0,161542078256953
0,161444022119116
0,16413469459627
0,162268280686393
0,164910751537561
0,169117724873833
0,168499010938099
0,167621521357711
0,168746508268682
0,16951712697472
0,173879885648122
0,178520869352901
0,173889960748065
0,179711523812078
0,180109405484822
0,179537838197291
0,176906649180115
0,181587042017161
0,181114083430256
0,181393285937598
0,1847590064924
0,18651166734663
0,19011413767907
0,188235817745281
0,191348932861926
0,191357412086929
0,192099153407432
0,194134973410005
0,190731180092983
0,193246011343325
0,1938776354487
0,194037477011592
0,191874249786424
0,192590379237013
0,193127665190915
0,194673555409852
0,192275883316187
0,193777911635394
0,193047533072127
0,196123105444347
0,196552560047249
0,196167052567628
0,192402391210496
0,193517976415058
0,190752483091055
0,194547291069171
0,194044423176605
0,187112732417175
0,192983603499058
0,191938871346442
0,196004852650654
0,191965203930085
0,191120500869715
0,191760090128435
0,190987049343416
0,195634684376103
0,191796458275696
0,196300804827484
0,192784596429407
0,197833984636084
0,194221980845839
0,192827786136563
0,19704790352415
0,198897116546586
0,19583550465874
0,200607802666745
0,199846946917451
0,201863145053514
0,198959793414773
0,204389358618427
0,200957205107418
0,201122535653662
0,201827305120729
0,197468946007182
0,196984006279374
0,198211704005894
0,194249949030886
0,196059448252658
0,194396858978191
0,194411335057002
0,190599282602649
0,191456402263255
0,188964645126457
0,186038825784413
0,18586811216614
0,18357586359224
0,18659981453532
0,182936703717577
0,177111133532326
0,176217499423536
0,178904518538079
0,175530416721876
0,1742558701184
0,172684940591429
0,170403091282114
0,172422372318726
0,171537918873167
0,169795240794043
0,16822517267116
0,168494748567118
0,166418554751738
0,169651169392992
0,166108769979327
0,167838237566812
0,16689703143768
0,165187332684707
0,164741672511706
0,167134074783847
0,165764155728243
0,166975930555325
0,166894835253974
0,165251137930648
0,164120352970327
0,166046400021117
0,165146735494559
0,166483403019838
0,165993984954021
0,165581635943009
0,165374116979276
0,163167795068738
0,163159011434706
0,167067916071201
0,161195180816954
0,162812186134439
0,163806859829237
0,163328816934866
0,162502044904044
0,163766081252969
0,160616016461548
0,162319652068525
0,160995873081955
0,162567806717867
0,164652281187592
0,164646775585063
0,162241265360177
0,162215957152951
0,163359249630498
0,162056341695319
0,161065514032442
0,164631703087272
0,161593450700786
0,163638124334314
0,162540234880424
0,159765151493386
0,159249782254721
0,160231818177229
0,158985779720919
0,158320542607867
0,157797782391168
0,157804941912912
0,156478120109308
0,156079917656099
0,155223844522769
0,151947657590025
0,151206985138895
0,152094435851593
0,151234754544532
0,149824483933897
0,148217415241107
0,14596017563644
0,144378952350774
0,142937344143851
0,143351034760435
0,141586529485629
0,140430685439814
0,138757593935466
0,138348947902181
0,141395931886662
0,139465656944187
0,138909168462016
0,136633006970866
0,137328897631913
0,137041861682764
0,137615037219964
0,139850045624274
0,136743630966404
0,138109670268335
0,139282887801809
0,141695123090768
0,140250661918744
0,139841208386792
0,141231624502897
0,142431149778976
0,141565900098558
0,141379361205771
0,144692464455439
0,145038980835499
0,14373539529152
0,146499671162631
0,145623735017054
0,146720168342021
0,147664968191994
0,145673687822423
0,148695725537256
0,149068291773294
0,147875339636055
0,148490473151306
0,147726801920835
0,149265823783063
0,150608806530052
0,14723366041463
0,148169651642648
0,147360814879919
0,14576093429307
0,146065019259325
0,147709891451143
0,145836130698357
0,144640428747378
0,145461555059925
0,143605756168341
0,141921198971097
0,144710402206772
0,143821516998003
0,13990520844546
0,140828767521965
0,142452089040209
0,141582531979736
0,139954831652648
0,13853314473735
0,138961714585241
0,137500136536442
0,139405624915598
0,138060991610142
0,138675397362326
0,137599359715975
0,137432147014132
0,135769108625055
0,134433533664456
0,13562857976748
0,134939489086839
0,134998478941023
0,133350662323037
0,132772187608793
0,13450460398931
0,131305830172965
0,133215648408318
0,131819037517568
0,131076911177529
0,130618021423903
0,130033566828721
0,130523944600807
0,125861866506621
0,128061470535492
0,12897364448509
0,127180091298483
0,12618785131861
0,123531570062414
0,125476285635331
0,122979410395533
0,118996687585166
0,121847835146723
0,120169187351503
0,118834157405799
0,119788386459276
0,120057314955713
0,119191245323839
0,119449199188699
0,12060800383197
0,118650221739157
0,119527412270329
0,119279848789611
0,118999521246911
0,116716799503621
0,116345255388226
0,115875417573983
0,116035034361492
0,113215839398594
0,112871409024019
0,111236356454229
0,110557501152601
0,108343481646205
0,107873206257317
0,10907565879702
0,106557583151027
0,108899425567368
0,106027619450767
0,107739866658755
0,111165587073901
0,114014038582417
0,116149918556786
0,121421009865359
0,124402047710096
0,127549225869773
0,132244779198473
0,14023729857815
0,146548989166582
0,150747422555557
0,157202174103959
0,164442985860748
0,171217607728766
0,178047011619866
0,183342904035889
0,190279996911857
0,196560232348568
0,201223539731296
0,208662260637868
0,213002713738137
0,220081606997359
0,225231067117095
0,228457210265167
0,233982230390068
0,238656947598981
0,243112616238029
0,246172100062812
0,250891292997766
0,254823332958293
0,257517157742776
0,257707952933365
0,261176203273014
0,263478882462359
0,265355086374576
0,267093559951962
0,267824257572504
0,270375787269886
0,267259011603853
0,270474753590642
0,269266328218713
0,273158387319427
0,269404973598743
0,270951907310414
0,271201326684174
0,272831040409931
0,271617858783646
0,2749611381324
0,276159613561168
0,276770699705045
0,276864197631401
0,279191570991443
0,280564993728826
0,281806608633344
0,284990354765451
0,291025537825742
0,292774882441345
0,295250197039339
0,297640128806442
0,302589513577402
0,302508181133307
0,307661156506843
0,309299409493868
0,318199334272966
0,320705775048428
0,324380157483259
0,331268939120715
0,33385201148733
0,336098177667574
0,341502169268265
0,343170544043114
0,342406355742606
0,348750616476974
0,351243231214718
0,350019542447957
0,351425486564257
0,348225336520836
0,349799922730636
0,347117376027477
0,344828151062538
0,346337929925752
0,34347585469317
0,34595996137251
0,346100873037801
0,348251402039213
0,35331988213913
0,356946753760219
0,359518236498599
0,365549550518093
0,374228955170521
0,377063177631318
0,385611172716653
0,390763372780151
0,39831616127941
0,403079487947609
0,407964237496993
0,417654880613648
0,422190872189443
0,429066165095476
0,436439168860203
0,440102719713035
0,450661941089349
0,45663159557501
0,460117134337986
0,471859509809655
0,477624795320609
0,48296845644126
0,49356565501022
0,497939731576308
0,509563367031487
0,513569067383885
0,524686145924546
0,529923908296345
0,540439094775898
0,53953895713207
0,547937336754402
0,554866057382023
0,558690524088906
0,562048094006896
0,563782384226672
0,56589243636364
0,57410665367166
0,571255049270593
0,569383090107131
0,572833967618951
0,573352606425064
0,56814664822715
0,565897723166546
0,556722975868251
0,560024946026175
0,552498261931656
0,545337092181233
0,546027591196547
0,545872111517424
0,541660605683324
0,541600113568
0,53949694424396
0,547120102030618
0,542772382126517
0,541411171617983
0,544274115284412
0,551196262590638
0,553536881823926
0,557906071770744
0,561126541167925
0,566346240441387
0,5695034139866
0,572253105148806
0,572415965673676
0,579528486037121
0,579931076186393
0,582233708712037
0,57831383206511
0,5791222772875
0,581026256790648
0,58590954644524
0,585680263013147
0,580983714237003
0,580202063615637
0,578434641044151
0,57905671287012
0,568072511861974
0,571949579320105
0,566889069109666
0,562884112684227
0,563392157655489
0,556804977189154
0,553746594364092
0,547391474313986
0,542889159133449
0,536745072131893
0,537723185063062
0,532710099093007
0,522968353058858
0,524508049493681
0,515597543644159
0,509286361397284
0,502825636940294
0,494540348669835
0,484340765321313
0,474724993726722
0,462122677579068
0,453443022215133
0,439659877244153
0,425583290740669
0,410516071397978
0,398157469779722
0,378741658084822
0,364186829400688
0,355699842872108
0,346261017428984
0,333999371403785
0,321015703784871
0,315550947386594
0,307101520247363
0,301772354577002
0,297675044517437
0,296783248901155
0,294186915159957
0,289580223970507
0,288040809516287
0,289271898346562
0,281909977694595
0,280670141391383
0,279002546206693
0,277570796519171
0,273243485634645
0,271458758796005
0,26558492290895
0,261907979773835
0,259128871051763
0,253308685492114
0,249579780283685
0,245223471819697
0,235751575963484
0,229054489276054
0,222432855596149
0,216019265924172
0,211587180285108
0,200071551194355
0,198073501271968
0,187672053681434
0,180528711002569
0,171553145888146
0,164711397289409
0,1606989655999
0,14923414917071
0,147574982205668
0,137914054592494
0,132011062302136
0,1301409363511
0,122669927203486
0,120242097871769
0,115006359241022
0,111525320319927
0,109445336465722
0,10676776401123
0,105555862164507
0,103881190273805
0,0992792813822706
0,101479728325744
0,0973104164553084
0,0970814885814273
0,0955106378371887
0,0956035599020744
0,0974632786076878
0,0968274446092988
0,0928356686972303
0,0963809668565932
0,094661061538029
0,0968424116708302
0,0949028422392403
0,0996187245129199
0,0975337655491202
0,0985547234669503
0,0989180777427375
0,0996931518407506
0,100326510942188
0,0989355751833341
0,0951980587860841
0,0963878030998424
0,0991920830170289
0,0943736810342854
0,0958679657514108
0,0968124400169154
0,0932513960639401
0,0944825555839281
0,095253789731064
0,0934707296683237
0,0901626474336221
0,0881925053371715
0,0940587025743402
0,0960117846444476
0,0927051817530726
0,0975070204299552
0,0962853008375945
0,0936737651075638
0,0973067116488419
0,0990465537443351
0,0982268635246444
0,0991090831208304
0,0984016310558433
0,101833398780251
0,100708060554521
0,103149557729535
0,103997760026692
0,10273482764691
0,102450778606761
0,10587872144605
0,106157749269907
0,105519868277094
0,108870056785789
0,103604329170367
0,101861895727507
0,10513094579753
0,108856310950593
0,107738259259891
0,107418555505435
0,109081586030467
0,111056046937201
0,115352544638127
0,11787799599857
0,114722858557776
0,121220331062892
0,123392456368901
0,127175088680553
0,134650869920268
0,133938289179865
0,13964121208129
0,136092065207954
0,145630362566534
0,139883807821535
0,144623419049233
0,145657525636516
0,146276541868776
0,13965229608087
0,14154631816253
0,140854717951329
0,13635885775891
0,130747690464201
0,134108557373121
0,130578947675584
0,12469045022665
0,128646003089275
0,1238707406039
0,123308682907741
0,127835053673381
0,124147896021879
0,124605857597884
0,122122791820881
0,131799546388529
0,128311701637934
0,125703877510492
0,124187790515138
0,121752681960261
0,123356867593002
0,122190193219104
0,116972710323302
0,120267612686337
0,120249240918287
0,112184722178941
0,113221864937649
0,118471095621374
0,113206766603632
0,110675541391829
0,113216243728578
0,11299847526471
0,106711260864735
0,110188847298235
0,106096604752329
0,108572910672754
0,109616895834146
0,108875133272801
0,100355392226587
0,104826608617265
0,102130631997554
0,100217722966314
0,110537184398508
0,10462035933498
0,102470486800462
0,105153916622067
0,101525535046824
0,102669474177379
0,101198155668644
0,100408795230527
0,0951100809542929
0,0989810045091798
0,10086560139847
0,100861218205359
0,100351691387414
0,0982522651196805
0,095026385246552
0,0981411112795177
0,0946374273983953
0,0928990734329061
0,0894996531697761
0,0982728713114086
0,0949541983796441
0,0888282265575815
0,0918604363011014
0,0934471634270384
0,093266876750815
0,0915863607261185
0,0925410403831887
0,0955894364309078
0,0924920827111815
0,0933233401843359
0,0919737250401095
0,0929483683136876
0,0971766106575539
0,0924357946167402
0,0929032680726841
0,0951629542941088
0,0887705455007891
0,100932928656892
0,104799650355426
0,0962260651760333
0,10162509295116
0,102879037239685
0,0977633119176618
0,102194560441297
0,109544890784772
0,111705146798966
0,105587903560658
0,0997709955361105
0,103943312763099
0,112768336433901
0,111368753336004
0,0995487576785947
0,109568448490338
0,114819589846679
0,118072619899699
0,121477192375668
0,115966577372078
0,129212453946704
0,13364427470545
0,131076862674265
0,133351009721057
0,132929753409828
0,141111907679436
0,151702757356387
0,151404571128715
0,150233998666525
0,149794195860558
0,161601393111091
0,170321692380658
0,166315395958395
0,163964491895478
0,175294998013411
0,176583196538832
0,174453001315252
0,170904041139569
0,169261061821791
0,178674953100554
0,168342654979251
0,163787697673126
0,1726895261082
0,168990198588496
0,162988189905302
0,164245960667093
0,169286088944089
0,172701482357515
0,16468121914516
0,156626563986653
0,170750765400987
0,157564071684715
0,14805375419657
0,156610142547785
0,160230980455683
0,166508891910362
0,156612826567164
0,152533480982623
0,158205416889876
0,156894857203754
0,155397975601748
0,14809864061116
0,151623223678142
0,143093304047107
0,144187267478204
0,147109681327109
0,145409789474387
0,129869034152522
0,129017452862125
0,151628905012422
0,151590930745574
0,135607636130669
0,151544585866554
0,141316536409679
0,134341660062489
0,132729868083344
0,134525370120371
0,126498031504632
0,141999485519362
0,154076327209462
0,147671478245145
0,143753090128654
0,138549393766342
0,126314259833331
0,145728318713495
0,14200411816037
0,158558766362439
0,151368707937311
0,150507983245741
0,143701374537002
0,13216192267091
0,154321366194522
0,156115898957776
0,160375639112273
0,158217057165001
0,136300881209464
0,135311167663903
0,184674302086022
0,17951554518091
0,181439934309581
0,165445950181179
0,14768246126097
0,145321978220531
0,158130940251331
0,185389866825667
0,174499351161687
0,15675358759953
0,18711064438118
0,17469385285291
0,19576059384251
0,186341492725776
0,180888895331343
0,20321247209673
0,201939532149848
0,197969541467029
0,194855764092949
0,208208994545087
0,197327560776484
0,219534997404898
0,232334099176649
0,19976413225086
0,177871497987068
0,221008064962987
0,220267109360688
0,201973503716398
0,186597220086635
0,220097502643056
0,204891188132673
0,19478199142964
0,194462866386679
0,193961582428609
0,215425386051434
0,198318923509189
0,184981730219252
0,166667609262335
0,180316864802673
0,19069712003276
0,180129836682006
0,186831021603639
0,177494984288965
0,172845407275751
0,136170027420059
0,184469312953858
0,171923888547175
0,200552141766579
0,246750826827084
0,194737978682756
0,152354807610581
0,171954424824248
0,243891818199462
0,240526440172126
0,188012171176087
0,18598086670868
0,203131492758734
0,168526592286188
0,205263141438038
0,198740086468292
0,155707910012746
0,27413206614699
0,24316074882817
0,0329260186061983
0,176598505194271
0,167446403653691
0,185308518949165
0,220555829131608
0,139504417786384
0,176323918177759
0,243642240095442
0,233805119850907
0,254270715876356
0,262916279056021
0,235532191424912
0,307869211183703
0,168560065848834
0,187531382467332
0,292360239013259
0,203896237220829
0,229458395592013
0,186069465639489
0,16876697347143
