3596
4000,36533379555
650,420452594757
1
2
2
0,0572079836187933
0,0484719065258676
0,0421001718439933
0,0379757406858314
0,0486830315334189
0,0482232984330093
0,0512004846776774
0,0436021682085049
0,0468273641873346
0,0457318753491067
0,0521645457831993
0,0391545785311011
0,0408107672508857
0,0393002898296055
0,0470269345901995
0,0459081679541505
0,0494443100170443
0,0451740860966826
0,0507561019748841
0,0442093686131785
0,0427614444180246
0,0405765884268893
0,0446483464066164
0,0454174864710227
0,04529496987589
0,0411620287473966
0,0469132099906444
0,039975820227734
0,0438180984038447
0,0475311407481211
0,0440309974016539
0,0334396962019743
0,0459459375926521
0,0457639200707756
0,0464512574244016
0,0435656657927732
0,0486908429105043
0,0487188316789527
0,0537227345904981
0,0443059877728405
0,0518341260160431
0,0465626563313051
0,0472464978645504
0,0411144962025919
0,0462086875986089
0,0492453976044928
0,0552779878368059
0,0398094087237074
0,0430614137036209
0,0447195667975915
0,0426180783398383
0,0401338352216375
0,053215064844868
0,0479300994170378
0,0504971852096443
0,048505146774103
0,057254715903447
0,0473788047121171
0,0492613594659679
0,0447124098346119
0,0479069831890518
0,0482701685153696
0,0459517096858571
0,0384939207519023
0,052774093631913
0,0464065955146392
0,0496806874767918
0,043976890562878
0,0482498515440543
0,0427654891175631
0,0497601566846996
0,0478782895582542
0,0551480327368918
0,0465063371597836
0,0436763364991102
0,0416124527671513
0,0519515161201259
0,0428547148837365
0,0413980752574046
0,0441740508939761
0,052360290056972
0,0474280404863589
0,0480387376720853
0,0384750522102793
0,0425582335191056
0,0526511788787373
0,0479784156287385
0,0343471409897437
0,0598242378583801
0,0534398073740969
0,0472725951438982
0,0424777049078411
0,0468755502691934
0,0385079390864861
0,0465154796663743
0,0463707323590584
0,0527122009618526
0,0409830948948978
0,039561719267643
0,0425306318239366
0,039437184552028
0,0464110951145224
0,0695796988501883
0,0480817225867931
0,0581127213159938
0,0545025264398667
0,0346129464551792
0,0575795968081464
0,0586960894266131
0,0450779216772769
0,0534087085673603
0,0410422542748294
0,0527431646276075
0,0376586475572433
0,0364169900505264
0,0433035280712146
0,0571231862181591
0,0438076408366756
0,0486716534682857
0,0418779716653085
0,036729184001013
0,0492212530965647
0,0692222926782726
0,045268261764898
0,0440925292504589
0,0439635129974629
0,0409503899820339
0,0493678372739407
0,0566843463487139
0,0454346956828355
0,0480492603838238
0,0523954038803837
0,0377102202776165
0,0409987170028034
0,0589021667446152
0,0528986709122783
0,0341920577564293
0,0335185649936907
0,0453642828243816
0,0756187429216376
0,0647930315088886
0,0472315860769631
0,0425693543306282
0,0347487304880215
0,0655277413690859
0,0524577778929768
0,0313284641393047
0,058604635912369
0,0616849728348629
0,0421555311990821
0,0465510083039518
0,0434826581674461
0,0565358306637163
0,046536994633719
0,0152937428009231
0,0694594983689139
0,0848334199332724
0,0578072836298503
0,0650188798876531
0,065438582686101
0,0499068874890088
0,0527740355510837
0,0400129743005084
0,0497780526634849
0,0445183207421301
0,0290190166107807
0,0424955011320566
0,0612549757305586
0,0431687798215101
0,0424943368774992
0,0617705095013148
0,0448628398000658
0,0443850272600725
0,0742603437876633
0,0562496224696783
0,0339572870607966
0,061473815300614
0,0593282429516766
0,0306818979359282
0,0398429890061936
0,0633223549383578
0,0597823987312998
0,0439057723424971
0,0483425120152069
0,0456013446802557
0,0557827648401395
0,0504531637229437
0,0506568978748611
0,0434012581728732
0,0342507107505325
0,0398069794617165
0,0725070727820515
0,0574479605758178
0,0574256010425501
0,0402005460628001
0,0352311006089011
0,0502268490409348
0,0736467390896374
0,0491348755618413
0,0490234097955479
0,0542239760278725
0,04633393884092
0,0427693940450097
0,0469085438321348
0,0351819122592592
0,0418699791691696
0,0578415285622012
0,066179281604636
0,0472272734164423
0,0533114221137581
0,0466968203145329
0,0405174027062369
0,0561172856823385
0,062184998117394
0,052076834321835
0,0484918744244541
0,0394547742017427
0,0486434264250097
0,0654090770929669
0,0551235121406638
0,047579752070333
0,0511255181608025
0,0508966007698354
0,0527969905130098
0,053147619538043
0,0491351370264035
0,0474957593970431
0,0478162581830076
0,0526779535539102
0,0556947080616628
0,0533974802268281
0,0498683759571933
0,0499275507598835
0,0510759519975238
0,0357984311846568
0,0440041217094758
0,0582118659221443
0,0539457041103027
0,050897086969287
0,0533881898968857
0,0443630897333711
0,0474974615260281
0,0492711351740002
0,0622068882164083
0,0472098979420904
0,0452250444205638
0,0542159307363674
0,0690799085933444
0,0487606446117061
0,0470997373147956
0,0530207177763724
0,0610647938212979
0,0543488364290562
0,0524035402810417
0,0513685195279719
0,0487621708386704
0,0466880168120097
0,0606079077246007
0,0566095286270017
0,048021258869157
0,0640409815606978
0,0547828202279626
0,0556666783192427
0,0384181536561963
0,044094631523631
0,0757844651376317
0,0584709461241524
0,0500405516095739
0,0879862645493517
0,0716455467277352
0,0655429256440718
0,0464229226599137
0,0289732773216394
0,0784336651791201
0,0951562430258799
0,0632132606302327
0,0608234793224877
0,0604411474127592
0,0563322311161761
0,0542512833102496
0,0463163476383635
0,05997701035339
0,0593359352960738
0,0972592421491861
0,0830871160996051
0,051691056851955
0,0601350628996604
0,0812465004950947
0,0654391715286928
0,0604019152800611
0,052246721397209
0,0614400975134726
0,0703123023832682
0,0607491328771461
0,0720553833815418
0,0630709253838968
0,0680364958276521
0,0777104783678249
0,0735450548068185
0,0623148768364024
0,0751292189734874
0,0715491833624623
0,0737542089633891
0,0680712316715911
0,0710032536237886
0,0768593323325203
0,0616929171166802
0,0615492977754139
0,0977410402877951
0,0786550234429705
0,0735536383231259
0,0949832540498573
0,0904754836488735
0,0739116865826941
0,0813201377860225
0,0820663895807536
0,0791560574487352
0,0711381163680561
0,0816391903641778
0,0940272714173399
0,0935181882429111
0,0814979518018292
0,084762946484149
0,0906419323395376
0,0850207278840214
0,0887285188390474
0,09447739824383
0,0969136512413132
0,0951938581574593
0,0936563605951665
0,115473552447806
0,112223997249586
0,0893733471107097
0,109031161566018
0,123005489155946
0,117498244212055
0,112949759434705
0,118819334127646
0,115508476837787
0,115938221378609
0,1180814134017
0,120652818254255
0,117936791290772
0,139419642052482
0,13535573089135
0,131114718825987
0,130835276079838
0,182024001294618
0,179827711925889
0,16900215600883
0,147874255665872
0,142471085605557
0,173801433255598
0,170009245706392
0,171580818663625
0,177524347986209
0,180821526320241
0,171286055925068
0,181428927244772
0,183520937409594
0,187455221099556
0,190544532302558
0,196692432806891
0,191942784719997
0,206001965237421
0,214850593410838
0,200826660792271
0,211467106284948
0,234326327951486
0,22974205490474
0,225574859208773
0,224561512241235
0,2275180392108
0,240190333813888
0,250772938992562
0,261491359301712
0,24105047909099
0,265749425987404
0,270142881804434
0,278108559312412
0,252935979825764
0,260079000632762
0,266604046126954
0,280251935368957
0,27647927178918
0,283202444930103
0,277212285339348
0,292219333081278
0,290613006316115
0,305650856695283
0,286080769037923
0,299002785562055
0,312910125596496
0,32247575640104
0,307868274869857
0,307586996807091
0,305332930819648
0,354769659709142
0,339816772089911
0,33995143798844
0,334453077138519
0,324046221958505
0,330164379813987
0,340300441492205
0,337787047545976
0,356141759933776
0,356561327474538
0,358648094625246
0,363103089279217
0,376796100957271
0,372281535268799
0,36952961770424
0,367356561407479
0,369936399358889
0,36112249486426
0,403528213633961
0,382803505194031
0,372838863757828
0,402696644192919
0,404112343579721
0,408557669493297
0,405392055509436
0,40125774041324
0,39983802746656
0,401498093350065
0,40706342947122
0,412352203718828
0,424683044613513
0,412637124816045
0,424484932856008
0,427817270371126
0,435102349966248
0,425934574909206
0,438938288785064
0,441875722167301
0,445185740969168
0,422237316660418
0,437946370110457
0,438226120092598
0,453130918102819
0,460326828595408
0,47641377899311
0,473281039494027
0,488914614341172
0,466558748661015
0,46460333984975
0,477989537316433
0,490793463253917
0,475814660599734
0,480558301983869
0,492024535443852
0,493021059269386
0,491793835046136
0,520693082221445
0,496154672014015
0,495304606038866
0,493278922757834
0,504853320503008
0,506802586770257
0,52210681318158
0,51120497696151
0,516737247544327
0,53468218981528
0,544511411540608
0,54654903545967
0,560653771488114
0,540450373442119
0,568525062501657
0,549877818336878
0,568728751226992
0,56055612807171
0,565177541874834
0,553697338964848
0,555494738368409
0,578183023121851
0,582328884614763
0,577789403897361
0,591874431147475
0,560661253062303
0,606865472421415
0,579622244650487
0,586115450755585
0,610548336619768
0,638112775226051
0,610017271313849
0,619233567931482
0,613115674540271
0,636284660456645
0,605517087246469
0,632945299897742
0,621170396559643
0,638919712385478
0,624002017026132
0,660897279476698
0,64219705471369
0,657848396411741
0,659844506158339
0,688285085190297
0,656700125653585
0,700558070077748
0,682657907057096
0,692244530307447
0,651618840025736
0,664090612941191
0,644559338847036
0,687521087932394
0,699701194416652
0,720938800657002
0,698864782811199
0,708811785559301
0,679764037361983
0,72816170207744
0,716928555956419
0,704007164653364
0,693945159256413
0,755540612457971
0,72172015444223
0,720857531578191
0,695736149046781
0,742067787104017
0,709066221124227
0,72785455080629
0,751419337684886
0,751456727856014
0,768627632829842
0,825891226388796
0,771426594580206
0,812049051955511
0,744716114668616
0,787667805339185
0,765883445839412
0,831945157822511
0,759859324253828
0,812483013892537
0,81760503413232
0,821883719975251
0,800620488832053
0,801646665210245
0,781940697905962
0,839970407651441
0,780552748673804
0,841552812884774
0,801325833456924
0,857858564196454
0,828213199650795
0,890857716814207
0,852049363158352
0,86054766445666
0,83826172253785
0,858662315513298
0,81308509840942
0,959763972177324
0,87985496549403
0,885946094891621
0,83582663272411
0,894411371668872
0,825603898311643
0,91183531959959
0,880925083259054
0,922695565064141
0,932752914653394
0,958156606386212
0,883796639108379
0,914294513751125
0,862696645672069
0,922216495280759
0,89476228035945
0,912569452939457
0,900720527916085
0,934483150970389
0,875479113428797
0,957433741004695
0,970734420337604
1,01751728761167
0,933688322459259
1,00314071292552
1,00153122613709
1,03082952674439
0,95966853725831
1,06586142141647
0,99722519676383
1,07208119425515
0,97308216270611
1,05804312114071
0,955077413761038
0,986482173009893
0,973657239964371
1,0016793373689
0,96290922567317
1,03270495640844
1,0060948293967
1,03413537368104
1,01816688764568
1,05786773207023
1,03227113444694
1,07896954726172
0,997811715920022
1,07465304630078
1,02152860110468
1,0819955164414
1,03041564057615
1,05254966278612
0,956820507984368
1,01626217821189
1,05945120936346
1,07059367213624
1,05811358357847
1,13618845177946
1,04523816222912
1,17566272773794
1,12872856471699
1,16358907972435
1,06341099102899
1,09615002991292
1,20891286134444
1,20648108663295
1,07161715310102
1,1181525916197
1,08672757507261
1,15907284937459
1,11847916834246
1,21176186268269
1,10833499302163
1,20580718747983
1,19383782594651
1,10191800593646
1,1491345783675
1,17927779368577
1,14923009862791
1,22220923825344
1,12243860115214
1,25942321403996
1,10026551012748
1,239958449814
1,19511897211386
1,32012026188688
1,19545469850162
1,23986872227633
1,18441457721974
1,21843983546791
1,08618354983524
1,13628300077794
1,19139568537708
1,32148425620738
1,1605355240568
1,36676413115429
1,21672307581469
1,30833939635275
1,21546332501538
1,29593902677536
1,21259671832011
1,28517647100319
1,13549894839878
1,21847438000649
1,19254473296411
1,28560631500214
1,26325479670289
1,34579675113581
1,2777057471577
1,27894271473346
1,22155369875905
1,40568524526899
1,28396081975888
1,33837130961637
1,20835839750258
1,30598093994713
1,19123690274144
1,33356530347021
1,25052062485395
1,4440541476841
1,20950839566785
1,3753810742455
1,30359849051485
1,38001514387473
1,21948553328977
1,26443174020622
1,24561705932422
1,33047074188826
1,19335745435183
1,29227362500387
1,30316976218934
1,4418747817074
1,27126789334863
1,28833057550651
1,2867158220875
1,42189783043992
1,32824262703466
1,34159034952152
1,30894480585259
1,28760175427911
1,28107383566446
1,41464087038412
1,31542378407979
1,40587271939388
1,28665744575356
1,32945836006624
1,21910518020327
1,37377029294894
1,22809209123475
1,28542427876246
1,30350299052119
1,43085942118817
1,27129026114595
1,32924337482162
1,24202777729972
1,369879629279
1,38973814181075
1,51161127883624
1,25140290874447
1,3349901391387
1,38408596270758
1,4387817321746
1,27849878246938
1,37040762415008
1,28559746501738
1,36675503705644
1,24797504455856
1,35021778201182
1,287976445248
1,39530536060257
1,33287234501792
1,34511856713445
1,2968702452112
1,35407885525295
1,31642133382254
1,29805510604915
1,29432501497345
1,48629620729808
1,31775462649575
1,36715739078862
1,29230782757198
1,47136636656305
1,30930790613422
1,37544356006211
1,27678591666374
1,30383519477059
1,31009033507367
1,37049674589554
1,32966924129214
1,33665166291888
1,24520933639667
1,31200272837367
1,28352844732537
1,35433782038091
1,22239520887298
1,33889087683997
1,3520070803752
1,33525455360569
1,34668105848431
1,40579452885486
1,32578794092971
1,35522862645763
1,31004942731699
1,43434876500881
1,27214815741045
1,3691862546116
1,27870126811165
1,34955308162583
1,30302253967083
1,3747057407991
1,29872275150135
1,41274108840898
1,24603633735127
1,33406154712838
1,2798515093927
1,33794318045635
1,33346383931695
1,31361176177904
1,24619286359877
1,39523914861034
1,33427674893701
1,46357496528995
1,2492254897762
1,38283179632729
1,31448756966526
1,34540820638082
1,28072385424096
1,31196595291272
1,29481734772406
1,40155667087009
1,26440152125437
1,42445244854649
1,29753460765178
1,31910004654752
1,25617691051029
1,4167856543983
1,24971952663766
1,36532668933426
1,25265520955982
1,37901946583465
1,27080189087957
1,40822628034416
1,30634906239901
1,41008206555312
1,35476113237717
1,42479337841841
1,29249616373968
1,31655067977501
1,26492951002654
1,33437600977818
1,23015543924702
1,31974022532248
1,2738625888608
1,40070112111964
1,28266028223007
1,41383880620829
1,27721648562735
1,31676302589259
1,24481639212215
1,36740904450679
1,31133783719078
1,37972537641859
1,26828029622634
1,34113095074913
1,31338252523378
1,35936937072401
1,26509861381416
1,37104092575345
1,26029352583374
1,37470177335592
1,25582037428571
1,31911582504929
1,27863925743172
1,37577950077651
1,24708407514018
1,33971187094337
1,28617938574935
1,33073724947846
1,23072722266645
1,2666153541476
1,2399425277061
1,29856025177908
1,25948836683649
1,34528627917853
1,19470954481037
1,31599110804523
1,19976258983339
1,33295821139353
1,25885251786293
1,27725846181847
1,21869505983285
1,29606044443834
1,29208382099487
1,29948742124702
1,19929179750757
1,29116195339143
1,21414772084297
1,32497146806543
1,20701176314271
1,25281480586402
1,22471120665515
1,2587652368767
1,24440382820759
1,25805401609999
1,19037336102614
1,23298283953527
1,18658980115691
1,22109638195595
1,16907520659397
1,22504826969438
1,17811139294459
1,25714412000275
1,15240444972467
1,19959756921685
1,16296666687999
1,22016961088751
1,20157524138297
1,20893357468216
1,12733827167965
1,20219833660726
1,12788594729446
1,16876119886879
1,09844415401577
1,15015581055769
1,17618624975409
1,1663039109827
1,11127757976601
1,17046553485546
1,087100102903
1,14054634730332
1,08991818677069
1,14069583147436
1,11982064070006
1,1539364336162
1,11456299699445
1,11962103999108
1,04533832535454
1,10463104734703
1,05739059890577
1,09674730002751
1,07884800649967
1,08033972172075
1,04927494521721
1,09551079913799
0,994445706923236
1,05821725308155
0,985403777297662
1,0769414567255
1,03020866704046
1,05421581599436
1,00046255767763
1,04461363674657
0,985253220961787
1,0417548796433
0,962531757229767
1,02861132322662
0,965930856584968
1,01262444742411
0,932712615468938
0,966662420924592
0,950873514982042
1,00860270893134
0,9489421609231
0,982686264948018
0,934908916242111
0,965147473593202
0,938232888478009
0,943740082293335
0,908934401872382
0,933174588581427
0,900791664528466
0,934116913125465
0,867017611188957
0,919580055418353
0,864694508175281
0,915238148847213
0,875550554187627
0,896330527169648
0,86554783864705
0,881913248082546
0,866747878715828
0,887122607367327
0,848150348085747
0,857567071258515
0,856297820485728
0,864818445275637
0,810025980352397
0,845519802663403
0,83410074360216
0,839136594720686
0,79699879031719
0,828736435059275
0,781201602167755
0,811285628306888
0,781212155958188
0,788650146054187
0,797801361925801
0,794433681609509
0,766071803090315
0,780290392783975
0,769525066634901
0,783538843000233
0,738616904578573
0,770095177706845
0,728001312091353
0,756438773911731
0,736869910527601
0,748784700087456
0,71182439242288
0,731440985100495
0,714811651133128
0,720196847367935
0,690201886690712
0,709397460806293
0,694006080779595
0,712758387504567
0,685024203827296
0,703644135043819
0,676267416513078
0,695544877321574
0,662305294860552
0,684391970397782
0,662370152228464
0,670929979242969
0,647993393447802
0,664908407742661
0,644500597713233
0,648089426409771
0,638109874791815
0,643424375338737
0,613644140848291
0,643808034004008
0,631731192536823
0,640236720244351
0,607887334010651
0,625384184456336
0,605190882618412
0,619496402835167
0,598608109102071
0,605341217454471
0,580177631640388
0,59887154647849
0,577705196144274
0,592350670922012
0,568323978414385
0,574489590227622
0,566540446970594
0,569641943629139
0,549185209255943
0,560346285562062
0,54730273306653
0,550640080731566
0,533513909359229
0,556216449543976
0,542692875772651
0,543735455402056
0,527418044579059
0,537738316588734
0,515116995800973
0,519769565618487
0,515262162441461
0,523968705453202
0,503756130619925
0,504999957106335
0,497205536569103
0,500177225297174
0,492619889245192
0,489210436766315
0,488693892010394
0,492802659723568
0,477586188186079
0,495543025547039
0,470659436992523
0,480367169269597
0,465513150551299
0,466693334443204
0,455835513793579
0,467193388956397
0,449408580007415
0,457199939194092
0,450803402532838
0,453213119343285
0,442943819942009
0,454112210589225
0,42444705805352
0,436324641969851
0,42257001124769
0,428913248863167
0,423682541163244
0,430480377488006
0,422342319524867
0,417983983230982
0,409283761900394
0,418886749881906
0,404337933863205
0,415943043240295
0,401571416639954
0,406266932454553
0,390414764059297
0,404426601230826
0,385472577525625
0,387167921080506
0,387142828811723
0,389038313750808
0,372219310672323
0,375071577907142
0,374748708912558
0,374725898905048
0,364990292886756
0,36881491088689
0,356512898395449
0,367708909106107
0,358204173056218
0,364276790334782
0,35756577831078
0,354552598373392
0,343478743143677
0,35059362836994
0,337007950499925
0,347268633213545
0,339583613543111
0,341892925311984
0,331647930817457
0,331805479887025
0,32688447623321
0,33638810295105
0,323420212414371
0,328614958606678
0,320708260921221
0,337701078154633
0,318828608045195
0,3250116738907
0,313043847340872
0,315149711945625
0,30666989035457
0,318916024922407
0,305048335957001
0,307769201308644
0,301093430314342
0,304516742060752
0,289516161497847
0,301371575916295
0,293882468737477
0,297187250804143
0,286670039256331
0,287949931376267
0,283632614882499
0,288867354273143
0,279264160744416
0,285806868659012
0,274394191568168
0,285219066907076
0,279198666417145
0,281362916174614
0,271429545772515
0,278375497861784
0,266793157285061
0,274870423974142
0,262580208820475
0,270103822130991
0,260211221054027
0,269093271472763
0,253589388416271
0,268916170276867
0,258608506225295
0,258292532628693
0,254361866679809
0,261212000773241
0,246706266958538
0,255014904921794
0,243804018059098
0,245291959373876
0,245989249497772
0,247102821576872
0,237834753423241
0,245181846439173
0,241959237620728
0,246161842448061
0,235450001920527
0,242527950086029
0,230386747921215
0,234555044119924
0,230695982097858
0,236942612608011
0,229534276257956
0,233173940419475
0,223590646812859
0,23145416014891
0,216453739034547
0,226060286093711
0,224176440571358
0,22470491727699
0,218425704487912
0,226704436636877
0,217337944732935
0,224356939254666
0,211115582908965
0,21724571221523
0,209044661511343
0,215090142287118
0,207566491369569
0,212771056236646
0,205356595029525
0,210124274916301
0,200818632920531
0,213479052149554
0,199043485145604
0,204062566497169
0,195276147052021
0,198328525641569
0,196161903699923
0,196891609733388
0,190044076178405
0,196835887192903
0,187274763957335
0,199383093886343
0,191039871938646
0,193782314616825
0,183606429402819
0,189822683994695
0,18488330833073
0,188560633703177
0,178494172667004
0,187364642132417
0,181970970258552
0,182291209737984
0,175578145637472
0,180713064556325
0,178382906483274
0,183736048179002
0,172874151565822
0,181120379477272
0,175663213616558
0,178657270773841
0,170187921628235
0,175373621382871
0,166776889293615
0,171670708807791
0,161734891379662
0,174868755714802
0,161530760477852
0,166751667068642
0,165208985264691
0,169781832481125
0,163014062337225
0,16491003141129
0,158655282147523
0,164553457980655
0,158113999906379
0,16322403641122
0,155965730962987
0,163986210362511
0,155324475373203
0,159858881663962
0,154607365939204
0,158940225989029
0,153091418397864
0,157274875271337
0,149283946061721
0,154860184162168
0,144345835993899
0,154113280297443
0,148003775476336
0,151428168209486
0,146799049823438
0,150007474383406
0,140758682421975
0,148537546613861
0,141434002324983
0,146424620615645
0,139079490663435
0,147334366829726
0,139336712078849
0,144249661661435
0,136697574084064
0,14347761276615
0,13155003446334
0,142588607826881
0,133910275581736
0,13730068244898
0,128861035548656
0,138815817169582
0,130806078167618
0,134258096685462
0,128313378058646
0,133506591376891
0,125519957355123
0,132606838018375
0,124216364600333
0,130825617951967
0,124432245865445
0,128719227567581
0,12580941015436
0,129997463178688
0,120734466521079
0,125965440151135
0,119768716798763
0,127408261847401
0,120670867964349
0,123000305889001
0,118252953391652
0,121953341843609
0,118607070893199
0,125089954374374
0,117764024191867
0,124532907389775
0,114588349686502
0,117296839605697
0,115915070938672
0,122900663026949
0,117629869934454
0,120384770853362
0,110694873085875
0,114759255503705
0,109288858845356
0,116024255163526
0,109264304178521
0,116542989927282
0,10890466716589
0,118269009556517
0,108786749307522
0,11313073096871
0,111034706529394
0,109152691042157
0,107669611785413
0,111447903066368
0,106071024935589
0,108773764783156
0,107409760274372
0,110134496993733
0,101545088798683
0,103562176973609
0,100460143138044
0,105573926670314
0,0988867820866501
0,107093336936792
0,102558879953922
0,10531392495558
0,0989579012339931
0,106155656775857
0,104725662730277
0,104218499324851
0,0985316428242529
0,0997598284461009
0,0967410463798443
0,102761299295925
0,0968521316199157
0,100743618733059
0,0949547978104272
0,101298950485441
0,0951918216840627
0,0974948602970045
0,0941123139443991
0,101312601272933
0,0954651757366893
0,0980523248865472
0,091115048947396
0,0962357353110747
0,0956496342557977
0,099118327032634
0,0924112755020168
0,0952373501774193
0,0914615378761288
0,097052998916497
0,0917777880807926
0,0947875460461571
0,093255206925878
0,0987780095498004
0,09023768147246
0,094473200823335
0,0888267278372405
0,0906874337789092
0,0872147692764796
0,0932039217135929
0,08850655168671
0,0930862987851972
0,087602050996266
0,0918267147553581
0,0864379293306151
0,0902678372276162
0,0895508984343144
0,089919610265301
0,0873133657787613
0,0914974151626531
0,0876683863996155
0,0916546438137173
0,0845916252627068
0,0906880178974194
0,0852669526511439
0,0886096856978093
0,0833148334849183
0,092783424082302
0,083103217060311
0,0912097620182908
0,0833858264067619
0,0875818435020155
0,0816376888651031
0,0860016809214743
0,0833823187054238
0,0860597037679786
0,0855633420344466
0,0878320491394146
0,0807330626963517
0,0874701563044103
0,0825957488082819
0,0893687275564933
0,0801934645884794
0,086699628590488
0,077071253205712
0,0863978907073927
0,0779476201508763
0,0840646449151467
0,078096999533127
0,0869335458197913
0,0812504926839406
0,0847417889011961
0,0795185111413359
0,083880185323513
0,0778750675661137
0,0827916116486678
0,0759499474558244
0,0834586660146342
0,0760984438122218
0,0800833765607826
0,0755185029172644
0,0820549148171725
0,0779449045058677
0,083577067308137
0,076777778688501
0,0815781293657805
0,0770539707308327
0,0803704913504689
0,0745047951453371
0,0813446054973709
0,0757373536507811
0,0822449790142416
0,0772580036652619
0,0807423699418076
0,0758606149559646
0,0828821536400709
0,0729837924891537
0,0792847566086576
0,0749332406023679
0,0783512332076316
0,0723453302353162
0,0781040482920337
0,0739682236348847
0,0791648683299506
0,0711875169057298
0,0799880596475995
0,0770623167385792
0,0781931876981147
0,0735028979435373
0,0788693912911418
0,0748681819494288
0,0756069686699822
0,0695939509758475
0,0763426975962329
0,0675148120443533
0,0753215771213702
0,0718092416128723
0,0764914854616406
0,0703819429550381
0,0730479791594277
0,0737696100020485
0,076344665421405
0,06965669933104
0,0754190474866737
0,072948552328348
0,0763021605324612
0,0725393886229735
0,0759440212096861
0,0727345281870782
0,0717074606761372
0,0670105667168016
0,0744682081775493
0,0677336897887504
0,0745313533218496
0,0709040719971611
0,0751244542570288
0,069931213076831
0,0730377012315474
0,0688943754075513
0,0716090536095164
0,0687543743998019
0,0755886967920762
0,0690655138418919
0,0750310673975533
0,0694403243743995
0,0758181040118912
0,069744723759125
0,0739179410412173
0,069630032169347
0,0726891994554918
0,0652477243386478
0,0709835017953786
0,0683829065751652
0,0712014439418545
0,068741956785332
0,0690664550317588
0,0657843116250549
0,0695484089131772
0,065289474563791
0,0731475981114403
0,0645517360668668
0,0708267078945508
0,0673060919548987
0,0749281706933744
0,0676005691859093
0,0728999319200289
0,0673781403721094
0,0703529581060727
0,0658448202578794
0,0731175067923371
0,0644681299805584
0,0687243321044817
0,0661638999281636
0,0703145827574945
0,0655998801000226
0,0731797291967117
0,0646498052615093
0,0718784040907579
0,066072728641113
0,0720198259192271
0,0650069321488545
0,0712772033767866
0,0656778888660642
0,0726306331565068
0,0667272899788713
0,0697987245740054
0,065161612941446
0,068922325609506
0,0639268221594006
0,0692884726365466
0,0667843725555684
0,0706673237651619
0,0645002368772521
0,0715242373300581
0,0652197323093182
0,0699722420504348
0,0614004675347132
0,0710568989635924
0,0646872420338481
0,0702300871785038
0,0624539345628311
0,0681757451072598
0,0657707641505586
0,0694038474209947
0,0629142581747934
0,071875360743938
0,0669048142354655
0,072442365079561
0,0670312992555273
0,0706566396025558
0,0664058800459903
0,071261029065155
0,0619196863576615
0,0695312898802689
0,0656189440209939
0,0689971453906855
0,0658832792842619
0,0695431040637967
0,064732996917963
0,0705560500771244
0,0653817460752616
0,0712542325618599
0,0632821989140472
0,0681509207496944
0,0647558612376178
0,0699951856079123
0,0669158109649132
0,0689222022405136
0,0626659377399634
0,0663751657452235
0,0687212083680756
0,0718024760248349
0,0650408343961653
0,0698042685812878
0,0657062863754661
0,0693101264710392
0,0649492000191408
0,0669399674906357
0,0672793784872775
0,0677447942097028
0,062434979318711
0,0687092978979084
0,0655049795645185
0,0686527422999633
0,0617313125639982
0,0699367909411925
0,0631328592825202
0,071791288515588
0,0656843753754323
0,0690996330767291
0,0648132075385128
0,0696238316292113
0,0644527233326042
0,0694130391082847
0,0645162343515251
0,0698394092287033
0,0650187696666604
0,0688836390145197
0,0642103974299477
0,0689892732344353
0,0665237474199022
0,0712814054730162
0,0646124045361787
0,0712375186117121
0,0664177933375035
0,0698598045302694
0,06754442579122
0,0705407172139614
0,0662943499103911
0,070386687448193
0,0667799382594478
0,0723990873052508
0,0650216004553074
0,0716176850870333
0,0668614716166559
0,0699799249381881
0,0653845634693033
0,0696968044564541
0,0656909081967373
0,0713059540673614
0,0667525888898408
0,0723525691212339
0,0669017256077791
0,0704968757906286
0,0647504458303052
0,0708334538657248
0,0644033572369116
0,0673521622830367
0,066333391501855
0,071381069846895
0,0645632715700613
0,0709663063123119
0,067014867650499
0,0707540018119975
0,0666912398299625
0,0713537286661954
0,0669530585901746
0,0719189986481459
0,068371461416985
0,0689636883560614
0,0664184931011426
0,0723172084271508
0,0659868172536868
0,0717680847440779
0,0643884483928649
0,0701913949936971
0,0662941798482692
0,0737370940422655
0,0676608778890409
0,0713951400172121
0,0681637808044604
0,0750387219524728
0,0681742013193328
0,0740574344235821
0,0684376787693913
0,074363860048534
0,065542124266194
0,0725976128281851
0,0704850261654224
0,07217326078868
0,0705797629445889
0,0717749814790013
0,0663081974235484
0,0726111469934528
0,0677780110208178
0,0724710708079997
0,0680498272566561
0,0714826709755569
0,0685848627204303
0,073608143383622
0,0679784283521739
0,0702343542125274
0,069578653729942
0,0711298457755265
0,0686700835577954
0,0763744927612987
0,0695455212411349
0,0741184447921537
0,0675088158862621
0,0721828151488608
0,0679309278399511
0,0720778195995216
0,0692784125994656
0,0717342139421196
0,0667949178151843
0,0753779021590602
0,0694357946241792
0,0743980145371742
0,0687910541666349
0,0762911046024724
0,0677893009228073
0,0748861909408867
0,071165126141814
0,074203365720245
0,0666709533487827
0,0743367791531074
0,069525755502895
0,0742021009544037
0,0717719385551636
0,0738379857097228
0,0706379267826812
0,0767958507544888
0,0709220276829504
0,0764534482920902
0,0692328793201524
0,0742601482116936
0,0688156347764886
0,0743121037106355
0,0677221489462486
0,075185000920297
0,0716615816174632
0,0759287789809616
0,071227849243307
0,0742081255064238
0,0713807020493091
0,0781590832633641
0,0704762114366246
0,0793066058337166
0,0720935723421671
0,079676057091678
0,07344689114324
0,0765939164447987
0,0718556282083089
0,078189144391006
0,0726791861824379
0,0775148727059957
0,0715905480544657
0,0777240786995299
0,0724400606852938
0,0767046645746589
0,0725279114851965
0,0768168170565175
0,0738852790946074
0,0759602283270998
0,072274313857156
0,0806365918784334
0,0753313940538185
0,0788963269605267
0,0738994413468667
0,0755875583975494
0,0724807471399818
0,0797030178357195
0,0740967815330906
0,0810894070574101
0,0729330075625394
0,079564881805849
0,0731858028955726
0,0800813123052475
0,0756334405785033
0,081502492102295
0,0758965929824421
0,0779377658059318
0,0740056659894618
0,0779708219428727
0,0730119242677593
0,0800541182453216
0,073541435936112
0,0809592741486296
0,0737844715974861
0,0806264896778436
0,0749590562026461
0,0808174999641361
0,0759136058876437
0,0809279627633559
0,0748702399200934
0,0797823078749234
0,0729327992503787
0,0823961778050826
0,0761622213089713
0,0834237817907932
0,0742535721053725
0,0825704134876007
0,0764460451046687
0,0837430212739497
0,0762054438650741
0,0815267667441587
0,0765938233979917
0,0844797749858075
0,0790943941717081
0,0820417333871498
0,0773061122292439
0,0814556481079209
0,0740362368157285
0,0853490949677621
0,0786063544750607
0,0852701172683614
0,0771561083473471
0,0873880339197718
0,0788067289855485
0,0841512120453364
0,0753587908541948
0,0880737463529069
0,0777828377624663
0,0916279981590853
0,078474411897442
0,09224071641292
0,0752039006470133
0,0852498599715265
0,071543038655999
0,0908888492989758
0,0793409213264311
0,0869169254429232
0,0696654370999628
0,0924207722075886
0,0745851525520632
0,088239703803615
0,0724292627130953
0,0922986497119846
0,0758658493756368
0,0908212017134868
0,0698242028340076
0,0962042366397672
0,0723713067964196
0,0948755074494183
0,0763701990829637
0,0939540167676197
0,0767316136987558
0,0936945669444854
0,0694635505083927
0,0953853405151778
0,0725955861281732
0,0923908614528967
0,068491719714541
0,0986662231824891
0,0676485261597953
0,0999249738690634
0,0633388022744415
0,0995533285437069
0,0648230787391712
0,0998112162879496
0,0655143013239916
0,111296459610149
0,0698316214452654
0,111709025448764
0,0620874910624365
0,108320771208454
0,0574976770174871
0,112457563788279
0,0705965530950137
0,122292671051306
0,0612683238945765
0,106847161158973
0,0672781141993196
0,11547923849105
0,0774471426094401
0,100538062750476
0,0758627126391972
0,104572352341891
0,0933297724738874
0,0825101363922075
0,098395318658178
0,0820740982464835
0,110723976730021
0,06704945010247
0,11855051592153
0,0665941205635214
0,114786163072732
0,0703585182262866
0,111618685328186
0,0773888082515158
0,105550573380092
0,0867965241057957
0,0954046683879191
0,0924894985509325
0,0887250543012293
0,0927706077996171
0,0885802523723405
0,0926598783435909
0,0937315838955619
0,089009392570997
0,0977364639760593
0,0892344566791182
0,0972830541793583
0,0907070031369114
0,0964796103878262
0,0920660674102527
0,0965490607545178
0,0916331156914793
0,0962590768332902
0,0949463926073991
0,096492313910075
0,0925531799688736
0,0964434892607126
0,0946680657882645
0,0963659642468077
0,0941143671717217
0,0965577686515181
0,0954114231390298
0,0965739890451224
0,0938575801314169
0,0981843093658995
0,0963340412242919
0,0984593372700575
0,096979169232542
0,0984840194881676
0,0946468919956591
0,0986903454740699
0,0970760015910457
0,0976682423357272
0,0992519608548584
0,102342693159209
0,0992730052175979
0,0988612406201363
0,0987601859531382
0,101857461350801
0,0994934110187415
0,0999945554250732
0,0992641704379938
0,101895129775288
0,0991651523467558
0,102285304718142
0,101021218256411
0,103112749802605
0,0996341532027716
0,102644560205866
0,0996960623470406
0,102441189255262
0,100825783474797
0,104960702382419
0,101972236478669
0,102772494853079
0,104571260615618
0,105041757754799
0,102435471604247
0,10378229529135
0,104251177540211
0,102978554498613
0,103850850552268
0,102458633071802
0,103474415917257
0,103111236294179
0,103787141845467
0,106577259594869
0,106019918664897
0,10496090998075
0,106714725148853
0,105343672685617
0,106291169719041
0,105916650982035
0,105577638320536
0,107106333985034
0,105759024473189
0,106466515885648
0,107362674812062
0,107322756191235
0,109278379423382
0,108458044100637
0,10875109711423
0,110040494663725
0,108345449851774
0,109212913865839
0,111050489103741
0,111131424108162
0,11000198460628
0,1088663588083
0,113407176061647
0,111630251188627
0,109893829239318
0,110123152159561
0,113598754188212
0,113007271829121
0,112199611541162
0,113810944049644
0,110189377463071
0,111591347618093
0,115444241051926
0,110089762883676
0,116039123338151
0,114220821569752
0,115675490683734
0,114280945350421
0,114289295439803
0,114076428483605
0,116444540119817
0,116227966286763
0,117554011082485
0,115484281783734
0,117087621496134
0,115855173218507
0,118027837480918
0,115448044360327
0,116259387796161
0,116014848547722
0,116733796924001
0,11766786425352
0,117224347798159
0,117236972738597
0,117879685927373
0,117909230172161
0,12100885513562
0,118428183114381
0,119696207248926
0,119934884342388
0,119449203252955
0,11764701139283
0,11960929302917
0,119098633032867
0,120621360602907
0,120442098196915
0,121859728418089
0,11953952497761
0,121552890072295
0,120653017331604
0,119086015002021
0,119415399791954
0,12158848232504
0,119641511713541
0,120175939066839
0,121343284123669
0,12510203444461
0,123529552115685
0,121906742293554
0,122014080295482
0,127478498397491
0,122097520976742
0,124472628305279
0,124146425918946
0,123043244648009
0,124257051919946
0,124761032495257
0,123370194440994
0,124364846072893
0,125406835344284
0,123880744728399
0,123002065973802
0,127043503233746
0,124101658236393
0,123555542702556
0,125732241876442
0,126432164787085
0,124565022691825
0,128220148064916
0,125848880189094
0,128135883168292
0,125943981946724
0,129919976993248
0,12538226978627
0,126222769986852
0,123877939886893
0,12785537010373
0,126606933953915
0,125813646277021
0,126912881458315
0,126188567375615
0,124551850371944
0,128620446962548
0,126107862655797
0,127564668103414
0,126018501408445
0,12870651276318
0,12489529957756
0,127095365868935
0,125041986135764
0,127328694352644
0,124924281998578
0,128700896800478
0,127664627344926
0,129767262246364
0,125405536801343
0,12678873878313
0,127356849479143
0,127412790296042
0,127524883885355
0,127771971514823
0,129075120544878
0,129444526490662
0,126746308672879
0,128002304429827
0,125877949296265
0,127912758868209
0,125719515588765
0,129046897417873
0,126309402772341
0,128594862352004
0,125357828302453
0,127150607404319
0,126144062812564
0,128061805651964
0,124611181554092
0,128064101697169
0,126153298301892
0,127701664401034
0,125309103289937
0,127850926849334
0,125281379631441
0,128692981946336
0,126704254320164
0,128462321322278
0,125745053698211
0,12711516909927
0,127363168884936
0,127111775376231
0,124753022107294
0,129493311337382
0,125355895323106
0,12646325136576
0,124699695028908
0,12725584033942
0,125352852014471
0,124053473277866
0,123489952339862
0,125293955259256
0,123040463909405
0,125085563066724
0,12321807673125
0,124423311956327
0,122932460353104
0,124113855429742
0,124694445768326
0,124295629206085
0,122699939164436
0,123534102879349
0,121724695627255
0,125311328166011
0,12176531398132
0,122873300437026
0,121596741273791
0,124702050244563
0,122785837466002
0,121868831421586
0,120171194368039
0,124072188348844
0,120104741442267
0,122142808820806
0,120969284537239
0,1203996232726
0,118181254923426
0,123776252435533
0,120742647000842
0,119431083235121
0,119158692434534
0,121582441662142
0,118138242315141
0,120377955862898
0,117481191725099
0,119400039220235
0,115928901931288
0,117662037673399
0,117974999909255
0,122210730841567
0,117558371604388
0,11657258482027
0,115457636664759
0,117912521876797
0,116670731187535
0,117699467285989
0,115363127034276
0,115300719507557
0,113895279638553
0,116193083327865
0,11531206910841
0,115201935740027
0,114691035372891
0,115538994270561
0,114106905075574
0,115905190809484
0,11466773543991
0,115925897217819
0,111465292628078
0,113275546998913
0,112006356626979
0,114134487941394
0,110255439397407
0,11306293933524
0,111886788378916
0,112556979999509
0,110365914931561
0,110443998711968
0,111583424084634
0,10926792079124
0,10914548314927
0,110848581869706
0,110049497378138
0,106999582858199
0,110259956058428
0,109264538862401
0,105778874860057
0,109930571760428
0,106370038941615
0,109443394168738
0,105334721615262
0,107403622828777
0,10368086658103
0,106706533053424
0,106233274346147
0,105235213151819
0,105727275668977
0,10515296553967
0,102004721851882
0,105878207517792
0,103829219733446
0,105827025837771
0,101218055302282
0,103908061256734
0,102552978914875
0,104277332324382
0,103137308128891
0,102944853718419
0,100605365966735
0,104144228075889
0,100381481297913
0,106095010677131
0,099759389956013
0,101540966429219
0,0999379874813733
0,104249470739161
0,0979209629482433
0,102364411726654
0,0980603532958954
0,100554076713288
0,0988171166677733
0,0991386813084871
0,0965384452945264
0,0983247327959394
0,0973447973584599
0,0987132322217269
0,0947334825198398
0,0968824061870894
0,0965956180683324
0,101247395992957
0,0957111839910878
0,0953729210699971
0,0947027842507578
0,0979337589852841
0,0937944797291764
0,0967031649991574
0,092645340743275
0,0990914148833583
0,094859344719915
0,0959270810229547
0,0928311660261255
0,0940138890794861
0,0925641043716866
0,0930955200768727
0,0916509086928507
0,0942506328129097
0,0906006576173303
0,0909430452795062
0,0916270176678493
0,0932636863695809
0,0890184478539517
0,0938191374484222
0,0894847675735563
0,0890583678439523
0,0903644024203755
0,0920972266874614
0,0881243560844981
0,090998439441983
0,0912187077359291
0,0870322565376715
0,0878077369535865
0,0887144063949187
0,0908546443822116
0,0829658192932584
0,0991461248592863
0,0869816797272071
0,0878816333942497
0,0871129218456671
0,0887523595938664
0,0863376451341083
0,0882431557490619
0,0887691520740663
0,0883678579408758
0,0868194299775034
0,0873216191421185
0,0882230986697593
0,0866935072810272
0,0857790155007779
0,0851420836664343
0,0858804466252095
0,0862236164937077
0,0881306841579716
0,0857889088394888
0,0869821258802095
0,0842490315357777
0,0895350493966733
0,0879715186485942
0,082234716419636
0,0902231759008097
0,078304715798401
0,0891956411007367
0,0930971883066322
0,0796719664883654
0,088568226835177
0,0780268425565636
0,0858500273959596
0,0802592904662961
0,0876188107998988
0,0795799539259274
0,0888394898513701
0,078937862359271
0,0877488482143392
0,0802691164644481
0,0854595513854679
0,080776262916244
0,0825642810943494
0,0801166744917536
0,0842937931417607
0,0820988550961308
0,0855032298070938
0,0827343962789941
0,0833788125126782
0,0798745939264257
0,0833385628402103
0,0760170437614235
0,0860587636644274
0,077926770247299
0,0843247905706812
0,0779615040481345
0,0843039227278058
0,0747080601044079
0,0963258284703695
0,0776022859515942
0,0851037455027995
0,0786943419016532
0,0822429023469895
0,081564185354534
0,0809737247017846
0,0769765981997931
0,0840274730399296
0,0796493220843403
0,0819371781199187
0,0798167113157311
0,0824168703038606
0,0804436424344731
0,0798444922001133
0,080412526858996
0,0821054548607351
0,0807943208774139
0,080104804673171
0,083419703682816
0,0767366558926996
0,0745861777424426
0,0954562697725638
0,0770027522136326
0,0885375779075489
0,0767430368082137
0,0851455962429743
0,0763906436284112
0,0843467495605669
0,0747878714453893
0,0862771461829175
0,0764836770798271
0,0854843811029856
0,0791089543284931
0,0858034178780491
0,0772031574650209
0,08551016869694
0,076792774371732
0,0839738676406941
0,0764076406505351
0,0862897803785883
0,0756414623848246
0,0854045500284994
0,0735958255216217
0,0857684368020002
0,0788610199000717
0,0874612391916988
0,0746646508799887
0,0812658417608368
0,101946670053237
0,0726039052615352
0,0906885514469565
0,0771356877956138
0,0839820227968328
0,0795015336528277
0,0809606316332104
0,0843289593232903
0,0814134925919267
0,0814352883072041
0,0834145853699846
0,0811699182988962
0,0848425612907642
0,0808298683597975
0,0733944168219653
0,0956340701405123
0,0835722188224451
0,0838300486000571
0,0853776256991464
0,0701504173030435
0,0964366207294773
0,0821497480463683
0,0841473841277631
0,0869213852875548
0,0817597468579734
0,0871132279895413
0,0822934149155119
0,0842847159436148
0,0828562593447712
0,090024926226485
0,079309541040532
0,0895246428260341
0,083780674504539
0,0900691845922759
0,0848253059831287
0,0902677796972998
0,0942255441631361
0,085902796218033
0,0844231073289212
0,0920581903780014
0,084775324313724
0,0905554291083039
0,0853418013948099
0,089989542273878
0,086955920081622
0,0989640721812772
0,084401109046123
0,0939148070454891
0,0960311851944946
0,0908192338483793
0,0898354411898258
0,0932092310997588
0,0895631074860466
0,0962933800368652
0,0730794209268722
0,123924867543237
0,0786366440046869
0,110806243177009
0,0868699860546303
0,0979544109628888
0,0862845222530282
0,0992059033431048
0,0853504091846492
0,102503062079316
0,0975428724347849
0,0949666991097325
0,0995274464978585
0,0951563538259915
0,108021641378587
0,0960944524153698
0,103799749696259
0,098120690188609
0,100020115653823
0,0988045246690781
0,112599776396159
0,0863337735285839
0,113528759828498
0,119122272016282
0,103224149137622
0,115867327821986
0,0893231475563604
0,131274624893495
0,110398800780973
0,107345379978224
0,109279547355783
0,104405194282986
0,114501965862689
0,0990995272232036
0,123310013690463
0,11968427175548
0,103894106886076
0,125196669122521
0,10351511043497
0,124394826411538
0,126974259908637
0,119402049332881
0,115501757108974
0,124125521429221
0,114409528854564
0,124809447877285
0,149389611419521
0,109444314665079
0,146961443131794
0,123721185352753
0,141185734195195
0,129112978644384
0,136751216350393
0,130231408978032
0,147377941131746
0,138058911887867
0,137916439721864
0,1296029351943
0,168855444967035
0,136159352578678
0,151717455598354
0,14397735368308
0,138236638654954
0,149358388552724
0,181921831079346
0,166434145412484
0,162721510699653
0,149046812964586
0,169370852242583
0,164367332788895
0,161836024688597
0,167301004645413
0,165633449210982
0,170922044831832
0,169125858323637
0,181270209454072
0,186888695155637
0,176492229855143
0,190351066451635
0,176378428095765
0,196745048219829
0,205088668351406
0,232141581241952
0,192699723519064
0,227061140839521
0,22319678752411
0,211095105032341
0,220715606282464
0,214138385412948
0,22974826122809
0,225453116951776
0,230464992586768
0,228009716456038
0,236622170001574
0,257960768734967
0,230634918831338
0,275236838782295
0,244362179538104
0,270922315728807
0,220289468545532
0,346596980687168
0,303026587651
0,272011223141184
0,300890001891611
0,242915631341384
0,365561987111552
0,306829157358302
0,309316550243569
0,311300291587533
0,321623391694811
0,320436323529011
0,33631872601986
0,334017963119914
0,346104264935405
0,350962155406746
0,350612219702665
0,33724801701643
0,422893850072638
0,377895937399613
0,406922133123218
0,375855185275642
0,399178768754044
0,407310191256489
0,410626164372821
0,406464861831811
0,426617745391044
0,382945669405264
0,492024927659558
0,426158450931873
0,451355508777602
0,435731529119203
0,485352210311975
0,450386567637723
0,468277755732873
0,510628103645489
0,480425438341164
0,508022885049472
0,492874092012393
0,51683428080213
0,496737051238399
0,538333619188814
0,53764040320368
0,523960451990761
0,546120987845405
0,540471066327835
0,554713755888741
0,555120487815165
0,580316692979753
0,567876666567956
0,601567293702042
0,577621051629321
0,658346625554498
0,639211554247337
0,592092003725432
0,619116768733119
0,587557706313179
0,634484268169469
0,631883025346937
0,611734832477826
0,659113651774492
0,621923752801374
0,651804970203207
0,628198001219979
0,649181186915417
0,642815799022693
0,651433103076792
0,647360093354043
0,653573592344496
0,656212742992479
0,617822406626853
0,733163165669483
0,656052882252995
0,657976280110947
0,642576720180095
0,645283672960313
0,63398027599947
0,646882306946265
0,618292937000322
0,652085749538474
0,62612570433689
0,633644881587978
0,617465432331755
0,625197083153805
0,639881505624752
0,595791071334404
0,593726326217188
0,587177326885266
0,5875318423175
0,580728860120928
0,539030850906579
0,607460166301456
0,556382649969202
0,548594910338158
0,541823586075962
0,533442383155388
0,531872688696598
0,519587032344965
0,51344919381494
0,511060535565537
0,49803770186807
0,495403934264536
0,488898444129549
0,476037211968029
0,468867120186283
0,464703648734132
0,464731388187251
0,449632950427414
0,444785043454026
0,432447014776501
0,434012481144058
0,423832307761827
0,420690739957015
0,417268280378832
0,418298439804678
0,412786310529274
0,400111079131105
0,392139332762347
0,391622646857088
0,385740588903142
0,386703360694864
0,376349745932316
0,378740807177902
0,366640477632214
0,370694976699868
0,361540363411985
0,360342381848937
0,349049903327787
0,354376004006618
0,344821689962123
0,35127166421737
0,335099477061602
0,342522107302683
0,320905537464015
0,334632129136134
0,363955520982918
0,315804724186296
0,336131015837116
0,313606085788994
0,328330311807064
0,300533523310415
0,324335694318481
0,334443063348297
0,304849163111907
0,314983913645953
0,304373114212059
0,298653684207104
0,313782433406298
0,292443040269605
0,301487604008742
0,291156348422529
0,271185480721714
0,360234942558376
0,259929549792436
0,354341986214022
0,289785187497127
0,29684885622352
0,256777879102833
0,322423642417419
0,278829467652806
0,284704674413492
0,278533194588869
0,287973812742075
0,292915644726597
0,268081526680801
0,276325932379426
0,269671266149822
0,271348091387921
0,289646452958263
0,268916452847104
0,249789433498034
0,298731914430199
0,265193483328087
0,277055170015243
0,294224371525948
0,285336129638592
0,264997353815779
0,257377530833913
0,268161146920139
0,24059006680702
0,284895263062382
0,262412117972033
0,252330325626493
0,26322541085078
0,241592989870947
0,259402175077912
0,246864415478314
0,267567547003048
0,237422764938392
0,274885372812171
0,246590391564624
0,240178876165232
0,260910436259807
0,247595656601336
0,276601803064667
0,241934519200192
0,245009867416577
0,226775494262727
0,27433094299214
0,234405265289508
0,249352329663893
0,240198327953921
0,231075139788834
0,253389951461685
0,241896111853611
0,229374300491133
0,25031773337354
0,221737484901197
0,253563464489081
0,244825841343385
0,258553057611785
0,242730990268091
0,225791242734773
0,230927145683925
0,228592095603372
0,23023132763414
0,226412635769156
0,211584866300312
0,249747234720665
0,203027991536159
0,259509395791327
0,230516376518859
0,221643333640701
0,223773558842053
0,221359044712936
0,218262764677884
0,234701524440361
0,231440449054426
0,241657703267124
0,21619324027167
0,244071094601253
0,213375028752262
0,228113005222744
0,214806216702212
0,227260127669276
0,213492694525039
0,225781550852683
0,219589258124328
0,223569789127783
0,212541255579461
0,230432063703615
0,207542768279903
0,252980282746797
0,210436076694363
0,225841736850244
0,231473093320791
0,234064110154026
0,240546901703013
0,215839943199683
0,226507929243377
0,217478348081622
0,217576937258643
0,229284461075583
0,205728659908412
0,245803063880148
0,221655584741175
0,224787439968065
0,220421537038898
0,226291288582431
0,221893564999343
0,22521500858797
0,240331113808792
0,214303530963724
0,268414252539516
0,217757453515226
0,235398377728697
0,2192542210809
0,224802005470644
0,22777598000855
0,21540356247861
0,227849428242354
0,216074019936863
0,232123483384515
0,226926532771293
0,217264841487546
0,22495777645574
0,218009741146811
0,221317384401309
0,220766709911051
0,218575376895181
0,224138170534137
0,217050003943386
0,228590959765873
0,201166874468922
0,245111831610463
0,237965768202113
0,21679823189528
0,229695588119215
0,212739671389098
0,230124609116259
0,215365313814228
0,22145837925232
0,226993589463958
0,217496412125871
0,225259815390523
0,223308204918014
0,226664241755371
0,222170722195351
0,23380703087366
0,224797593952994
0,217272374115182
0,229174658833544
0,191475023272691
0,265207035660023
0,216801792673694
0,234503595463147
0,219345138823653
0,222618062311622
0,219494164273263
0,222552992360512
0,220529244701049
0,224441044169889
0,220485627621754
0,221488914788977
0,221058452425483
0,217626507318502
0,224168994512025
0,21815231559109
0,229541070652348
0,225540580953562
0,215934071695776
0,223880959193887
0,221342622899368
0,221917020652366
0,222000151713718
0,235407776796905
0,216091951885897
0,228296515774263
0,217988315391085
0,224001990458169
0,227108984496372
0,219788950153257
0,218329852767686
0,219923996110707
0,217061625975541
0,22898294495414
0,209602259318649
0,233440671821291
0,218581007166834
0,22220487256312
0,217994595115303
0,222149246694494
0,217702114587797
0,219385948729534
0,216728402565171
0,221924562049508
0,219421116435989
0,219497918081687
0,219065971329039
0,217616520726203
0,224780294305323
0,221945129716132
0,226768585963565
0,223273874964742
0,216237588488876
0,223529112738227
0,216325847034893
0,225004343456227
0,217795346285574
0,221026298560327
0,214401348074385
0,22419250952766
0,20862072901214
0,225055225340438
0,223298906784399
0,215138759086869
0,222756607841659
0,209823026391666
0,218549962154644
0,210941861476434
0,21685918381062
0,211029174984121
0,216846123469967
0,21274633489336
0,213817839884473
0,212954637643951
0,215770847671353
0,213408500293303
0,211864424274766
0,212750389305534
0,212326553033006
0,21303308210481
0,213537409957541
0,211037498224888
0,211356172120537
0,210362850471004
0,212219351652076
0,213657274050225
0,221973699412593
0,215842216157922
0,216387701256249
0,206392492066995
0,219453549738601
0,20951352046814
0,213830330197222
0,210950855388364
0,212083938462589
0,209636107258699
0,211610647340338
0,213176732063722
0,21002766025554
0,208850529286321
0,211912219433755
0,210312734754641
0,210899943456555
0,209919648270448
0,211265472270003
0,211056582240275
0,210208960232501
0,212621065904619
0,210182207002887
0,213473413922487
0,208728688718725
0,21437892550134
0,211246152162252
0,211772636232884
0,20934007612726
0,211442289482122
0,212289938132039
0,210307992928329
0,212626226572121
0,211842918223692
0,20968955793055
0,208114717712995
0,208790997591576
0,207681548017924
0,207732354731279
0,210641708980423
0,210579919871165
0,206357055352921
0,207393451357931
0,208464485750572
0,207480486581845
0,205985555406181
0,206784622953755
0,209285922703388
0,208814834117255
0,209183749449769
0,208185146608207
0,207593858486284
0,205686722440827
0,204840098809304
0,205420564788644
0,206142798026978
0,204540983519352
0,206656297228503
0,206592007988345
0,202913425534661
0,203721662432925
0,206524707607361
0,204657928315889
0,205813429768574
0,206092735079472
0,205430742770299
0,205519067442148
0,205733892742848
0,206840805117799
0,205199208506143
0,203348207201559
0,206394916131863
0,208484917409101
0,206094955158393
0,205106958216431
0,205839200724414
0,206406427474621
0,208455105715688
0,206833878438675
0,20731054092905
0,208283127174682
0,205847702542055
0,207551071519747
0,206837273160708
0,208570138669216
0,206938035201742
0,206448825472017
0,205784033375124
0,205707553297561
0,205786512609585
0,206381577034411
0,208021399546345
0,207941432863061
0,206563575948725
0,20695451392657
0,205569430104649
0,204971235830719
0,20619277385919
0,206270824364909
0,20793460618441
0,205785319430912
0,206226770935485
0,20700363964039
0,20623338421074
0,204340745422728
0,204434904325422
0,204240086938713
0,205915853949001
0,205392528215224
0,204657032035671
0,203718334706861
0,203896437034617
0,204418912443671
0,203893400133913
0,205849115785647
0,205007775062935
0,204813254965949
0,204710315088369
0,204720675586338
0,203762343942481
0,204585774985075
0,204934186609657
0,204549789741706
0,20316137035033
0,202115580812764
0,204222318618962
0,203119676808702
0,202110581246098
0,201851669526565
0,201674552683993
0,2013402870111
0,201614270041372
0,202026101748877
0,199218467794462
0,201081124973184
0,201453231907083
0,200467499046547
0,198385813003994
0,199335425108268
0,201913331318204
0,199804075639484
0,199585495387705
0,199131507025331
0,199711807033965
0,201768017631893
0,199484808329851
0,19948339539037
0,199056308649309
0,198610866641589
0,19923327032973
0,199499741698562
0,197943113574005
0,198745654350835
0,198387338363459
0,197590847085854
0,196563719490847
0,196759562219207
0,197830358944739
0,198194152459957
0,196950958100393
0,196213842429595
0,195864199741499
0,196282639477395
0,197301831714274
0,195108111490062
0,197042348118945
0,196063057143244
0,198520428443719
0,196132291100012
0,195723209949358
0,198992237140459
0,198293818660206
0,198225354238898
0,199043059420953
0,199919755989632
0,200910906687502
0,201428453916869
0,202140777956249
0,203227027689705
0,203899169190041
0,20588718502481
0,207126509074893
0,206504805166813
0,20964026013081
0,21184334449647
0,209911482532853
0,210705467882013
0,215211526681556
0,214616498872174
0,217390716330797
0,218153162937048
0,216650132767832
0,219959357782001
0,217853561306949
0,218439825342365
0,220487949651709
0,221018255470692
0,221642067267554
0,223315310662856
0,221443705945233
0,220251084674463
0,222094906487446
0,222294236557454
0,220379121952989
0,220571310849967
0,22090997689739
0,219207678505879
0,220495897518048
0,220096100919767
0,219537433636486
0,220206808926225
0,219397262496348
0,219193939091237
0,21906245116829
0,218458837119478
0,219648660474386
0,219151661912469
0,21862008683269
0,219835731790675
0,22093688375386
0,220720416415118
0,22326841040536
0,221202042392383
0,222727654913254
0,224907351560905
0,224736590991436
0,223984006853161
0,2257860793134
0,22665312768533
0,227992404759284
0,229622113285465
0,231084908584467
0,232058760862201
0,233068827051347
0,233410758112687
0,235726078518496
0,236631295290189
0,237123109078721
0,235746463624175
0,235378243208889
0,235437481544611
0,235251795890248
0,234733951682126
0,234574213320444
0,236429063556639
0,234519265541355
0,232172733284614
0,232246463980269
0,231580278496736
0,231401423557328
0,232710657789929
0,232503123898187
0,23299256738585
0,237402768786234
0,237072558219709
0,236877359359013
0,240629122887468
0,241432423398418
0,243508631863375
0,244641591252248
0,242649482705778
0,244239528371629
0,245407178661793
0,247823477533488
0,2503986223411
0,250908100923866
0,253802423362382
0,254793696114444
0,254271412839146
0,256900329239667
0,260836723752641
0,258222519043196
0,261250072337066
0,264418891371239
0,264746972407027
0,270187216054326
0,271909747007817
0,270611770683632
0,274111160337339
0,275679889513366
0,275858450711237
0,278560882204729
0,280508258651261
0,279943993715287
0,280948343041114
0,281033332983428
0,281253373888508
0,28126121987919
0,281917074319526
0,281586358060714
0,276945819935755
0,275259693825951
0,273429391364617
0,270791429382183
0,270417084173237
0,26774940532163
0,265995124585359
0,268026503246759
0,267301268561976
0,265212530533607
0,266156761784828
0,267049140233825
0,264625723906847
0,265980641905365
0,269141997106321
0,266374112151534
0,270204192234614
0,268061833034136
0,268612583630135
0,269598251841464
0,271356652023337
0,270883760976575
0,274360429211027
0,274920017185159
0,27372875818249
0,274050300238716
0,275415632626143
0,275143590788616
0,276938417252121
0,278271337819501
0,279826706926726
0,276830168687158
0,277785865423327
0,281002165770019
0,277545767304436
0,278890354694789
0,278713067975773
0,27629164426139
0,276039871820446
0,275082831836787
0,2771759873587
0,276585787935633
0,277474254277335
0,276504885651805
0,271588380614514
0,272626559283935
0,272756410338241
0,269096543632572
0,27095901224386
0,270817348475891
0,269225975792408
0,265587238447826
0,266877273211376
0,266953752003485
0,265315627073961
0,26327464582155
0,26291727734114
0,258613872988321
0,254840791830654
0,253706157026191
0,251918500269474
0,251407575674233
0,24801259722499
0,245065863722929
0,243182124300422
0,244319524430356
0,24647920383892
0,24258226114982
0,241863187162003
0,242444313295181
0,240806383628637
0,239264863372765
0,239959407946232
0,242662565742728
0,242615888613649
0,245546837104924
0,246713558943629
0,247220524297803
0,245366378379613
0,243727916178537
0,245145490910968
0,246708893640172
0,245267306449439
0,245982350790691
0,245474671917063
0,246620313996706
0,247285023485012
0,2466376546554
0,244449926859761
0,243815707260513
0,246181950382824
0,242875534202804
0,24208294101224
0,243311434223109
0,242976985377663
0,242473670610017
0,244434060912795
0,244850932685715
0,244908578648519
0,242229760276023
0,243689905342833
0,243105192543908
0,243526874282265
0,24271768422343
0,242400241811947
0,245564983302389
0,24502211495365
0,244608348915716
0,246132962037192
0,245918774522947
0,249842367389517
0,24630022352932
0,244823700132729
0,249040728389932
0,252218667235171
0,25054293119364
0,252408643580312
0,25135016773241
0,254828504826317
0,255887191443599
0,257499365691321
0,259922643661344
0,260397868046146
0,259654604548605
0,25687816437412
0,255909176392996
0,263699445697681
0,264402728977878
0,266800870272323
0,265732429063259
0,27135659609686
0,268811726041234
0,26907912740881
0,272260118370943
0,272852288821456
0,273001046002674
0,272734937521721
0,275635470920764
0,274271921821601
0,275813343685417
0,277848639815524
0,28072850581937
0,282510584283462
0,285820475932505
0,289518974169875
0,289948919634738
0,287876543986425
0,290242821290881
0,290721337511993
0,291066997031867
0,294049266329229
0,297413587715481
0,296891563816877
0,299648317239267
0,301555239239161
0,305178125281208
0,301201013608609
0,305335192993443
0,312804123114628
0,310543296600061
0,311825700395051
0,317766515950583
0,321189790830207
0,32289005178811
0,319640425942095
0,323635567805057
0,327151993746402
0,328394886754392
0,333911403048104
0,333284377630272
0,326274082254633
0,338168932496388
0,341245030622709
0,340036244581394
0,34189976000841
0,345498761480477
0,352213621668892
0,355754379591492
0,354715289165535
0,354590168241007
0,35498849293445
0,356786964551937
0,367011289490109
0,36308873321779
0,369127074594471
0,365962075139493
0,373939119443653
0,383502832649204
0,376840843454645
0,386667733503498
0,390351843382212
0,388911754563838
0,388649694746125
0,389189751835183
0,393963247653947
0,392400749552097
0,400875401858501
0,401107971943904
0,40952632760803
0,40726881897973
0,40626153900622
0,411843382741792
0,420612042984385
0,421212373580129
0,425491833425197
0,428754812405322
0,425404317097445
0,432806479982949
0,43445682959925
0,432999176866148
0,440468710356083
0,439628526009562
0,44555125222652
0,446754641874368
0,447882029998656
0,454872948068581
0,46872964474602
0,455204640864437
0,457520253229612
0,465574804269693
0,467739300190781
0,467649111088117
0,484199672586131
0,485298283948944
0,488363704435556
0,48565736518318
0,484271135594437
0,486870870475662
0,502968683079345
0,487997759702802
0,506325872468529
0,502517931212752
0,51252547148166
0,504781475320959
0,511210879069182
0,518759120882612
0,516624356918442
0,521877620493899
0,519100915332585
0,522675290221656
0,533595514278549
0,5366695308373
0,544394912744052
0,53975749804238
0,560512258516924
0,558392425721114
0,546749559721907
0,555106714892688
0,567607948538104
0,579715808722382
0,572218381662887
0,568738776587437
0,586789169629774
0,572738151549581
0,584585535023737
0,585257718658184
0,588356485415426
0,579094676050899
0,609786910150794
0,60109822852548
0,608799503787364
0,613991416730243
0,609601524490603
0,606346109107049
0,616369346864093
0,61288627547142
0,621709949717204
0,622191542240751
0,606505261030487
0,612394038156422
0,654529543041595
0,63488028241581
0,642267373536803
0,652151133408859
0,664935640263352
0,684755027189263
0,66827624726982
0,661923702149227
0,678678074133657
0,675899102105452
0,705374623919365
0,689166472976007
0,690843884566327
0,676010601018774
0,673270369783867
0,688355434700237
0,707036395831305
0,697900906707524
0,722968014585297
0,724090836958646
0,73277743637432
0,708517101790681
0,755398041856023
0,721885867732054
0,725869881655628
0,732313355102585
0,746008063186203
0,720758240872046
0,758022993204931
0,750710131623964
0,754699319864403
0,725945464419136
0,741669148845334
0,788911070257083
0,823264377540943
0,778687960067775
0,786256861716637
0,748236918146189
0,767513679481659
0,819016125394628
0,843075122244048
0,765211425596085
0,765756318502813
0,780593571418306
0,801965091761245
0,8051002586297
0,833515252014391
0,828608810101329
0,809958149511786
0,826289915734614
0,87357145772436
0,831603871821656
0,850989566302321
0,861969755748974
0,875742376126118
0,848229960016543
0,931059596530784
0,817302683883159
0,92119369980748
0,858271742842451
0,880360044772893
0,888134352288563
0,909466659956789
0,878696893642035
0,846955190703894
0,874917183933327
0,875493106124956
0,850890237579135
0,923817832088312
0,938955000949502
0,9849370741271
0,903294873432844
0,913731890271062
0,897307163536325
1,02656192259253
0,913633070564269
0,930878566977603
0,904256723123855
0,957806944858192
0,911365412802069
0,961085643403892
1,00426353311147
1,04758634535515
0,94901393205573
0,859826650315634
0,915748631998455
0,959628106323185
0,971637302393357
1,01847458364807
0,978316492171251
1,08262466503133
0,89339703981655
1,10578549009689
0,996843760481438
1,12644816153192
0,946548467058555
1,02070255917803
0,963826615549317
0,945399100706949
0,901849068533449
1,06543079357075
1,02149943215891
1,15722502954678
0,975789135487139
1,05729371044105
0,974655631173036
1,25788203191505
1,24475060717044
1,02581784447189
1,07914674885785
1,0674674058517
1,10687187132022
1,2336580277928
0,996124787921346
1,08465129050417
1,11240780369724
1,21727329624994
1,00196761482618
0,999562228821702
0,975116528218033
1,22734268733567
1,12340970239917
1,3003797181639
0,951364646588422
1,16985927627161
1,11365209556117
1,34986608862489
1,03038503303685
1,29446092197242
1,16237936518589
1,37665279115487
1,06261850106588
1,14501515370002
1,28223826376083
1,74810076784615
0,913254474925492
0,99981979842921
1,09772697677008
1,07425898797697
0,838742790671806
1,30473509528122
1,12428990771406
1,45455670556176
1,2100724877898
1,81621521957571
1,16265586090775
1,58062278891945
1,31829817905976
1,53280445626225
1,17314135743558
5
0,978907462321339
1,01160139024982
1,25137176691411
1,21684698383488
1,09330980885331
5
1,04615861361381
1,15876113851785
0,93113907638533
5
0,435616519728874
5
1,10044237766295
0,888970325422063
1,86078188769206
5
2,28079705305609
1,42872836869389
0,807920388087146
5
1,24693655049045
1,25337536635714
1,63163587963894
5
1,00542940064354
0,769740700498961
1,49440811118145
1,03079208056283
5
0,62657291971362
