3596
4000,36533379555
650,420452594757
1
2
2
0,0594754331087787
0,0619339305554533
0,0615245168042328
0,0431684654242208
0,0625875671737142
0,0528861358459105
0,0608792533187607
0,0464981137528085
0,056062047248041
0,0541693018507347
0,0611933727954072
0,0542962445017932
0,0560008456288761
0,0405672834534257
0,058432986307801
0,0500636397722547
0,0567807229630472
0,0515127323224542
0,0656264502532608
0,0498303808351934
0,0556489549286506
0,0479113549638539
0,0549364201424147
0,0431730568459362
0,056473167991335
0,0486527326865601
0,0568461898030709
0,0473747688188345
0,0564516462030241
0,0503020190695657
0,0574967403195244
0,0453620932885826
0,067873919924236
0,0502530552099321
0,0637920301609389
0,0496928543313453
0,0575186439597176
0,0524232247037073
0,0582293901369463
0,0491764867210514
0,0658101593105295
0,0483634897229454
0,0618324188689199
0,0502695094390654
0,0584741374555307
0,0525995150840787
0,0621145879881888
0,0530536486666889
0,0578814306878154
0,0455145936595474
0,0624655379550099
0,0465515636762015
0,0638642515690663
0,0517409552229462
0,0594230488942227
0,0553417557257011
0,067240159202657
0,0537500342400246
0,0672207187484251
0,0502088581732347
0,0695061776487081
0,0608386237096724
0,0621271129219396
0,0461836373753046
0,0562777722666232
0,0556189965144902
0,0587853709703354
0,0511606094586099
0,0546579506986809
0,0551255857001065
0,0522634721466593
0,0561775617305283
0,0666930619164252
0,0471033562150756
0,0589047586632549
0,0519214198437593
0,0638449461064203
0,0512350616089685
0,05224100938562
0,0566033966459301
0,0659038111212441
0,0548316935808069
0,0605864225432926
0,0466018181114419
0,0638462677981522
0,0653311502993065
0,0553673583519695
0,043807535897244
0,07283584341816
0,0542983163840821
0,0565411187135497
0,042643359575965
0,0590307457641914
0,0487645232483421
0,0561824641165574
0,0496232234290661
0,064708116789003
0,0505799397445329
0,0479445832253213
0,0482713915359716
0,0545965382107937
0,0493438381827696
0,0896891838204962
0,0345250442194902
0,100766248011533
0,0610798580611661
0,0561213793532844
0,0773255763886244
0,0682730779414763
0,0555136288679097
0,0541099326662607
0,0500703322280959
0,0600218873662333
0,0554613367182862
0,0388981817200048
0,0549396078977667
0,0798708562641977
0,0537784763224053
0,0563807767605989
0,049852211473895
0,0397024702755075
0,0529387622434727
0,0887573502259614
0,0500138850305077
0,0629642576385877
0,0540603905365732
0,05791752961056
0,058838905834282
0,0774175632330358
0,0524843172033298
0,0632589441763324
0,049905530167975
0,0463833240207299
0,0430821020521896
0,080774776800514
0,0542773195265483
0,0559759264012656
0,0335645256542324
0,0678787180746809
0,0847568009375636
0,0755343206957432
0,0561012351578373
0,0500509930234943
0,0332760264796812
0,0839741300023382
0,0546363406845558
0,0497960557896418
0,0617375520198605
0,0702109451743733
0,0534000649283076
0,057115807127512
0,042166232909681
0,0672661226764452
0,0555504807777143
0,0220295851002239
0,0646876725292236
0,104438691274561
0,0539723761006812
0,0998704161345679
0,0547247928352625
0,0663017400930453
0,0475527993249702
0,0588900649128429
0,0458263719845626
0,0662518144576698
0,0366516478118249
0,0553376227495581
0,0701205343694715
0,0521402148965155
0,0458775727720959
0,0781630971074029
0,0529507672802826
0,0416592840248971
0,0897502768176305
0,070607993786711
0,0386602483108609
0,0775052398937433
0,0665689263811267
0,0448434045193541
0,0447018961620976
0,0782419807635233
0,0560305231511869
0,0637260810608816
0,0435874126836712
0,0549859878593895
0,0665156741034082
0,0640858251822186
0,0560996643949375
0,0657659585452546
0,030728516635625
0,0531819500935129
0,0718856838220376
0,0789414811877537
0,0525233495260129
0,0616234165708702
0,0204462253405192
0,0772709159401886
0,084332546410358
0,0585307713147652
0,0477068610165992
0,0577572218901181
0,0532516559430894
0,0558921961743558
0,0540603079292848
0,0572274545397457
0,0341520189146091
0,0980707581514141
0,0749928371352039
0,0640424109213547
0,0548420873016394
0,0604618270412651
0,0345314958396022
0,0975478275543635
0,071062629431143
0,0605573880660637
0,0557132248459617
0,0443221862876734
0,055667525763038
0,075693072148188
0,0511204560166687
0,0645001875953754
0,0595554788624328
0,0612928020759294
0,0526448182284272
0,0609951693281699
0,0523091544157981
0,0582138046924621
0,0566245928384394
0,0634270388010575
0,0559127837767133
0,0651814024946752
0,0547083491843735
0,0614646250013647
0,0567626462732665
0,0528374717295682
0,0574054934117292
0,0834791644355548
0,0603293101794483
0,0686635050565313
0,0520202951983891
0,0622293990382699
0,0504119243130727
0,0575164175933329
0,0617638350469894
0,0635752507080721
0,0417368863120728
0,0903347163708728
0,0616251842854689
0,064996760304462
0,0444053291514357
0,0711696268446218
0,0625629691338837
0,0672414025652863
0,0556508300670154
0,0642529086533249
0,0492346228597333
0,0535249164579699
0,0807207503023642
0,0720572295424737
0,0504754867714363
0,0839135662943748
0,0686094810564319
0,0651710772445353
0,0464885866093752
0,0374673825471751
0,103301055995668
0,0673585720343335
0,0407560590279672
0,125586419104253
0,0734011907950917
0,0833299167101823
0,0533541644423949
0,0326509078976057
0,131761992397077
0,111838210186063
0,0703522382140523
0,0724213874614292
0,0732391769737584
0,0711830169363601
0,0632551777128269
0,065949931197636
0,063140864139782
0,0761768776397424
0,0859725749407804
0,12357349934521
0,0505377759577033
0,0923666158589848
0,0923385707305029
0,0759785928807253
0,0672481657436948
0,0676509862540309
0,063567248792126
0,0810277682980004
0,0742039023469668
0,0828277874607366
0,0754555583205086
0,0682367680428496
0,0882734677492992
0,0878183006214335
0,0709182787587681
0,0812651685321168
0,0889005738873831
0,0803673031357057
0,0747215503696396
0,0769196250224517
0,083033261390127
0,0795278175971517
0,0648630265109581
0,117248961496548
0,0874588558348773
0,0797113958017076
0,105762880805501
0,105215492383588
0,0887639244235454
0,0939489330244773
0,091324995442182
0,0938647736789176
0,0814373398814352
0,0870099745580587
0,117222926682283
0,112131368283299
0,0933131513598423
0,100158666185975
0,0933543283341497
0,0985255662031826
0,0957515086162241
0,103620508932707
0,105245838206781
0,114802065409359
0,0955568591975704
0,135521416010303
0,138642694483422
0,0937995168691089
0,121062526076158
0,149938860758344
0,121362727480913
0,128577381433925
0,125453390503494
0,137341141970734
0,135423811866983
0,144437463661438
0,126659077631526
0,137390844567305
0,153346636507442
0,159268226155985
0,139490224371213
0,155357058631045
0,178952499999456
0,217391687425166
0,171756981809719
0,17024289118699
0,147503915946818
0,19443663004668
0,189269681972537
0,190624544315576
0,202995124253683
0,195440513258507
0,197950292513569
0,197508473717596
0,196155948891377
0,19524730748567
0,201520711469069
0,216553440404536
0,216512432309868
0,222222174861142
0,22579399566724
0,224746254844246
0,229727979980137
0,273091296449418
0,245831920000594
0,252677023740428
0,245322571450408
0,240786725622429
0,259245205851412
0,275600380172996
0,290811557652883
0,296012775919162
0,277491743715828
0,313888185923555
0,278961333425273
0,288720607336921
0,277542339179302
0,289498082326542
0,291939485263424
0,315256380634958
0,298333313339221
0,299075279217104
0,305035109696785
0,328733055734253
0,3154463459594
0,316164961983672
0,299142545458886
0,34663941495396
0,334439641014096
0,34559347161732
0,32170391058239
0,353101114948173
0,364930074924025
0,403309605485837
0,352818211501767
0,354113138087638
0,356842997870791
0,359640143172692
0,362644172111643
0,363932747819182
0,365557060275758
0,37334959433534
0,378871544594921
0,395997976385346
0,402904449398702
0,405469259278585
0,370895781865338
0,422091309910926
0,398605139447513
0,394412131680467
0,428038811150297
0,423668509133926
0,385253568813237
0,439190454894346
0,444802394085632
0,422953837860721
0,433568246382354
0,433284543970797
0,416615929274551
0,442235968854006
0,432293801197285
0,443143052537321
0,445859252364718
0,449112462658593
0,445678824205803
0,462832175589294
0,445749693224187
0,469077178475384
0,461405510421467
0,476297529623098
0,47317871753147
0,494585287032956
0,486162558791079
0,484955909538842
0,469182411504165
0,52776103814814
0,515913696697157
0,514193366207402
0,513205743235328
0,510471471658152
0,494168100958119
0,498703941167202
0,483893398572511
0,501903924250122
0,500232353549097
0,520729555807186
0,514851938759119
0,53889150802883
0,539946100758619
0,549167449517163
0,529647158887369
0,545769468001882
0,522643969678329
0,549860055110302
0,548022545556522
0,560615149853622
0,553517217097687
0,599213439067093
0,580644049971077
0,610674284921299
0,582859601768027
0,576774884430381
0,563810597543086
0,573062302434867
0,580104213646189
0,596769561787559
0,602751747000502
0,623616542952637
0,594433491975126
0,611547194622264
0,583057988791852
0,607550402098469
0,613853793298932
0,608901954167676
0,611214231673236
0,655714105076191
0,623917259623251
0,658142691809926
0,6584783608005
0,672130248394552
0,643535416906328
0,655927658363187
0,6318423577603
0,670770850582892
0,647140784711606
0,659351394987113
0,676511471776567
0,71355622513218
0,682148955148159
0,681964426544848
0,668158210634909
0,730017722941449
0,69515015903827
0,711088571883286
0,699723482407842
0,707247143005615
0,707454656226399
0,741092433767223
0,661581308076299
0,698993601853035
0,695494987949033
0,718040754265635
0,732235418539619
0,736391450953489
0,717963073586208
0,73944177238056
0,742213391728122
0,744446710446385
0,731877636194365
0,777156475639729
0,772456883360939
0,770515331494139
0,766388522634994
0,816877528778455
0,812361847218877
0,792454261012996
0,751243002215526
0,803851989538568
0,779766217112825
0,836741911069639
0,81731939654227
0,823903409243855
0,811032598389947
0,823748134936245
0,791858883476188
0,8365135723191
0,788239999603726
0,809611083445371
0,82662100318543
0,89868426903852
0,853143039246716
0,872109812428293
0,834970411244757
0,881127368100853
0,833377783465121
0,867482526271713
0,877235174110179
0,890447344108263
0,863505255393822
0,915888273887906
0,898487818611398
0,919027926837993
0,9337645701304
0,936421409094518
0,883442838880058
0,927624294796379
0,887673604011265
0,901825677262009
0,878606210992441
0,945580265578362
0,947765477686522
0,959255921048315
0,931148078162834
0,961417801468647
0,973466105915396
0,973619151789423
0,955333272032129
0,961378539422818
0,934682094281601
0,946244597975395
0,912640112736338
0,92784949870877
0,956078689686179
0,977161478958742
0,933736459186794
0,993051196715411
0,963519840429721
1,04668524065671
1,03659498808622
1,03196716292048
1,00220981572524
1,03151952240495
0,986718311419175
0,998935495750407
1,03160122613455
1,0832088153837
1,04423683569
1,12021089271774
1,08776209024359
1,07417661512179
1,03295473572464
1,09968150821612
1,05525956479193
1,08388845308937
1,07711686213899
1,08781785894838
1,04202410966745
1,11027472753382
1,10118678209476
1,06780389786265
1,02471859694538
1,12563290631132
1,10805483924528
1,14518010081526
1,08032977366545
1,09118626114858
1,15129555562896
1,16613439098324
1,12158738282026
1,10046177577116
1,14279554200196
1,22035739743363
1,14931157550672
1,21805452604083
1,2050824372004
1,13765413974543
1,14619145928366
1,22535807785562
1,13933254092008
1,20599646048043
1,20136449943757
1,21392606175397
1,17734505774523
1,24305642200092
1,18918646379714
1,23789960558839
1,13602273794752
1,20890561357255
1,24495621527316
1,17991740061505
1,28677977463088
1,31211946765588
1,15784175583971
1,24391771959469
1,23095339670924
1,26921816521669
1,29008801076766
1,24738113300594
1,24571946879095
1,27303631404378
1,25741471434665
1,32681548791494
1,21908583849794
1,2669997336068
1,24783344391517
1,24692136629701
1,23619426342588
1,26325709143292
1,19852601160172
1,39039164683955
1,28595674924802
1,23741685575415
1,39082091629722
1,38279341189101
1,2534940778583
1,26421713750759
1,32542418200005
1,28769926977708
1,31485994124591
1,33363272577009
1,32916948399687
1,46304624458359
1,33015284125191
1,40851145979796
1,3515795985077
1,34611395247027
1,36947219944633
1,485435976933
1,49885501187934
1,50580078274825
1,36783872619479
1,35521160154805
1,32926519939084
1,30920705550846
1,42213441105712
1,3908348882813
1,32595254771717
1,36290149656658
1,36101769692115
1,44559592097675
1,32122555134647
1,30814863259331
1,29765482855284
1,31477451295792
1,35520754700249
1,44309608492605
1,37367872776782
1,47071621996923
1,51008121920837
1,43056880674519
1,41722258761344
1,45340602490964
1,36850249798241
1,44754503437738
1,39828056275701
1,40830632852977
1,43678079374355
1,42546193587512
1,32727125314346
1,42210183256608
1,46543397016153
1,41702456504533
1,35324154733497
1,35306050925777
1,3757062568234
1,42567130251534
1,50884292945251
1,3946644092268
1,28392692679277
1,45764854360277
1,49215334487773
1,42273561960245
1,43743860550868
1,480301712779
1,38032135607575
1,43842395417314
1,3678561177758
1,3317061962011
1,45357698942791
1,4783526938653
1,35743252437849
1,31288353211734
1,28943461310501
1,37898725094794
1,36348568859581
1,47304668627551
1,45937679903163
1,38233549958381
1,3803703387583
1,40683914874293
1,39434616946911
1,46290805981112
1,51253681888163
1,3924100068299
1,40279558928968
1,38334298438616
1,45907797573564
1,5479274869664
1,40756327213241
1,41947497993249
1,37270938264139
1,41521283469505
1,43133954675897
1,42321007450003
1,41140295594731
1,42941949880661
1,40513212739843
1,3361840910422
1,37953653310886
1,37029383557137
1,38978979440153
1,48024272609162
1,45501297330796
1,4183315304421
1,37213693371281
1,39380084381789
1,43551059438401
1,38129123472851
1,35259438773593
1,43748462878473
1,45883029995753
1,5267906074921
1,41751044724639
1,37894862033545
1,38046819694635
1,5213492524691
1,44687626026796
1,36268285411328
1,3563898301397
1,34491893404377
1,39337493438907
1,44784367988036
1,48733715715739
1,33001356638876
1,36481485667806
1,3304364880973
1,31613134384668
1,40359671262173
1,3586448146079
1,40393410575881
1,4919461284084
1,39740633127788
1,33518756646569
1,395410255125
1,4930008845735
1,42719728543254
1,35520454575998
1,4176713474742
1,42329542481914
1,3847561081947
1,44389549182746
1,50770853737961
1,43703266584287
1,38528708783079
1,33719083655013
1,39252020425994
1,40768224495777
1,34870019935168
1,37034766270777
1,41332157527034
1,44139265813626
1,41990625305007
1,39549335905165
1,43428870033061
1,42874998190677
1,44392414383205
1,40194381586925
1,33865885734112
1,37812544586387
1,37756654447622
1,36108043891541
1,31312315674957
1,38881939794444
1,40648406003275
1,36769149774672
1,3868134634907
1,38535413550106
1,41364227314061
1,49451916183439
1,44274393327325
1,42027305804032
1,43148029412947
1,36132730148146
1,31184430854049
1,35239983654936
1,3631284479027
1,3116605236959
1,37198404214531
1,42691687950941
1,39128675520275
1,39413507801244
1,36849192591695
1,37754951599527
1,36541094831795
1,39171717848354
1,36346932831991
1,32026054246898
1,37827922457895
1,34971965467508
1,3310672951504
1,37522510989663
1,30777009388067
1,34629717477088
1,34066888415719
1,36754918502216
1,36028802142471
1,34410141053546
1,38065277562661
1,34284842100058
1,29544752362122
1,32138423982899
1,29235274542613
1,31868546790372
1,30001959504077
1,34502947093093
1,32382706105105
1,26759889201785
1,28301691906066
1,34013837118572
1,312160917446
1,30870699363887
1,27043495377767
1,23703705501352
1,27112198151534
1,2761526475465
1,24466883509282
1,31440170986635
1,33520536435311
1,36099879831138
1,28048742389424
1,2414466480764
1,24561562582834
1,2698475954901
1,20934013381635
1,19892853651956
1,26940011777115
1,24172382260888
1,18608958281543
1,2491040568876
1,22966581474094
1,16483650733773
1,17012097783881
1,18806263008235
1,18402516785666
1,18271984761216
1,17546063433909
1,21146682123891
1,18634555932691
1,18217110943667
1,20325996372444
1,18365539502313
1,12649422538696
1,17379474790905
1,15685130317392
1,10201018615371
1,07560914946444
1,10956798147644
1,10231579699391
1,09812549332032
1,09139272102327
1,09097640318395
1,09263953784978
1,0956651046793
1,07684656384203
1,13787964026902
1,11506248414606
1,05537910043768
1,0540069532546
1,08561713280029
1,08210647093997
1,05229506068381
1,05754394032951
1,02984191536853
0,996867059243265
1,01008241870852
1,02447815872818
1,03407497813971
0,99003329701766
0,990673303280033
0,980016783064219
0,990563898797092
0,964871350904415
0,96006993634608
0,963293285053619
0,973202297812748
0,957691169398613
0,948790330184615
0,942073585796486
0,944673100512384
0,938078214439709
0,939739786770272
0,917240741737836
0,937018084512169
0,911370274823917
0,922903521075123
0,91492591466952
0,88783511486153
0,886815999075032
0,890038902607251
0,863393631896256
0,871125213973631
0,872844730738674
0,877014449329607
0,851043345400453
0,84954612345203
0,843162313073587
0,845814440629749
0,826302067702188
0,825625710702138
0,83836835332094
0,837275732261713
0,810575436500334
0,810795857632611
0,800020775720985
0,823658015375783
0,817119386648592
0,791350789806306
0,774011328421763
0,779306516472034
0,779435169195018
0,779114378694503
0,767213049507616
0,786841426238938
0,762040716177034
0,749115163930617
0,739348037221094
0,74420337147715
0,737710366858337
0,750683948459973
0,731056409913659
0,737179913777265
0,727884036401281
0,709580546177053
0,70027865085044
0,701460971899215
0,689493912244117
0,708919968185031
0,698339344235829
0,684655442639783
0,689391806186362
0,680158056618852
0,666924025752872
0,676020886063451
0,666061077596081
0,6614027389269
0,658233625846677
0,643873932628667
0,642555935597559
0,65798275834572
0,633249706806651
0,638817022654307
0,636701844378993
0,626166916208229
0,621574618511582
0,623154614510124
0,618468731180925
0,619295886417851
0,599808704649465
0,596613368849616
0,597368085734993
0,593203280021658
0,581162401486037
0,592556815513677
0,584862492533302
0,580693828132284
0,585023136023611
0,575950654112546
0,556137144323941
0,56375247733879
0,558695334011113
0,557497933375683
0,552476795055959
0,557774915405073
0,535349324942437
0,538040317442153
0,532915153785669
0,535269198998903
0,527334656221431
0,522562058039131
0,516843765305231
0,518604316109061
0,505681548451925
0,507415978542618
0,501436979160181
0,502927633833984
0,50120301790033
0,503488608327275
0,486550639195242
0,495212744850736
0,493104659119582
0,480177261372901
0,476167066521914
0,483077794079913
0,474755010386259
0,467158304089739
0,46682685927738
0,470760829170222
0,458137919717494
0,461742427401489
0,458009766393201
0,45010772607541
0,446299471538269
0,445056317867351
0,438242286996671
0,444316358838133
0,436924540805095
0,437490828433547
0,431344690420141
0,434258159502551
0,422062183253016
0,421226192445893
0,416966820669087
0,419837412912747
0,415839875773212
0,410251256950721
0,407737410210361
0,409656147358686
0,398264062038044
0,398744405188176
0,390298481763347
0,390243741215283
0,387489339685924
0,387304991087263
0,377846169817224
0,385506477558278
0,380036274427032
0,377655371947703
0,376651561147443
0,375222263237168
0,36504205742985
0,367708407238639
0,361545463926988
0,363226961961226
0,357046177206567
0,356552397454756
0,350464044633819
0,355615646134742
0,350241571218522
0,351880662824679
0,346040065934676
0,34806905068265
0,339602874189669
0,346021229846572
0,333658635206635
0,334621719464137
0,331056593986488
0,332748072157798
0,326139367958337
0,323987485136287
0,322785176088461
0,326500834089723
0,324531912660422
0,321189874928723
0,313022491241963
0,312240906593603
0,310242379660918
0,310529055531371
0,309039631255622
0,31007058469341
0,304633053281029
0,305181873016491
0,300861119566499
0,306275809127913
0,295773556819302
0,295867649648821
0,290729250515682
0,290340519382586
0,285897130113893
0,289187956211442
0,288017557551128
0,288141980876739
0,280117141457074
0,282310965550046
0,269188718552106
0,275132572119102
0,276646760403023
0,273603051629963
0,267905633366165
0,271385954687414
0,267951470652047
0,266474229330553
0,26272654993402
0,270449831850258
0,26114364007237
0,26364317302716
0,258691574707089
0,258421548162706
0,254892905204094
0,253065643884092
0,248191926596051
0,254284435336655
0,250092260964929
0,248681085826083
0,244065816483654
0,250069415601122
0,242963329274665
0,252405960766936
0,243571330131531
0,237997305884819
0,238916222380551
0,237916998945763
0,235091901950192
0,244523195683484
0,230769511420926
0,231174483874216
0,23352523886221
0,229068811607801
0,23013482877315
0,228528907979653
0,224372288120989
0,230072302676419
0,221321546805081
0,224168621235504
0,219233265026906
0,22189447121316
0,213993020347984
0,212587534296148
0,218955326887859
0,211384063337364
0,210187169367238
0,21623529642555
0,210758872396269
0,21772100543672
0,204758447974202
0,205545080947952
0,203416967816769
0,202373119332452
0,199264583185609
0,202733006403927
0,198844582784496
0,205225912074564
0,194360642125171
0,199255552677569
0,194923687318501
0,195640961271101
0,194572289607768
0,193780716247013
0,180903507990124
0,190673099279422
0,189223332475517
0,185256503152534
0,184335891871463
0,188918008332351
0,181499872936009
0,183063741753044
0,182799670851797
0,186523114968759
0,183445981942802
0,182368931533542
0,180681895477767
0,181193696033786
0,176164403502886
0,180168596188277
0,173052929055666
0,172942240160305
0,173082242861365
0,172304414385553
0,16984235002799
0,174171511162532
0,169780350661344
0,172342741812181
0,168676010135864
0,172211439523777
0,169794773404248
0,174037434215668
0,16708194478855
0,168510046250552
0,163220325437721
0,164537556176024
0,159403220976377
0,160648515947257
0,157776976836272
0,163528200576376
0,156660506856649
0,160878502472233
0,158246171010389
0,161243637774543
0,156796025033831
0,154809342827202
0,15149853303665
0,154278245404097
0,148198091609384
0,15352311561713
0,150203989254771
0,152702873064943
0,148967394664796
0,150491274814628
0,14818524161887
0,147634245447329
0,146470011368172
0,14407157088461
0,14052384400276
0,147523754138655
0,140428105882342
0,138775561318852
0,13742110161965
0,139748807452596
0,13674072589122
0,136886964217348
0,132936900916359
0,136143404424134
0,130296351917744
0,135480382539263
0,135441385403489
0,13303065877041
0,133658827356335
0,136650217400536
0,135545220406225
0,134946774288738
0,128488333509497
0,130293183759245
0,127532352330735
0,12953779719937
0,127987978122345
0,129264059540562
0,124989483348259
0,126774125484339
0,12716255314464
0,127172025973004
0,12224109025975
0,126226063799726
0,121387117774546
0,120593871940906
0,122042354997608
0,125727356500455
0,121743935433511
0,126524166083953
0,120519118030596
0,12344327361798
0,115019610640157
0,116857067104928
0,118590331365181
0,123180936661338
0,119798014596844
0,11923509180983
0,114909162392308
0,12107346908499
0,113241225304722
0,116585721364322
0,112098545467541
0,113213153286534
0,112907312324188
0,115792810161166
0,109972969337584
0,113732667885275
0,110625888721614
0,111469473392579
0,10684070759324
0,114471644335537
0,105993837385869
0,107002983181159
0,105210719564272
0,108553149467378
0,108546401030502
0,114117240150274
0,110510456764116
0,108699969282448
0,104599626207264
0,1072740235697
0,101923033651802
0,107631269302018
0,105199443088537
0,104653281201434
0,104631224179265
0,105417404310523
0,102575890948488
0,106462528250773
0,0998073422383272
0,104696772448699
0,100425172315141
0,10589959680203
0,0968216455092701
0,101984361703367
0,104013857839233
0,102329965775871
0,0985950097397598
0,102428468533657
0,0997489189888743
0,101312767589388
0,0932385933698636
0,099468902111859
0,0989748824123677
0,0996218717142453
0,094030165234857
0,0981254971809377
0,0945175923920118
0,0992633446744801
0,0954147804911246
0,0983723100969188
0,0931085879036176
0,0981325600972523
0,0960533906459896
0,0973812313233934
0,0945691637751826
0,097134695085724
0,0943379766146154
0,0973670756583199
0,0920621246923626
0,0951865836455198
0,0925834980259271
0,0961889599892271
0,0922183988512603
0,0941612019532958
0,0909858517749767
0,0959760423593285
0,0926056313925181
0,0956283010670833
0,0881055875474734
0,0945453474162523
0,088353878225697
0,0909613443489769
0,0878231248982183
0,0913017207054499
0,085611697715419
0,0900699587299581
0,0932208589138245
0,0911990141451369
0,086264487600912
0,0926707561391392
0,0865634065695322
0,0898719793339942
0,0848677100218592
0,0885982683480382
0,0855411511313841
0,0902446641101602
0,0877075173166997
0,0861543086582845
0,0880184841437052
0,0905915912612973
0,0871052464082734
0,0882353618101266
0,0819877481055759
0,088402128533718
0,0843361391986891
0,0856138849425622
0,0829451386886316
0,0825375816281972
0,0821458445990391
0,0866766604455855
0,0834045538101614
0,0880883310437855
0,0827906611710994
0,0867822568243364
0,0821978596410643
0,0854564170787789
0,0844913853880466
0,0865098904877721
0,0814185188571632
0,0843811235444518
0,0815368046310558
0,0865154718271049
0,0834540325095965
0,0820815018457706
0,0825249385834456
0,0834349468049276
0,0784908352050928
0,0842994725525729
0,0824352283241013
0,0859656595726503
0,077078136684999
0,081651746544652
0,0783400311817397
0,0829630252383829
0,0778628864141856
0,0836380757427876
0,082710879038489
0,0829893207941007
0,0785802143296872
0,0794326967185403
0,0795449802668384
0,0802083960157536
0,074173599341246
0,0799929395873218
0,0751947610150626
0,077652544566017
0,0750352464664487
0,0830936180242409
0,07492052644972
0,0798883010073077
0,0787228573293889
0,0749673296449457
0,0755210470537702
0,0789796685678985
0,0761821508838898
0,0832003365575794
0,0762497776852096
0,0787863691443196
0,077687352899913
0,0779144178974552
0,074802052136299
0,0795044809596346
0,0755611433954004
0,0790245242399783
0,0769880674514132
0,0801585513165486
0,0775923688391104
0,076798716901318
0,0730677982197625
0,0761915193175021
0,0731186411772907
0,0793406901403106
0,0752121002412176
0,0812045990956499
0,0744538902293165
0,0757984667201226
0,0741390434906123
0,0771360962808298
0,0757150404079952
0,0767584914677667
0,0704418599435561
0,0767381404314242
0,0740604720779416
0,0765172299666261
0,0717498646379557
0,076866596773278
0,0701299020027863
0,0754981263211957
0,0719703255771027
0,0746101329535452
0,0719479072123787
0,0760142344907062
0,073682043092468
0,0734764386395939
0,0725266980729085
0,076077835416849
0,0739428397195899
0,0735641538517059
0,0703193303580514
0,0770857062865438
0,0703518867204586
0,0733288375989389
0,0732128877884484
0,0724098327547784
0,0693629086859024
0,0768239056415113
0,0704757525835314
0,0729547910401919
0,0715432143030455
0,0728107052975313
0,0719089935876451
0,074232161378798
0,0737592055935921
0,0732006722337559
0,0726664951011124
0,0761745623578061
0,0703225977790204
0,0730489610583306
0,0674243515160095
0,0740410086790902
0,0730175840319105
0,0719882061423641
0,0711457094511667
0,0756927054402954
0,0697318538941448
0,0752072381962497
0,0697964287546049
0,0743534915759543
0,0681771846629307
0,0722180121235555
0,0709590968060059
0,0723023569882807
0,0722250458138504
0,0749805356678982
0,0664251227268946
0,0735937198925366
0,070679546506156
0,0755482691488795
0,0716444534531001
0,0728330431407809
0,06863792475184
0,0764478762700453
0,0722719329323448
0,0710521959217763
0,0696423755146269
0,0708229686111697
0,0678852418423323
0,0742961345269267
0,0707880417436749
0,0721047085267003
0,0681905213305245
0,0751095044156082
0,0700813546413075
0,0737079191057103
0,0696329187244838
0,0739921469407777
0,0694635019800349
0,0723936630272223
0,0698111198493964
0,0742758407799737
0,0712557208752657
0,0737602176597258
0,069424105438148
0,0727514456577071
0,0682775167762626
0,0755457782284203
0,0718638807069481
0,0728979916606213
0,0700324399216298
0,0723120134234614
0,0696947161567893
0,0721843763881023
0,0712826252823682
0,0742345312337821
0,0710952166340487
0,0715113806239968
0,0695777633792101
0,0717396804552586
0,0684970885847319
0,0751150143218156
0,0693820867529098
0,0739587055513432
0,0704862751686493
0,0746268137989816
0,0733344645815143
0,0737394135459078
0,0703319056791601
0,0737633404240336
0,070411031407697
0,0747372339989569
0,0692710640103126
0,076069535505436
0,0699853332355497
0,0732792777774594
0,0720915323568323
0,0753415647084411
0,0722127396893334
0,072977641077263
0,0682285045383585
0,0736444353944323
0,0709571101929502
0,0759055355363877
0,0709273347795935
0,0753602678622819
0,0716807155611058
0,0732335619491005
0,0700351854346828
0,0759048866750261
0,0718104336678954
0,0761239138707198
0,0712515932961475
0,075354226817066
0,0706852297663296
0,0728983105559253
0,069637812347715
0,0723173428479015
0,0713814316914031
0,0751964667515206
0,0709680968915885
0,0756358711515735
0,0702979115770134
0,0755118113976257
0,0692894732225137
0,075792676223966
0,071242754583701
0,0757466562884212
0,0727680323193228
0,0751121242512792
0,0714260524342487
0,0736447037322035
0,0717641996625931
0,074977496965407
0,0707673149242581
0,074755234959618
0,0715454528664638
0,076056319013348
0,071808659400304
0,0761651586350855
0,0742926981431137
0,075508422325542
0,072364411765956
0,0762121027140926
0,0737196244479592
0,0765257665616367
0,0706212845734717
0,076031526976143
0,0735775663864981
0,0771552680406169
0,0742106431609404
0,077000716495187
0,0779074577195817
0,076679507572204
0,0734919709989286
0,0762251917073334
0,0737915111506381
0,0790872676866198
0,0741564263262063
0,0774711791120807
0,0728637494056565
0,0789304639250757
0,0733159204222334
0,0745162101464427
0,0745384652773357
0,0766602074424407
0,0731800752991662
0,0771202598422861
0,07425837083958
0,077829479001088
0,0742208801863203
0,0791794143282267
0,0751827802248641
0,0782592949858233
0,075267342017174
0,0761366708637819
0,0763060163334666
0,0802673348771214
0,074066993713132
0,0790561703320017
0,0737309205501132
0,0796618056302269
0,0722932597606182
0,0816747606985356
0,0750439319041378
0,0780120709701261
0,0736238475350332
0,0777629089739575
0,0766233526335605
0,0803587702298552
0,07660623909814
0,0782222008591646
0,0735679579108492
0,0821569956719812
0,0767678447812308
0,0803122076377339
0,0748367611085155
0,0786115995864738
0,0755501906079707
0,0793636243749095
0,0739600603165154
0,0788410603394366
0,0750673981050966
0,0792093529119888
0,0741615960143854
0,0787992843510129
0,0769266312056108
0,0836625104133218
0,076315211938163
0,081446214720345
0,0776295625871641
0,083121705400175
0,078207391500054
0,0806104806745475
0,076367950714928
0,0831939527962633
0,0796031602815909
0,0808037359891196
0,0773410320770713
0,0825181266880621
0,0787652962214981
0,0821282911300728
0,079370422403658
0,0843590148599214
0,0786543362664043
0,0820166768968734
0,0770807858017313
0,0854012049823295
0,076850104976117
0,0831119991095437
0,0788263861037361
0,083031402667673
0,0775600065843546
0,0829190936193562
0,0794634265114111
0,0825207484349954
0,0802805468509502
0,0823462007359012
0,0812745343285621
0,0835855642450319
0,0779679576093437
0,085389371104685
0,0798043586099812
0,0839388099734119
0,0810084392350671
0,0843537663638596
0,0790022563841385
0,0828547682186251
0,0792279306964704
0,0862857925148995
0,0771251334151767
0,0848750945301655
0,0797149668617747
0,0848906642450235
0,0823566367769875
0,0874513253050783
0,0817819766075787
0,0854695170884093
0,0810822576498855
0,0856583457475364
0,0813747107937353
0,0870245130715292
0,0833273297643011
0,0878902468157
0,0824958651327789
0,0864443148206428
0,0804382522405092
0,0856150221456734
0,0841656372397321
0,0878639546938454
0,0834873352256406
0,0889495142945818
0,0808368959964963
0,0869483124234758
0,082376734123188
0,0890212974389253
0,0819809537595626
0,0888452894969606
0,0842356041128728
0,091776215886809
0,0842783386231766
0,0880002293142215
0,0837234305782596
0,0916056462662591
0,0812820269529159
0,0948105987326209
0,0864752260894427
0,0948205305035067
0,0867112542220121
0,0903000135638739
0,0783555964087253
0,0884791806110533
0,0847316398676707
0,0913776008231624
0,076434432197111
0,0918301494426496
0,083083183406744
0,0888582071044772
0,0808040404592842
0,0975183908710138
0,079584572939991
0,0982411291487193
0,0763881067142098
0,0999161993244432
0,0779501494023447
0,0958700793542518
0,0868907210486509
0,0934947074414551
0,0842188219881893
0,0973941706884513
0,0801652663265883
0,093666860589494
0,0808317099080787
0,092683509306668
0,0732133742903737
0,102416164071934
0,0740472743030922
0,101371576785815
0,0710477403863124
0,101280066962855
0,0728662640086826
0,102204972612561
0,0720922032450309
0,110198386051809
0,076738844233164
0,11609451771736
0,0702947701534289
0,112294623791071
0,061939289165436
0,116614226786016
0,0693359753233338
0,129840754187784
0,0647973756789104
0,118923292458453
0,0648329526950687
0,129932125975938
0,0746103523187171
0,121418014661911
0,0695091215684638
0,120817682629393
0,0874307843118799
0,10963856206671
0,086118037429773
0,103959236591696
0,104398347171183
0,0850210309530922
0,107023187126143
0,085540157102308
0,110818145128081
0,0812587334331987
0,113394072919259
0,0860310076095399
0,111262287637289
0,0923378785222694
0,106251167910373
0,0965192299065441
0,0989491442162506
0,102100704319695
0,0974831080657069
0,0999664836778819
0,0963465778212758
0,100029276993767
0,0996358611030588
0,0974634152703227
0,102293424773721
0,0978833455070549
0,100718248686829
0,0987127304890977
0,102329761777983
0,0990878428760249
0,0998595021929027
0,103065716329857
0,101169292205169
0,100333552839566
0,0999223878510596
0,102384801439056
0,100014898557682
0,100881307079248
0,101390968307311
0,100745928539381
0,101022364038339
0,101670221741915
0,0999925959127056
0,104534116487346
0,101967733226148
0,105459281828703
0,103616650151026
0,104904618893506
0,103276134682524
0,104475426794132
0,105094923000277
0,104528447827125
0,104643794205669
0,10440317851658
0,103676677868715
0,107307134944382
0,1059128997179
0,107004291432983
0,104566960778866
0,105844746065921
0,106472772652461
0,106743856372296
0,107017851275519
0,106415369816413
0,106644649387182
0,108959796285769
0,107221478801486
0,108996023969386
0,107586965899502
0,107821180678733
0,108938000717722
0,108975871691659
0,110191959969645
0,109161017419488
0,110194503596611
0,110003514447683
0,108885867627405
0,108948660067526
0,108864367691866
0,110168017678745
0,109349479827941
0,112168997863524
0,110318366840534
0,11163488729334
0,111617487027291
0,111949482164334
0,109577793252278
0,11118864415519
0,109734006837611
0,112146539263138
0,111329494933264
0,11362777457488
0,113491533914866
0,115276604367311
0,112790765283293
0,114357279079651
0,112674117180884
0,115545699821613
0,11523554424508
0,115429594996481
0,114717954010766
0,115219342784042
0,114806897131922
0,119180475117368
0,116433827465471
0,117924167440171
0,114623883807625
0,116305993097134
0,117593641868322
0,11705606645516
0,117303273775633
0,121276745628036
0,119133682140311
0,122310183889842
0,117739242308717
0,117797248017169
0,118953339548861
0,120959162171949
0,117212281235656
0,121559958408035
0,118181337257537
0,121418848481263
0,11833176988589
0,122786620651254
0,121981081107763
0,124701315168623
0,122256531242494
0,123952781581585
0,121946347701818
0,122313573062565
0,120910923779975
0,121469016353053
0,121231919922907
0,123430114797783
0,123044657511877
0,123833729884028
0,124931418702128
0,12387415107269
0,121364314678475
0,123907821371868
0,126047092496155
0,125967922861113
0,123260003395942
0,126574502132404
0,126886714176424
0,127473486127454
0,124386947050996
0,127574496740718
0,126643708315057
0,126437427972311
0,126139051739283
0,126973342622
0,124521231946137
0,130249690456004
0,127499017173775
0,126382083992752
0,126307311663373
0,130560598284412
0,126168634146724
0,129363097651428
0,126059779774414
0,130972912254717
0,130372593020559
0,128734350795951
0,129642143037242
0,13120746486331
0,129803168108077
0,130182394846049
0,128407691247341
0,132544246518979
0,12835032899259
0,131999147847666
0,129948016286886
0,13140460658568
0,131805526833943
0,135048909484048
0,130575261190334
0,133615412483763
0,129507380672886
0,132283999467914
0,131030597860079
0,134260913330851
0,12939295951481
0,133931588217361
0,132819497597477
0,135015576593392
0,131927960598343
0,133588085422363
0,131811894867429
0,133365730167504
0,131601465293206
0,137614096933006
0,132212145991935
0,133148283369728
0,134110654570649
0,137166736658851
0,131508187202647
0,135724492014081
0,132898223769026
0,133273842164657
0,132197388399791
0,135480209738146
0,132159232028487
0,134111400090983
0,132049563572436
0,136027443684356
0,133156674507658
0,13579136440836
0,133441597576139
0,136178784277343
0,132589660096451
0,136292317570631
0,132881231431884
0,136547637757905
0,134036411478852
0,135741753202871
0,134074625971143
0,135579509809556
0,135071686763157
0,136105055541094
0,134381264218697
0,137037547476124
0,130926104457658
0,134710961100662
0,130686447997185
0,135245022973565
0,131100187819037
0,13498672803096
0,132733517104946
0,138339139140195
0,131210609094284
0,134094034315397
0,132926858449837
0,134442233066519
0,130820122756564
0,132561150694264
0,132877521396716
0,135102419922236
0,134128331856735
0,135774963862502
0,131941864814884
0,13430377262195
0,13348004291616
0,135628452662662
0,130557911117485
0,135707785423431
0,130636394469667
0,133050044301099
0,13091657676396
0,133505305969621
0,131955606371475
0,131571111673936
0,129889078912113
0,134017022995878
0,12903393883053
0,133189775739805
0,127311678091495
0,132609354844468
0,130897821415967
0,130433430393181
0,131970231319331
0,132755269127816
0,130890895721158
0,131320941201066
0,126730125203855
0,132874273858097
0,128653037639218
0,131290783067269
0,128059668160202
0,130882944657553
0,126904019484136
0,13003275927289
0,127353839047941
0,129933943825464
0,126923154289327
0,130793466674645
0,127156834756391
0,128763903521986
0,124412029395828
0,128970658686154
0,125549192053267
0,128900243377964
0,124968375450783
0,128166320066926
0,126107965893222
0,125733774004604
0,123146716871274
0,12670626091592
0,124003214498174
0,127486009203685
0,124420067120714
0,128663863159237
0,122535615715591
0,123843712316439
0,123009475257914
0,125458472383077
0,123317782029015
0,12646430890234
0,121445578735863
0,124976505456173
0,122628214588436
0,124349436827608
0,120284919338292
0,122709209499405
0,119971959063423
0,121814052149176
0,121142164805078
0,121721987849321
0,119520135384224
0,122608027125461
0,117765887298727
0,120023143166887
0,115068737390491
0,122519757260787
0,11784994610686
0,119220850877781
0,117503128414558
0,119522491829727
0,116589108412088
0,116560066626728
0,117571576930818
0,118078353555955
0,113306894666262
0,116908637192032
0,117671881448219
0,114947028822114
0,117822663412305
0,114644928782772
0,112348439535957
0,119143877674693
0,110607698056511
0,114884532954338
0,112106769128409
0,114153754619541
0,110953983284593
0,114089542279684
0,108588360339055
0,113756096179561
0,110613665054764
0,111674014025815
0,108790975306085
0,111520312180058
0,110067138158631
0,110568370760459
0,107897271179325
0,109361407609048
0,108934514274191
0,110698332084329
0,107658820441586
0,107608655146137
0,107414365082538
0,109826208945929
0,104332527535648
0,113300266510625
0,105371882272913
0,109663293071878
0,105137811649907
0,11154128927169
0,103498701461521
0,10883705037158
0,101175086760794
0,106737395867231
0,103388460650566
0,10639690061968
0,103188572456391
0,105004548412412
0,104420390083275
0,105128903012653
0,101674222659946
0,102594688412174
0,100529104694548
0,106820484149477
0,103042825365561
0,102586418240576
0,0983589528739052
0,103390802735226
0,0992875483983765
0,102967636258487
0,0960505101897654
0,105867685338264
0,0987936366453615
0,103558103443176
0,098647645561996
0,100509433194158
0,098656887978394
0,102160034016733
0,0963254109343835
0,100671665113892
0,0960944445382814
0,0994893962778235
0,0972072431241705
0,0975986661717261
0,0958315688369764
0,0970243019829221
0,0952677410641084
0,0961683224325391
0,0955191857645071
0,0969753752660306
0,0934414637979472
0,0986613308891472
0,0943945522789838
0,0963049129611908
0,0942892611842322
0,0963458666654125
0,0922300219875227
0,0916293573702411
0,11089507426085
0,0910031231049528
0,096646226676025
0,0929393693666152
0,0931278700524965
0,0937536024458801
0,0952120756425846
0,0941791168769043
0,092195613196569
0,093054421110298
0,0930362525382893
0,0916534944037662
0,0906558493715612
0,0883058877778566
0,0897493814031312
0,0910763854956269
0,0917793823727778
0,0916490288966488
0,0900872401457093
0,0910388523067343
0,0894161121158306
0,0973968372754176
0,0936087056284163
0,0886002924060724
0,0952123918116205
0,0818103442952237
0,101816125175652
0,0970785941903736
0,088944738736775
0,0936981308242415
0,0856419534671687
0,0909036919240379
0,0845235517529554
0,0931775851110591
0,0851080709878696
0,0963714088180038
0,083192680845584
0,0948418557185701
0,0844758095875225
0,092657563968151
0,0852141894362825
0,0904177609329038
0,0846105472050328
0,0902125418515706
0,0850493545515441
0,0896987206185246
0,0872909324353602
0,0878002490184693
0,0879416401308516
0,0863659682087502
0,083287348586115
0,094481426566641
0,0831889784489373
0,0885399182634385
0,0848174464450713
0,0884116444103449
0,078605664847365
0,106108177370129
0,0809626861094293
0,0916679512808686
0,0805051491383716
0,0881176239912213
0,084753260631947
0,0881517184146641
0,0812242357497163
0,0882681742368583
0,0841555459916235
0,0885002996658272
0,0824606395655501
0,0868748005883369
0,0840346975855614
0,0862380875490747
0,0856087272485472
0,0865880396077384
0,0851546144866811
0,0846091897559167
0,0892183014725645
0,0831150592013336
0,0820513373740556
0,102425799737882
0,0853339338153011
0,0980885273136571
0,083639921342298
0,0917102920704528
0,0810015170163218
0,0921704145862821
0,080000891160061
0,0918639066494849
0,0789300582507972
0,0925059623043573
0,0820420027203496
0,0913288492808953
0,0822105154663476
0,0924665772621449
0,0787242297109345
0,0923289484327101
0,0807930952804757
0,0933392508611622
0,0793107073626915
0,0927021176820003
0,0748879019387639
0,0957209132058811
0,0804999280715418
0,0964323021582988
0,0727518604144584
0,102535562880645
0,107533932031127
0,0814014210030517
0,0974460975784905
0,0810400494656666
0,0886680833884597
0,0844075671326759
0,0841654797946236
0,0898822695241309
0,0850747410182849
0,0859979280286719
0,088118873017753
0,0877697835356459
0,0887406450713887
0,0858865884807316
0,0782307917468043
0,106810773599516
0,0880085654849174
0,0906042623568817
0,0900409332139948
0,0794644596258099
0,106039187636925
0,0845627988789819
0,0897320950744415
0,0930550189072081
0,0879387108662244
0,0928785940861249
0,089155939395534
0,0900076976733331
0,0885840263864492
0,0950493617343256
0,0832831669189422
0,095514286636943
0,0838479564066938
0,0979891223649148
0,091178739249614
0,0964718224960246
0,0991325427886822
0,0912178794148881
0,0906880409449158
0,097625607691537
0,0896551977898239
0,0961795380763987
0,0918285043351112
0,0944162827957083
0,0941543402042457
0,1065266409486
0,0875945193917236
0,103324192308756
0,10195603507062
0,0967220003135434
0,0978877577425589
0,0998979579332976
0,101653059173821
0,0994103247316168
0,0847209459167826
0,136414621548808
0,0850978323666616
0,12472279303363
0,0867028303317601
0,109868641317545
0,089525621144582
0,110231048982246
0,0847740367055969
0,118247282798547
0,095791304216552
0,106633028838641
0,100266133867846
0,106626061517737
0,113911602016037
0,103305679155998
0,108959822438801
0,105006375925071
0,105974175431144
0,110492620295345
0,117166971671737
0,0900995213067742
0,127033121274437
0,126195715338001
0,116333611720908
0,124209832189665
0,0899188500038097
0,148682465112197
0,110851725844444
0,117945041684791
0,112028016608645
0,115360785390368
0,118738551624813
0,103631366775483
0,136869995196572
0,126655056927586
0,11238672103939
0,134533957622951
0,105460264614001
0,135371333672106
0,131046690906777
0,129021710169179
0,119967868031015
0,137329137092332
0,113075362440585
0,150080525181411
0,149709711242623
0,120160674861176
0,156421038944674
0,130559219673623
0,149434610260447
0,138859902181938
0,146116837683488
0,137352333433384
0,156598673701161
0,144668937008975
0,142214793433389
0,143140928483009
0,176952804370099
0,140088612585983
0,163496843007001
0,149588232887997
0,146001727749555
0,165205627648858
0,19737865222459
0,175529193994217
0,169117980497883
0,157397827274514
0,187212511743398
0,171484729602731
0,17040037173997
0,17494868304814
0,170627950099077
0,180939252003668
0,177487569672962
0,194664187454166
0,192166160387864
0,188195607963215
0,199529605207919
0,184375593501463
0,206348575677048
0,217569165958822
0,250892412962376
0,197021007460112
0,253439190617579
0,230919552017914
0,222097105949796
0,228004160982071
0,222936567006195
0,243085951555228
0,233305377417157
0,242843062493493
0,236654671279948
0,253443523000241
0,264995070821721
0,237723544832677
0,290115440097691
0,250633818525566
0,282300140475872
0,210854241808214
0,444687003428406
0,295781708226162
0,29251960891374
0,304281540693731
0,25819123849753
0,39418769961398
0,312442432381803
0,317589954411847
0,323322981437266
0,329432202918114
0,331330934098587
0,349597623862365
0,346292227939844
0,360161289734247
0,362864691539132
0,35756266716125
0,360438457408289
0,450489060728322
0,404464061859267
0,417536128808948
0,383590006223301
0,409520208221299
0,416656361162296
0,418710569473926
0,417617118847
0,434850252543636
0,393488152592005
0,51552838428164
0,434133513523262
0,465394977020255
0,442734715580654
0,50993120268397
0,448428948628483
0,514418320557627
0,528217285777581
0,489564030060411
0,512240388072273
0,50160606992824
0,525298285985171
0,497441093647983
0,563517651011515
0,552234291134805
0,530268375291695
0,550552369941966
0,543587137300676
0,568504876506599
0,563343479758229
0,589252167420932
0,559509612139974
0,621000963529764
0,581217120128258
0,694842736339042
0,645755839044624
0,590984276552819
0,624739524868966
0,589270999469095
0,64899198066998
0,636352384174312
0,63374827066474
0,685469287610526
0,622356074402154
0,650642219349994
0,637148183507804
0,662892760725085
0,65265084189345
0,674533325945
0,631658887645911
0,665100339080572
0,668812362705597
0,651066786054744
0,777096650895406
0,658860083082031
0,660269678898404
0,640553520789979
0,65552303786721
0,645265217504597
0,658305852848529
0,632581058643726
0,676858841708616
0,629370373694258
0,640334034498235
0,614801512922451
0,634295820534152
0,668555375976735
0,603141014890106
0,613960336981388
0,601463585844683
0,590815038026372
0,588958425165513
0,564079014319956
0,649406108631491
0,554783088268642
0,560573628880479
0,551151925177845
0,546353539630749
0,544008288197663
0,530681418460424
0,518345068524991
0,525836189918526
0,50160159061041
0,506095756890327
0,493323630483454
0,486631440065916
0,475387922438681
0,472581862654697
0,467073188877912
0,460962631288632
0,461785460818253
0,444058804464844
0,446376150173493
0,434334166561952
0,431082771532636
0,426180855479142
0,422632801295257
0,41712534338876
0,410733799484951
0,402483827421735
0,402628774715164
0,390547448136562
0,395525791457241
0,384477706809251
0,384146435870644
0,375493773659075
0,376214158740332
0,365896608981999
0,363802585850572
0,354595408506517
0,367689335936211
0,352835556464997
0,36219052446261
0,338712975884818
0,356146585650835
0,321885942437802
0,372205045607381
0,375509956006624
0,319936047896423
0,346365642219802
0,316325877186145
0,34038164531193
0,301597101727742
0,343586895292043
0,34556848407508
0,318217070846785
0,317148121999064
0,30804763108723
0,309100049002831
0,326000458731567
0,295396433425856
0,311563801559979
0,290251487699856
0,305056298877564
0,380809050991133
0,280434016765289
0,39148094874692
0,300857135471077
0,305208731524828
0,262903145234074
0,334058973353403
0,275313658797257
0,296205745501483
0,275508833225995
0,306255304421432
0,29878803094787
0,275299201510783
0,283125107222944
0,273685682304457
0,283630818294225
0,295136438250531
0,268636806681556
0,261043941241984
0,313373882206946
0,269997109444138
0,294635374277581
0,309972567262059
0,293586565328285
0,263934435505426
0,265409640976519
0,272714109582977
0,241492644121627
0,309439071029842
0,265876438178762
0,264957737628026
0,267551719992024
0,246289091729852
0,26652517843188
0,257187960034117
0,27757772708037
0,234258860348401
0,29401531168714
0,245274043254062
0,252917102172426
0,263855314635776
0,261801896696337
0,295965803291048
0,252964900657267
0,247765383552818
0,235598886508736
0,29115331734536
0,240323979607867
0,262567439832
0,243069046966644
0,233841753527694
0,264050089382344
0,243839194329727
0,241402893292083
0,26337638949825
0,231652112970329
0,280918922827509
0,260701332598053
0,27708589900406
0,25210745524511
0,230082460536718
0,23800437886181
0,235162838134287
0,241906228856467
0,230054404529638
0,230716862569324
0,257152173899402
0,201359365426295
0,277398410348345
0,23418436651185
0,230147389820349
0,231607016485145
0,229409390468289
0,225269132826987
0,244218424766814
0,244080272005169
0,248102426928809
0,218806158732734
0,255398095677035
0,218748328017878
0,237791085475893
0,215842558523195
0,236299290037165
0,21919727430746
0,238520316093716
0,222365177349513
0,229262057801134
0,222867450195927
0,236996438785915
0,210297449857561
0,265114277903795
0,203690931292082
0,248803082639307
0,233012647045575
0,259688529026295
0,246179932814398
0,222699846426409
0,230783231961437
0,223221100031182
0,226222244568744
0,235935932325505
0,212299037794715
0,26747115031921
0,220618439929786
0,235376291937851
0,222125509901253
0,236869338332186
0,226810121048045
0,237724820206777
0,235061828182388
0,231903883821937
0,278155694990043
0,218850923508659
0,242176967284891
0,219180354227365
0,23197676395211
0,232984335293572
0,221719422724485
0,231036358410698
0,213530634151093
0,244362242709396
0,231098460340447
0,22475751866634
0,229024689194614
0,22115624371839
0,22613540973011
0,226401763891352
0,225154354418272
0,230749089890615
0,216512304693103
0,231306785953401
0,19764336880908
0,272893757872286
0,238857282988241
0,221231525626248
0,232968589605081
0,218592168218403
0,234508700262739
0,219213348201414
0,231541317163226
0,232725493963878
0,21976419915058
0,229703051928387
0,221603455031294
0,231216943291519
0,224692305894858
0,245063078589699
0,22107081010434
0,225582044318485
0,230044808423196
0,204090301790451
0,277951528911088
0,216151402400525
0,242081137097714
0,223518294908354
0,233565133915632
0,22095874771459
0,228792932648035
0,221826203906984
0,230936941932848
0,225653894309982
0,229352414277957
0,227428695563383
0,221233375181695
0,228133472357654
0,215555683234078
0,238649230453847
0,229801408368419
0,221721582683796
0,225170738600314
0,224709015394022
0,224401805963654
0,229008713562347
0,241602943878687
0,216102233531784
0,231515905063257
0,224180928296548
0,231791546468922
0,233686956786656
0,220499149139395
0,223243302310463
0,225295995336258
0,218768000653073
0,229897879104747
0,215582230704199
0,247693665008253
0,221777179556928
0,227379444511819
0,220891227066382
0,226102823487186
0,218068957797649
0,226662812761891
0,219181932559729
0,227443167621747
0,222085438443005
0,225738096334904
0,224658015036927
0,222765768291451
0,231542744724398
0,227296311453227
0,232940064791126
0,226874467984899
0,219796857327874
0,225611277680455
0,219567326935575
0,231556425531457
0,220727532141256
0,228162209599794
0,217198249265886
0,226305400707434
0,210905885136441
0,240124776963507
0,225206081495816
0,219861301988601
0,226537879636356
0,2134879065192
0,226029472863677
0,217225439711491
0,218490429093329
0,215592601692572
0,222937327767894
0,215578559046012
0,219803081592596
0,218760019427293
0,218900419317061
0,215985248628912
0,219595366784345
0,218775098394242
0,217696900946537
0,21719656848122
0,215997936889824
0,219150811427823
0,214904605079452
0,216039776126946
0,216814918242281
0,220662278175947
0,227813008054297
0,222337530317454
0,223602789865882
0,211618785293252
0,225591255488725
0,211801768585052
0,221292134583641
0,211464578978275
0,215806301967564
0,217196531343305
0,217738018998086
0,216164206406671
0,215374402105319
0,213069088210829
0,215974676067578
0,212595626317364
0,214515563665715
0,212468102904928
0,215338226729499
0,217954238201152
0,215789969923997
0,216961426071199
0,21832733956634
0,219786008895711
0,213149024376824
0,218711387627473
0,213919284892798
0,217216704880439
0,213764458762469
0,217475347177073
0,215362850073266
0,212634002003738
0,216935034421931
0,213763187932353
0,214477284032366
0,213756187759657
0,21309888879922
0,211666037733334
0,212528325782907
0,21477084091048
0,216280603818742
0,211883825390759
0,211710973118099
0,213007778495082
0,213423521926728
0,212449730536829
0,210230759204451
0,212977191241241
0,212320496278515
0,211138368509262
0,212952230564635
0,212899780399915
0,210788513649238
0,211871748287939
0,210202807496267
0,210755942140848
0,212289376105379
0,211071109571915
0,211471690600985
0,209924286335554
0,2110426302671
0,211703583152617
0,209933627917627
0,212052913040346
0,21066984595653
0,210153805193395
0,211420164915566
0,211185784183655
0,21223123957786
0,212522068213555
0,210648713771852
0,21282653170568
0,210972341096022
0,211063207711409
0,210782135658102
0,210614303496807
0,210067206084771
0,210968870009921
0,21259523296424
0,210954622670863
0,211196725934493
0,213557635080518
0,212691510244178
0,211285281658444
0,211321539597932
0,210960023677997
0,212919096181486
0,210658701815954
0,213346662300891
0,21222974617475
0,212484454521428
0,211710073394832
0,211637081921704
0,211733273231485
0,211450982572302
0,211221125080375
0,212049089119304
0,212468834431527
0,211231251275708
0,212276504629699
0,210475557985368
0,210296255146438
0,211489088702197
0,211889411455795
0,211280183527659
0,211882888392267
0,210972659770647
0,209898609798419
0,209507743662655
0,20854762117132
0,208329902059046
0,210904245716856
0,209815459396405
0,207845411665174
0,209018407182165
0,208197277202453
0,209562832386783
0,210463750013988
0,209329185322855
0,207759141300899
0,20910214220528
0,207943237142696
0,209177877722696
0,210834613145892
0,209265431052505
0,207885188774852
0,208905538347136
0,208775608840348
0,207458750320064
0,206982078194717
0,206863249074178
0,206231199026837
0,206418085146986
0,20577358620696
0,206109454719394
0,206218080248223
0,206367589387296
0,206505191360788
0,206596835704264
0,206020757695997
0,207576754238229
0,207433840930535
0,205040617733661
0,205556943322572
0,205915496403379
0,205920480577279
0,206614751836777
0,204795982866755
0,204448115200609
0,2039083877398
0,204801821107866
0,205073851950916
0,20359646411578
0,202558958263911
0,203395043142784
0,203028926172197
0,202458787908725
0,20344625007753
0,204422040830642
0,202530756021802
0,20230587196256
0,202149026186331
0,200323178445272
0,202139207969105
0,203542321327493
0,204045303759388
0,201335014960491
0,202461477829273
0,202307581979182
0,200757587955176
0,202888026331354
0,20343102710386
0,202260320175584
0,204574668437647
0,203354762340372
0,204926911113616
0,205671630632939
0,204566335232725
0,206917178200725
0,209766840588506
0,210837252655174
0,210993236028968
0,211216739012351
0,212544493219287
0,213628382096457
0,215045492857587
0,215412592048034
0,219006756787691
0,219751378498116
0,220580802589831
0,222670960983931
0,221766987186438
0,222784780288562
0,222538594444484
0,224792871391162
0,225561652574979
0,223491165388518
0,222872325130528
0,225471432258596
0,225253845651714
0,223781951770276
0,223653421865823
0,225393493229785
0,224031224678679
0,222921475109008
0,224229932924084
0,222208473427547
0,221720576115037
0,223473562622514
0,222713100042817
0,220387487005687
0,221340987965896
0,222654410946293
0,221407801385001
0,21996738980368
0,224115553378179
0,221877700884776
0,222266335139362
0,22363256272676
0,222444958551114
0,221934387196436
0,224769249701966
0,224811146360751
0,224258557833644
0,22568056466577
0,226409208793141
0,226321817949239
0,228190358382733
0,227821552683143
0,230878020095384
0,230105521954159
0,23070468648362
0,235693682789463
0,235811971234375
0,236052407186583
0,23979720248162
0,238977582368103
0,237835442262198
0,235967100767183
0,23596920238206
0,23848438463236
0,238509563463559
0,236888650585467
0,234688094168175
0,234946127083384
0,236717649653262
0,236132450281904
0,23359204156136
0,232875469303647
0,231730104345652
0,233181173563634
0,233325823930467
0,232518463631102
0,237876771129097
0,236901970481433
0,237175588132822
0,241450434713595
0,24232422148075
0,24434213102475
0,245082938708514
0,243861553961688
0,246008805426868
0,246663955206921
0,247445798686815
0,249581905544524
0,25007839846946
0,249927048400907
0,25195202443828
0,253684247598467
0,254754672357154
0,258409736070777
0,25755285525193
0,259961569737669
0,263781502159567
0,265225633019692
0,264889041725976
0,268029398720153
0,272115727016714
0,27172645672568
0,272489781916645
0,275533225585494
0,276775261118098
0,276840100415943
0,276820602098888
0,278628649690127
0,278148330691533
0,27681563601893
0,276737378137766
0,27715249428596
0,274583591222315
0,274792483693998
0,273385439502358
0,269482923581487
0,267581748874865
0,266529940494972
0,264881548477336
0,263863382157978
0,267043133815147
0,265533082676113
0,263319864109889
0,26333114805886
0,262649783911522
0,263913685759289
0,264418860688375
0,266430318555124
0,265506330402167
0,266780910063342
0,266241994930527
0,266624063163682
0,269033322509621
0,269717250497222
0,270812412187531
0,273852685776729
0,271828541408333
0,271402238164286
0,274814157802631
0,277453263423709
0,275863183175108
0,275115526425959
0,275484444498515
0,275656257585556
0,275268855105012
0,276825855607813
0,277461140072613
0,277136381460454
0,276606675213242
0,275306743517102
0,274660392974776
0,274463111428128
0,275378826145903
0,275633033061301
0,273684636466493
0,274141402139366
0,274667505724614
0,271886069156623
0,270233496355919
0,272581796764242
0,269510846882183
0,267961116868528
0,270622417792958
0,269116470014526
0,265895165696689
0,267794664190992
0,265921646718591
0,264589244548992
0,264730667700401
0,260674410221061
0,259450748875024
0,257452545219607
0,253678153051881
0,251791962288941
0,250310273158785
0,251820949909971
0,248738288908783
0,245101306903812
0,2481662446578
0,248416024244652
0,243118229421719
0,244414547504949
0,244753539154797
0,243333145536322
0,244426176458406
0,245242035476132
0,247200508046451
0,247086892061584
0,250433815081881
0,251657301788793
0,249187232217382
0,249433725601854
0,250226166454247
0,250621368185515
0,250548056711249
0,249013367463549
0,249680445255161
0,248774712645094
0,252304609525766
0,250501285526269
0,250493666960298
0,249307328948789
0,24914688954895
0,250379852537553
0,249831145278733
0,249295684282718
0,249629865568578
0,252073168972655
0,250770021429055
0,2522741316331
0,251028474173141
0,2509388966294
0,249987630566767
0,250900988353115
0,253141773511298
0,253792475351184
0,252805306040814
0,250202002188522
0,250733689191422
0,251368309485159
0,254268368836813
0,253831828843274
0,252734949556196
0,256420861788515
0,254404695498096
0,255360673913666
0,254735460093162
0,257380912368558
0,258891387773068
0,258869582037009
0,261496879333517
0,26201909438868
0,262385312153395
0,263257871264119
0,263901339773654
0,265087717929804
0,268113506400825
0,265605700618433
0,266128411896031
0,270467870776797
0,272849768279751
0,276693877818748
0,274681250733711
0,273649646889568
0,274831895741137
0,280497253909827
0,280603854185194
0,278298679222544
0,281936000652725
0,282532900103908
0,285299104274787
0,286778202338504
0,287262966191556
0,287532256977612
0,291710196222681
0,289865268108965
0,291646265381385
0,292848921918673
0,294041332154552
0,293914904886053
0,295482487121131
0,300889973974094
0,30180972896166
0,302009056366158
0,306168744854013
0,30877961133045
0,31056682605226
0,310734382183733
0,312262385387739
0,312682129034335
0,313904011987307
0,316623827290219
0,319152702360881
0,322297476383936
0,326452668517803
0,329473331163089
0,331529272039865
0,330704431953449
0,332566304270132
0,334734321412162
0,337757150474656
0,339554868423196
0,340608795457684
0,339191326946066
0,343612211203741
0,349361159207939
0,352612636537259
0,352346284278545
0,35259424568298
0,3546189438636
0,357563287835295
0,363395872708013
0,364713221702254
0,36441950450702
0,366972380283933
0,368876319216137
0,370332485783888
0,379686757563797
0,37717267509948
0,384187085548535
0,386231619810636
0,38584435729304
0,392837229895918
0,391509976089946
0,401504213711007
0,402986898383667
0,393860425170861
0,39939645859804
0,405249187857063
0,406729047861302
0,409374556417667
0,414575733110814
0,421387459725759
0,425752086707991
0,418931241657661
0,429312683937368
0,427059254589202
0,428035904847784
0,435020958363503
0,430642064332717
0,442163729409713
0,44641883287729
0,445088472668976
0,454955971277386
0,450831449701627
0,448331583939879
0,455749818986366
0,464071817599764
0,452770963774715
0,469002672632821
0,474288059314847
0,473388320203575
0,475580220266142
0,475857171769083
0,466904571229837
0,480899559753445
0,486565346785393
0,486244859195459
0,4901756442756
0,490524809918608
0,506531660268806
0,516932291325358
0,503947688404407
0,509984074210542
0,52073580407845
0,521646210988391
0,532765853058372
0,529240824581137
0,526197742194778
0,529584783993056
0,536069451277346
0,529575934438302
0,532075166697115
0,553738069100519
0,5597816298602
0,551626760152917
0,546919156304792
0,552686221546985
0,557703066308478
0,567208863483548
0,577858548558581
0,575735528539502
0,56854660490388
0,573871296641386
0,58716423700304
0,597607255160444
0,598133418796518
0,591543445211063
0,585345653788924
0,596438392752392
0,609972717832524
0,619195233292738
0,611661042046504
0,625858044059403
0,616362824924347
0,62163552883839
0,618256659733558
0,629301187002581
0,618327387964093
0,643942431426355
0,635381403115855
0,633404077454988
0,635468680223939
0,661990423632237
0,653680716624517
0,643657410821195
0,660415403237097
0,664704853184988
0,658976145686775
0,656980764695092
0,673651844313853
0,671738412130308
0,680216785346026
0,684364628202372
0,679957429423572
0,703639450401943
0,681777147826488
0,695735585429288
0,703278810645228
0,722136302127869
0,724545613290728
0,725926209129601
0,709248606576155
0,736523810980028
0,737923930181937
0,712951003973952
0,704691856678553
0,729051945441418
0,747374685894127
0,7823365643767
0,748750146340152
0,744819325713249
0,771633002778369
0,785306305649651
0,773997959708676
0,767091945184143
0,741775373975356
0,776270183515117
0,755473419370951
0,787521870779487
0,812064994125208
0,788937496822589
0,773654003289585
0,788155481464493
0,842111890016196
0,804985476138516
0,803053463313073
0,807899664898328
0,806508499619527
0,821661824863457
0,81652060912518
0,867028193261804
0,80969088796741
0,853925650584818
0,854743562648167
0,870971647284182
0,833320139017505
0,864081576417825
0,805496859427726
0,885841152710548
0,860533023074616
0,852050588214963
0,880179128584308
0,888437842542566
0,844727360901945
0,91121629852088
0,889205545832705
0,905915350782292
0,903742105863997
0,97865332653572
0,865366672817007
0,959224463331069
0,960087782696152
0,908936704760752
0,991076424720964
1,00970390316505
0,893223540956055
0,960428726086121
0,910809507416053
0,965343789730631
0,954355994674915
0,91502026396193
0,927293847263044
0,933104292775801
0,93234996322045
1,00211555768084
0,866934697422582
0,893802956681519
0,906614280365432
0,941747251172032
0,95636648812495
1,02824191675136
1,01697810083909
1,02964671358118
0,994518243045107
1,07205069318355
0,969201169872563
0,957771697467001
0,96154087914239
1,07079779441314
0,926249599188719
0,978151646232908
1,102529283194
1,0385475576558
1,05152739392708
1,08039227744799
0,934257724305263
0,977989776230806
0,964964677810793
1,13238470035602
0,998206089203349
1,04273946579608
1,02056932595824
1,09902852050561
1,06888861112568
1,13344939939027
0,957646664429173
0,965476597203236
0,953325348306909
1,01437974657643
1,15630824593183
1,05314544218194
1,08133082411829
1,27650552600549
1,08266781172793
1,05231165487115
1,12615042029105
1,05096919299321
1,01259172529939
1,15626076803549
0,962505539513326
1,38956723150267
1,20416107053914
1,12701172678409
0,907847009374398
1,06113095609623
1,27483710667217
1,36929199801823
0,917017558214906
1,33389226183617
0,998779962440229
0,934655946502004
1,15146863468784
1,19447667724639
1,33739790086268
1,22887258160221
1,30012915414208
1,17959267547076
1,01073633419915
1,8475938309882
1,40318260028498
1,74412984930212
5
1,64563958060565
0,816874368287284
0,990092431634143
1,4582372319305
1,18765199114248
0,929029364675061
2,18317886561363
0,914927119412824
1,09813615494908
5
1,07814653974662
1,37660784184319
5
1,2972114696782
5
1,03452570228595
1,78606298153286
5
5
0,971061582841628
5
1,32144548279076
1,36775479616974
1,68386535769773
5
5
1,48003895412176
5
5
5
0,531499804326766
