3596
4000,36533379555
650,420452594757
1
2
2
0,0174460900900883
0,0206915441169325
0,0165051687558254
0,013579543808937
0,012436112007231
0,0196975442254381
0,0210081269824874
0,0189167712806962
0,0154268514595457
0,0161107161349602
0,0165658293607805
0,0157846916775173
0,00869918859531381
0,0111980531957676
0,0159630663070259
0,0167914140688823
0,0171034087635616
0,0216531535653552
0,0184158571842588
0,0185943900927007
0,0109917766224964
0,0156706357060422
0,00879396614413857
0,0180632262762738
0,0179794400916319
0,0155290531592906
0,0112986070220371
0,0141992057789082
0,011630184926764
0,0160746057297467
0,0132034595449159
0,0138493292339385
0,0188964676278825
0,0228713122950855
0,0168918910946428
0,0208069599596002
0,0156431561800138
0,0199948479920669
0,0200076418710535
0,0165682678198162
0,00890430570337332
0,0159820128489044
0,0170603123026346
0,0166378392766919
0,0165536023814944
0,0223323001656395
0,0183467884789593
0,0148957312233009
0,0136733892001204
0,0130282197395315
0,0133938814471302
0,00795336518516805
0,0122564290308485
0,0205331795072945
0,0171935319629277
0,0149520875469056
0,016765559422575
0,0191844730248753
0,0210374128465774
0,0201744693734718
0,0215600961527325
0,021018376008982
0,0159581279076956
0,012556823812492
0,0148445694553421
0,0190923188322991
0,0135229657934299
0,0211296281085199
0,0141603275926347
0,0179966869962
0,0140404200031114
0,0195765227077672
0,0129291014244564
0,0173210736351227
0,015024064132564
0,0188438950689641
0,0255781186052064
0,0178135579270742
0,00974622826000909
0,0159722085196685
0,0138682282483963
0,0209886234391975
0,0089463139841447
0,014379060808653
0,0185934354405591
0,0256341600234583
0,0147792776001648
0,0156053737289799
0,0179382959831542
0,0190918207488663
0,0110620411609786
0,0150009444721809
0,0176372525399286
0,0127204077954788
0,0185228458098195
0,0202427915172842
0,014450863420246
0,0160413601064374
0,0102847134116092
0,0179385550108237
0,0105041745019652
0,0241136972621163
0,0202189151911355
0,0145864920480524
0,0206008893262852
0,0146301009460957
0,0104196778058964
0,0194580861187029
0,00911048549649637
0,018454977350961
0,0181202964399326
0,0199185839702415
0,0173426628074316
0,0120667044344508
0,0103407955661261
0,023034881596932
0,00940307076279958
0,0164005114416397
0,0125864332832055
0,0149182281986047
0,0147374993226267
0,0278109887918484
0,0124615028163677
0,0167119419058873
0,0106153445577535
0,0198029652652453
0,012437320118706
0,0112424721118249
0,0109420856862003
0,0188987599349701
0,0152777435543259
0,0170319057354789
0,012553294579597
0,0217571949610583
0,0164778492524206
0,0146306799476597
0,0108459847621955
0,0145517932053646
0,0186213764477251
0,0125379867666793
0,0145289688225154
0,0245491303256027
0,0122158529547906
0,0133617988869442
0,0133758227303984
0,0151508036410615
0,00956567698807955
0,0255420724374436
0,0133331081942147
0,0135516745511038
0,0144510991679163
0,0126418861212206
0,01454033803634
0,0202153515439077
0,00799988849566493
0,0183378992613139
0,0163367684789235
0,0215232890577858
0,023428100575128
0,0173145588646325
0,016691076265279
0,0171697567597909
0,0190584649769897
0,0196632847899292
0,0186785042867894
0,0147360962336618
0,0201898921894505
0,021029703806009
0,0164386526766671
0,0200397679770428
0,0180679126770383
0,0161065039967659
0,01028277805473
0,0231624861503035
0,0197992636153992
0,0185238651219982
0,0152906663124513
0,0196675039423273
0,0174125007957239
0,0161499571871635
0,0152607882703064
0,0162776661671446
0,0210060465424021
0,0155540541296514
0,011583266595893
0,0207321856867992
0,0170401149747636
0,0216933832467772
0,0193694696633047
0,0157250698987115
0,0209962693437784
0,0195803215774599
0,0140722343261661
0,0189033587651833
0,0123933985602486
0,0133678188470343
0,0243342545657719
0,0158839723911883
0,017114984975087
0,0196082814482333
0,0235651151472847
0,0183306940620726
0,015346786032795
0,0161866312437587
0,0121433642717955
0,0194012751589387
0,0305597603642474
0,0225333025867932
0,02200483430057
0,0255271252342905
0,0203370625296101
0,0184311484555615
0,0282168689383772
0,0166100080587436
0,022395276377116
0,0239387860929153
0,0172467856539015
0,0215889981867335
0,0172946039199738
0,0230824643882342
0,0213418306138149
0,0236034330875225
0,0260288551076504
0,0214264716837149
0,0204913540286445
0,0195121822820439
0,0196105958103428
0,0242476394146076
0,0252109878312387
0,0252289644205952
0,0257940470135902
0,0215344104182044
0,0219395299524574
0,025263301401075
0,0206069056871193
0,0230214847033644
0,0226770760525442
0,0239080411389342
0,0277622140109714
0,0264594479598794
0,019627742562865
0,0182875376665531
0,0257744882693238
0,0278161197926297
0,0303911393643689
0,0237457735643367
0,0249060586790569
0,023826826117758
0,0245648123654471
0,0251372237577575
0,0280855187662074
0,0236469256297048
0,0304191657028561
0,027811205381511
0,0248563663282837
0,0249620250960071
0,0249717235411763
0,0263757569494511
0,0274307960025855
0,0219969970140098
0,0270756180691498
0,0326823690819197
0,024669400151182
0,0249585357988301
0,0280476072183324
0,0281676728774165
0,0237071572810134
0,024350031698435
0,0330772678580617
0,0328201454638766
0,0303018876578685
0,0215154516043355
0,0270575335499727
0,0490017387045273
0,0352970291448334
0,0308734656967514
0,0306681588278388
0,0337359353296227
0,0334168517151611
0,0340881446246459
0,0265122833432426
0,0308195541922607
0,0264637093504279
0,0347281976471199
0,0396182696681299
0,0289040603135536
0,035902657640521
0,0305750962432346
0,0335178524932137
0,0347621516891118
0,034626718938074
0,0361325844661359
0,0368349538080167
0,0324242329110998
0,033106480805854
0,0413103742542309
0,0389742155670268
0,0389782767926817
0,0391024128476873
0,045597935715567
0,0435740180081805
0,0471239486990416
0,0415042180103769
0,0458910783057666
0,043634579681348
0,0474500567333435
0,0486054605129902
0,0497877034676455
0,0511452122951
0,0450939142138912
0,0496913355379884
0,0558567701060285
0,0553171364537618
0,0545191260737974
0,0576412536400338
0,060120571768952
0,0560859594565844
0,0571252410233724
0,0581578540859121
0,0666297586227117
0,0602027134903012
0,0612516083138513
0,0661965702176087
0,0667271050175905
0,0616029529884752
0,0663266108651519
0,0662001400676502
0,076080242573344
0,0754596521296622
0,08105935267412
0,0819788889491148
0,0889016784006889
0,0771282017398964
0,0841457384648041
0,0867077803057576
0,0939700035746151
0,0945622795167021
0,098221399594628
0,105305960609417
0,105580637191192
0,108604720254919
0,106880092294
0,107798333545171
0,110646907310569
0,109202786695969
0,119539507916481
0,126906723544836
0,138096366630884
0,132693005442679
0,136309241382777
0,134752716095241
0,133748329412743
0,155649336713988
0,148385121217236
0,142917494748882
0,155719052283457
0,151216691628872
0,163103794613544
0,166294896469901
0,175647142757016
0,178547970353405
0,181925937644137
0,175767844311872
0,187122359940677
0,192573483390098
0,20087220286971
0,195353301435952
0,2158511142891
0,215799858145422
0,209974463435321
0,209991322341558
0,227181690099482
0,227573828942046
0,238730552587294
0,237538378615998
0,243275730437846
0,233275476662127
0,246935218426635
0,244767462344494
0,25476542615398
0,254960123769173
0,254432667746569
0,257218344424058
0,268256809543747
0,271757908210584
0,283277697302207
0,278639793227179
0,288970704793593
0,289030576760657
0,293356234860119
0,299558845265647
0,297719569315109
0,309536931982875
0,31098341433049
0,307630616118746
0,32050711379064
0,323532452216512
0,335246291575398
0,319654862232303
0,328595572784554
0,334461582061162
0,331906914977368
0,327532217523685
0,342790827863965
0,343966163540528
0,362729297696639
0,369709047809051
0,375681503475665
0,359852806271451
0,375542125800193
0,359325595337944
0,370529325537561
0,36556354544474
0,36930669739074
0,376727672911262
0,388846538004872
0,392966938739198
0,405827392075544
0,410392282642529
0,402832509265337
0,390097968485808
0,410709197443406
0,405776535720283
0,40719088149112
0,411898575135498
0,432364831252201
0,423139657030222
0,428844159778036
0,417775559378002
0,435335880287141
0,429670044448551
0,456361603998777
0,448003980848306
0,442824482092225
0,436601035696826
0,461944862933764
0,449959284069512
0,462236436469051
0,462675479457691
0,461823022933197
0,474559454742569
0,495399590077578
0,483254918504096
0,486799780472489
0,472266946071663
0,484266230944824
0,475757917206718
0,49158095525859
0,487042645067334
0,493340108135691
0,505433327842666
0,521445679970762
0,503676669289082
0,531983914672101
0,528054792579429
0,540185199389945
0,539973110038494
0,542678857579605
0,49923357975833
0,551560071767229
0,520852757755222
0,542428818085044
0,558433630806523
0,580906909175527
0,560172225191889
0,572090015997777
0,562109416308626
0,602212219848177
0,565401135782735
0,57344545148983
0,599873298494217
0,604521280775107
0,587308503993854
0,611019353364196
0,57945269223054
0,603679714814124
0,601195714921699
0,618666877578447
0,609313873833684
0,629191638429376
0,596416693179276
0,632353510673957
0,632606380840762
0,65185516636367
0,661354215271444
0,667970005885381
0,637266831007051
0,669264313818206
0,638062560578407
0,670705464964437
0,659401928238282
0,667338740884576
0,672294118221928
0,678229442527219
0,665316040012156
0,697839414783917
0,681242687327012
0,704954101859645
0,720362093556161
0,705802167522144
0,695673946289406
0,758398797543837
0,73157583207158
0,740581324966788
0,720457088246674
0,744325440442156
0,734671360322753
0,747207408257473
0,700488514181786
0,707098303719119
0,738505176374513
0,77968582427632
0,742415763927961
0,751520495870638
0,76078573157705
0,797045918366231
0,765529750037352
0,760467435965398
0,796487789256766
0,793509120094569
0,800004414452939
0,820449233183057
0,796572465433348
0,804230097643826
0,793843075894653
0,817706998116984
0,784049669605532
0,826140882642877
0,811311785711346
0,840659862757155
0,807555205386181
0,853636128911711
0,868763827656106
0,873200941228307
0,851202430504271
0,84207787546939
0,816700735840262
0,866015569336583
0,86875475109508
0,896567271608043
0,857960804933422
0,902252750659395
0,880635583395076
0,935792607052202
0,921072831013507
0,919105120375156
0,908410626522075
1,01011276557224
0,936829742171481
0,903352737791632
0,9129212319557
0,981271093900445
0,936412136979262
0,954331101042367
0,954248977859975
0,957856650994477
0,945680538823157
0,935841059451274
0,935523236527756
1,01925372136273
0,963969423178174
0,998519171045032
0,976325991229298
1,00094917655597
0,979236548151693
1,01496383580214
0,952621181978559
0,976386738502143
0,938526096170584
1,00267359894873
0,978383030238043
1,06533791841172
1,03778076669036
1,09435854695886
1,02820524116611
1,07656409785425
1,08528883552687
1,05950443985541
1,08062555396807
1,11221810002098
1,00930321880138
1,07814447395079
1,05129854531388
1,10567374255014
1,07732148642782
1,0688981048391
1,04102805743214
1,14655990804059
1,13179520179145
1,22983646621727
1,11729934498418
1,10889744317568
1,10102336967396
1,12950351470284
1,12436002967542
1,17683161492491
1,12613845285386
1,12835377699586
1,12953326702583
1,15472354234265
1,07939235581203
1,20608797928037
1,17295841932976
1,18586246550771
1,22239100454291
1,19749488027951
1,15308909937659
1,21476064026831
1,23218072794558
1,24463033101081
1,20672993561313
1,27561137159694
1,17144027170378
1,2192378117546
1,23419487621297
1,26028250786902
1,20228348468866
1,28117815487905
1,21226168388986
1,27240431667995
1,24189095997288
1,2657132520789
1,23598364390261
1,30563792043097
1,3673774410504
1,28195719898666
1,21913695020978
1,36780098008514
1,22490897402158
1,41969663547459
1,35945470134141
1,31437817022876
1,30051316006425
1,35830858804308
1,28865268047518
1,44093823127183
1,35373080752021
1,34522799775325
1,28664552299629
1,30917366028084
1,32845326782393
1,37159337606029
1,26312978610678
1,38441263576937
1,28341435359944
1,40207990576379
1,4655905877344
1,41881003428762
1,29464659537563
1,35715559630817
1,37487446933578
1,42533544336169
1,44653725234834
1,47905271919094
1,38114352039708
1,47787172614231
1,45291024857889
1,41988596883624
1,35534921515287
1,43079173386188
1,3362378901085
1,39805472395446
1,33502305045517
1,4490815349212
1,50798408246939
1,46772861192657
1,40974884408418
1,50346818754551
1,42299803622021
1,50916694540283
1,42340864503229
1,44139755189248
1,37729155978978
1,36113925432196
1,35073124491958
1,39532694643672
1,47251182815038
1,53790655122446
1,40565205581371
1,59128098522514
1,62510393685686
1,55031157351407
1,55457269018757
1,58752254502868
1,41868424200305
1,50513839607494
1,44016083815842
1,4723272324603
1,42829032708268
1,63740686114751
1,49288728262578
1,48268358995788
1,41112868531767
1,42568152282584
1,36895511211431
1,48009768443866
1,52703290266503
1,46959477495024
1,46508812218288
1,50345298987809
1,35571706330155
1,56090963936909
1,44821727611344
1,46222128809689
1,4917006679587
1,53946325902896
1,45664856619631
1,63960586732037
1,50628508697099
1,50854235504059
1,48610497627415
1,59297809031795
1,44723639802632
1,38716087808726
1,46405498863022
1,63100087586098
1,48989280336193
1,53901698009416
1,45205860307062
1,63667040316767
1,5163426679172
1,44863386328143
1,41314833260569
1,70008409066247
1,50452920535764
1,4737987660954
1,44455156238824
1,52613566137824
1,63643268369584
1,4486378799499
1,47850466715183
1,56991174390243
1,4634375982707
1,59717865423036
1,45563027606681
1,50519350266498
1,44063099079696
1,59112162764941
1,50238830177634
1,43859265022603
1,47973411094268
1,53985110188911
1,42923439759564
1,45737161063649
1,40444391040719
1,48392437904315
1,49064715298238
1,49929996239637
1,61363057532733
1,62650553110311
1,46585786429594
1,49547621567471
1,52597240800966
1,53091691744694
1,49495431929548
1,52934875578953
1,47407984033247
1,48454635204527
1,3618346325926
1,43550716511056
1,38588933704882
1,50938663743725
1,46623018365902
1,56446979242945
1,51313568299835
1,41847746348899
1,48206161063908
1,52439478542471
1,52924740513298
1,51715983133291
1,44320429743521
1,46119735840685
1,51415226124841
1,55672594032615
1,44741077321931
1,53587635893873
1,41705480369424
1,47255783929141
1,43589017459578
1,523367183065
1,51411929847638
1,47550402590421
1,55500817685676
1,52655627291043
1,4387105313531
1,59913958927533
1,51140664985486
1,56886946589685
1,53241803092788
1,47181279208318
1,50977200716709
1,6216938393005
1,54464471195331
1,52692263749589
1,46032353365086
1,49788034995783
1,44729567936089
1,47252234100127
1,44802171196513
1,45050150877103
1,44199547568881
1,52371689566039
1,46945685285918
1,47507954144388
1,45885427003812
1,60840630260197
1,57200971960286
1,46615534721216
1,5469914853223
1,59162711433047
1,47235084282736
1,59517616553352
1,52203429997387
1,54911803282257
1,46509321973914
1,50393904111374
1,52001498508561
1,48312518079594
1,51301941363674
1,50029947348927
1,47350700684118
1,53480855330166
1,45815265560575
1,46550555624849
1,52656292044492
1,52030464219154
1,42735964044175
1,44504929186076
1,42583590274967
1,46917576181241
1,40944222018839
1,48275908466556
1,47306167467237
1,46884522601448
1,41168747106956
1,42436081008046
1,43050612635967
1,51589247774807
1,3742676269199
1,42383607305166
1,46815872156335
1,46662515952442
1,46087763029132
1,52807160506258
1,37760611891525
1,38592062902551
1,42972771069532
1,3672668402295
1,31912582743612
1,47131725877914
1,39366771811372
1,47007211303567
1,39504777176238
1,40623162059679
1,48018153886281
1,39392051260901
1,35396863436115
1,31952839516817
1,29909840008251
1,35022448855926
1,31743032148456
1,37053546597571
1,33707729534962
1,38359670506528
1,33424653137887
1,3140888223413
1,32328675589278
1,334500609674
1,27998274460961
1,27136477987533
1,22445637270808
1,24836706102065
1,32911822530904
1,37407628304515
1,26179339374957
1,2625558781186
1,31299486851256
1,26858432548116
1,22013185290275
1,27828682759991
1,26702307281944
1,30238659837773
1,23216572941194
1,25889981031353
1,26933170676757
1,23586419811377
1,22817635312603
1,25722959953079
1,22215447102142
1,19706652864558
1,1758495620627
1,20918895147208
1,24523606163915
1,22311154998631
1,17610359354351
1,17057389233607
1,12807981869135
1,14826560505783
1,13747659282359
1,15854169903636
1,15128664549514
1,1458547032928
1,11084755263206
1,13154135305857
1,13761414728688
1,14933309500638
1,11900518877672
1,12162100341763
1,09620493433474
1,08264269677715
1,07749543567679
1,11392926833422
1,07291620445227
1,0312572290605
1,03704276609625
1,06438945290676
1,03283683067834
1,03986870499962
1,03249686299195
1,04671502860415
1,03989261382488
1,01372777897273
0,99680473377196
1,02533422541046
1,02868670786603
1,01716049360083
0,996512975712532
0,980649612437981
0,961923455513191
0,969977403011947
0,969986919637213
0,945188770436868
0,92528671071781
0,96620207294065
0,952290974973642
0,934760538346616
0,926110736558735
0,932291388232799
0,909825730277011
0,915536584544019
0,921494683878645
0,903537322219499
0,889904379583191
0,888560201942127
0,877599582398835
0,871191721626636
0,849444273642412
0,854811917778907
0,861822435794065
0,865722010245989
0,852917863492954
0,841271180608319
0,824569107591219
0,823898192284417
0,815459233928741
0,828799744491026
0,814888298630049
0,815562373756881
0,800851033723745
0,804605670426002
0,782339950621178
0,796109993606437
0,80066933293646
0,773039802238234
0,772722966581642
0,767128260346746
0,756156845320119
0,76755345726877
0,755845430842472
0,747089964254845
0,745085446920873
0,733136824079329
0,70984421222071
0,717963837798401
0,71640606683956
0,710494316433366
0,704177175609863
0,706217209398841
0,699572506497168
0,696409919413077
0,697896769056945
0,690874941096353
0,670819773706183
0,680056698264386
0,666331024665114
0,657315553297241
0,659023953779876
0,64959607655223
0,641401251518841
0,642327587115992
0,645754573843353
0,6428841106377
0,637875100097559
0,629158739702609
0,623276674265831
0,620271873809155
0,611190690939266
0,621355713233359
0,592359249825671
0,587416310452374
0,60411648363556
0,594992214123359
0,58876219592279
0,591132308606267
0,584247531783869
0,576017342984517
0,571149741198732
0,567537729962885
0,55485489655558
0,561712036997561
0,551902812471653
0,553035285461906
0,546598156919588
0,547075396475668
0,540937714039486
0,523433350091285
0,526330262634199
0,533368161250376
0,52315905916132
0,521339711691696
0,513402496552898
0,509144557152263
0,504747351307147
0,502633896597663
0,495415345479633
0,505906059331991
0,499786652070215
0,484414860024088
0,486221067942064
0,484148012014342
0,478014004988149
0,478688304178732
0,476485883949737
0,472823972800705
0,460012198136919
0,456252612615065
0,45273123588779
0,449859868369268
0,449864173796835
0,454415245050802
0,446884026278776
0,446570183402277
0,438456209556553
0,433752711627482
0,433547229386702
0,429369108873583
0,424462644629205
0,421506564947203
0,414683512266146
0,424116521031725
0,415340972078685
0,407455287584699
0,409535180958487
0,406607244951384
0,400033408736076
0,396714852791549
0,392977593619814
0,39121594754643
0,39138600908265
0,387736131649451
0,379890148827627
0,384961542820481
0,377267504685646
0,373222946233408
0,370664164509785
0,369428225672125
0,367666734167475
0,362361472952357
0,360120767674236
0,358739979482944
0,355457089823935
0,351775431857013
0,345777323909487
0,348283680908215
0,345902445728872
0,343391406666744
0,3389378635971
0,34621104687149
0,341880060803373
0,336714816368068
0,332441515023218
0,332448676050052
0,326660873250102
0,323163419598097
0,322284812364486
0,322492093895589
0,322813018657114
0,318179466208042
0,312513154667017
0,312071869301115
0,311066998448995
0,311460805970648
0,305156149279361
0,302232568200731
0,298349358184044
0,293309004575551
0,295051101036705
0,294014880225452
0,288279123966558
0,286542998179216
0,287903410915627
0,291424571380414
0,281008940865012
0,283651216121212
0,282720794266637
0,275513653789447
0,274550963379644
0,275252489621392
0,269472063720993
0,273440949711553
0,268969315159953
0,265409674138684
0,26599876061926
0,263696560819891
0,260547645151118
0,258071285633118
0,257381551456707
0,257189248404829
0,253587403098801
0,253963377593508
0,249616450446773
0,246468585582071
0,247687745360431
0,249648674987172
0,244999748839526
0,238429274885218
0,240264900172334
0,24165822517156
0,238720484617409
0,239499115161301
0,233599014056673
0,235988555296458
0,23049198778229
0,231947070023636
0,232325757043395
0,223115283157618
0,226296902643514
0,233239427100468
0,221398271653685
0,22062071107949
0,223061600893239
0,221805113684543
0,219521282645621
0,215106280681071
0,213408909623114
0,218120748267175
0,21264485621416
0,210268003453054
0,208887767746955
0,210056499743691
0,205621078992831
0,204772886743033
0,207067339452734
0,201144729388601
0,198604439946032
0,203390295022391
0,202393875702609
0,199169448999711
0,192989652659165
0,193624574808854
0,192229862383745
0,18761931960844
0,189252782430937
0,191969048227524
0,185841560216131
0,192395387772046
0,187163077098811
0,182633692214567
0,18262934773542
0,18158351746929
0,181287319614344
0,179309936312315
0,176445427139822
0,175568480830639
0,172580375023569
0,17595788198428
0,174660754947143
0,173756171422245
0,173678620636871
0,172504408722167
0,172204743188923
0,172430038757821
0,168928002599663
0,166316366797242
0,166940328803202
0,167030381344457
0,163473069998862
0,161137684106032
0,162266746240574
0,159878914975708
0,156926862385916
0,158023858757134
0,158091899883463
0,158230434973796
0,154829005325481
0,152077363982294
0,152411409563269
0,157441065242827
0,152605251955545
0,152486029271062
0,152813164579404
0,151612490406514
0,149635147572101
0,149766319045021
0,147041852632798
0,147427145557499
0,147074029388553
0,145787694626164
0,145276181951038
0,14582201338153
0,143579058407936
0,142283233659832
0,140585293568815
0,141693072269747
0,138547454355995
0,138920090482303
0,13959653972574
0,136651149701398
0,135384516286545
0,135328159046256
0,132717933037157
0,131496043990416
0,130138422735637
0,129344965092012
0,13158243116505
0,131077354739152
0,127272363083025
0,129747817198978
0,127273367821296
0,125357314170664
0,123722409091627
0,123996582906441
0,123561949037428
0,122894520636021
0,119517831022394
0,122987260219819
0,121246388364074
0,120846721391584
0,119388791787182
0,118075182455177
0,118270172483973
0,118042009866881
0,116204215461235
0,116516421840227
0,113720717842949
0,111821327958496
0,111662083914916
0,114113240403038
0,11202119668592
0,109597331313696
0,111326720972576
0,112261969014316
0,10994658607568
0,109611537232091
0,107471845140928
0,110534492123327
0,106166065445776
0,103902023508747
0,106837316091244
0,10863463135842
0,108582310400336
0,104033410144608
0,100850316754052
0,103946396432527
0,103699364227624
0,103241609040132
0,102558691878617
0,101557991674647
0,10052400324602
0,100392456970154
0,100064966807015
0,103453587732723
0,100604767218391
0,0975571033775619
0,0966518947407093
0,097285054566919
0,098802196914866
0,0975489535254924
0,0986095068344496
0,0974082296061116
0,0949242365574324
0,0910598992845931
0,0912534202357989
0,0945966486156457
0,0903787812337843
0,0928222880153597
0,0921140721645571
0,0909696839809999
0,093409883932324
0,0934781913631223
0,0904619531620247
0,0899328270334815
0,0907970393275993
0,0904039063541609
0,0888133535540811
0,0902682756379922
0,0884939880536875
0,0883576199005394
0,0882396582769239
0,087510621606739
0,0865552051207866
0,0851561671964991
0,0850197927349247
0,0861064696906102
0,0850654651343626
0,0841200783422924
0,0829115461467298
0,0850674101014255
0,086314799142889
0,0867939757829146
0,0840148635638339
0,0841399050861599
0,0828329694167677
0,083181258510278
0,0823204247752782
0,0835456157366578
0,0834760027767898
0,0828446150136717
0,080550699057094
0,0798403505397973
0,0784528132737954
0,0813619216521813
0,0776670956722544
0,0785481913099962
0,078474277491305
0,0790346098286436
0,082148233620613
0,07838182612816
0,0745500067596254
0,0780201910328295
0,0788102811563031
0,0777224231318442
0,0772752186720585
0,0783655338220271
0,0768887695768092
0,075198367191146
0,0770252193148919
0,0775419899678146
0,0783756756722256
0,0791035096247737
0,0773034004815315
0,0782770599558193
0,0726107816259919
0,0736316189311688
0,0725913467659527
0,0730684763558553
0,0731271167649065
0,0740512147368649
0,0724329497466647
0,0713277590822027
0,0746304168572304
0,0728249539333616
0,0714552021076089
0,0727516059969259
0,0730284067811808
0,073474504881503
0,0691539663440563
0,0705444220971163
0,0681495908854159
0,0701118102478029
0,0728785179673598
0,0699723149870255
0,069778609890605
0,0703313049946782
0,0682501955233126
0,073131722534245
0,0724207902802859
0,0676809745571309
0,0688562575592143
0,0706221801235724
0,0689626685736639
0,0656213608701862
0,0658133238530701
0,0687144699693013
0,0646779142805959
0,0666241422446543
0,0705831781832521
0,0680358117742149
0,0672675817335448
0,0690994850367346
0,0660798292446258
0,0672068698234358
0,0662799617069775
0,0663449504295221
0,066475563621806
0,0659639535828294
0,0701667881177537
0,0675316105111373
0,066946841264368
0,06630867853985
0,0630507045578076
0,0664765757417783
0,065657964214457
0,0646590867196729
0,0610895669439574
0,065558460726769
0,0676064906513645
0,0646097495097699
0,061643070526286
0,0646817537187161
0,0658859012943594
0,0643755459238161
0,064093395762747
0,0634220075368191
0,0637018231926582
0,0641608722981397
0,0619622730675036
0,0626416703642052
0,0619055465115798
0,0604112737855955
0,0605225482269084
0,0635588838657411
0,0636610318235617
0,0628559223438373
0,0649594221828528
0,0626926131787019
0,059864042561501
0,0610136000923484
0,0624264724008803
0,0639455723227302
0,0600127357715959
0,0621510669718246
0,063151287111288
0,0606864690033759
0,0593483436335508
0,0621292880893808
0,0603887491461302
0,0629929744738879
0,0613222629379256
0,0634524341178757
0,0617198055557761
0,0589234291662659
0,0611643436975696
0,0595840231764184
0,0591031202581075
0,0629046872416726
0,0631403068279131
0,0607750847503521
0,0596967372777555
0,0601712049650773
0,0581896184182715
0,0584883601692451
0,0614158336244619
0,05969971389165
0,0559581636405247
0,061130038748649
0,0613167798188804
0,0579754497414135
0,0559265875551446
0,0573015206716079
0,0575524301728029
0,0568315075575752
0,0573361002024571
0,0586379133444711
0,0572588719477943
0,0581175521941551
0,0574862155613242
0,0578424474179113
0,0573981100185467
0,0582878975308063
0,0571214100402983
0,0572586419294012
0,0588538162278735
0,0611423297145725
0,0570040204564952
0,056464822014649
0,0590637704500794
0,0568047139835063
0,0559272046497328
0,0587451611314983
0,0576665341693005
0,0580204738163823
0,0568031371078938
0,0572853830813099
0,0576262213338321
0,0584628617030311
0,0578079466882389
0,05839835266038
0,0580034113106758
0,0573862697087817
0,0564780350089301
0,0589263071391353
0,0578854008968444
0,0567456547938503
0,0585757137134174
0,0575975910030049
0,056545078834055
0,0577021740558279
0,0557696391635036
0,0571555071359822
0,057248107776224
0,0565194663772643
0,0543994407781323
0,0560700456028562
0,0557649155767586
0,0552877693406847
0,0592856718783528
0,0572646944142469
0,0533506587423035
0,0577920483692764
0,0588826213467959
0,0590306344306813
0,0601015067204301
0,0586929279553584
0,0560457900017785
0,0577753762977285
0,0566103601521794
0,0559986273076563
0,0552070938159567
0,0553962520614752
0,0552761683399755
0,0570358354245307
0,0549175788077341
0,0553630181274663
0,0564731489638013
0,0585718980093605
0,0584665860062846
0,0577687647692969
0,0544165969675456
0,0582523742983098
0,0582518701098012
0,055653510311788
0,0557890382011089
0,0582113362679273
0,057912752210341
0,0570310336538619
0,0569400710066841
0,0588505045314983
0,0572716696970122
0,0585264434449319
0,058466781846993
0,0565075465059254
0,0583204056084081
0,0571807959602664
0,0577237443414213
0,0589337933064792
0,0573495254688866
0,0580319243259496
0,0564407203032682
0,0558721977388303
0,0575753735674314
0,060742815491492
0,0577548468326763
0,0579743602461311
0,0579411954068701
0,0581862113375352
0,0570161142360935
0,0580958302884474
0,0579791189279877
0,0579306536152639
0,0560148849173124
0,056807794299884
0,0591973003998355
0,0583323548133444
0,0573699982353676
0,0602102960579823
0,059616014009046
0,0605245511829841
0,0579176486294179
0,0614885255524615
0,0614234816230853
0,0573818915870368
0,0567858084185553
0,056329849954792
0,0590039625930515
0,0613165883123144
0,059430698102488
0,0591050951612884
0,0588545741779608
0,0593383833990219
0,0574185018141401
0,0595585402527564
0,0594388100761035
0,0609320940425015
0,0601210774612635
0,0611374210210318
0,059960137265873
0,0587140818918881
0,0595437547022828
0,0593231015884265
0,0570625509278293
0,0592022104336435
0,0600618210013141
0,059707677785166
0,0560548090062004
0,0593102166295743
0,0592069933859043
0,0598897865323699
0,0611754424600926
0,0587113956479069
0,0588765756210687
0,0610585809533993
0,0614394979051751
0,0619477875578133
0,0601074153387981
0,0612771455630476
0,060470224100143
0,0603334439577123
0,0596946541196894
0,0611570425916652
0,0607901219381327
0,0627143511282242
0,061617844057204
0,0613994053880596
0,061119901720914
0,0630752795935737
0,0645339567845977
0,0620946497904361
0,0610186528157364
0,0643506253044106
0,0615266656428325
0,0616746698372543
0,0589557593389041
0,0605391279669053
0,0637572181352415
0,0600481006681844
0,0631254877670475
0,0617728549312129
0,061312282467109
0,0653016614041693
0,0632777217983854
0,061516431337139
0,0621043752548418
0,0646362451764256
0,0624327758044905
0,0616847068374171
0,0626388667207698
0,0618006437650515
0,0629457369772979
0,0648938731736036
0,0620709655056818
0,06383762369365
0,0646533009255878
0,0638587133635286
0,0633235489352442
0,0621805861498786
0,062857399495414
0,0628237290189177
0,0639218057732192
0,0662251937013925
0,0637843126674082
0,0626341322394078
0,0606242758184708
0,0636866191825762
0,0642626952017483
0,0666363158480581
0,065453130192626
0,0643148636553684
0,0637068376772017
0,0643664959160473
0,0642981198138752
0,0647596195101265
0,065181729543267
0,0646832723706525
0,0647870357816348
0,0676172822142478
0,0662735364895738
0,0682041496465076
0,0653316451637917
0,0647264428391126
0,0662895724825344
0,0672065792152372
0,0627263275454147
0,0651980583081303
0,0678900611997271
0,0681706903013467
0,0658020503312473
0,0640915784708821
0,0662166295045672
0,068744080684156
0,0676207693255192
0,0716956901400267
0,0685389816903916
0,0657095679723756
0,0680074025416407
0,0694032556832831
0,0650709542515771
0,0686453660100795
0,0695250469010381
0,0682107391072307
0,0674714698612791
0,0681282939677013
0,0710291716270848
0,0692710874145167
0,0664425057103405
0,0679502039679748
0,0674777925726805
0,0686991885062865
0,0704657319616528
0,0718315758333401
0,0696704264305881
0,0698638348497482
0,0700232433353036
0,0687831151967418
0,0687320799937905
0,0696051701218609
0,0698700923625106
0,0716478238309765
0,0701344012725975
0,0678614253890602
0,0704449038561688
0,0707921516348782
0,0726430706977694
0,0721437072323758
0,0708773231463982
0,0711022472999145
0,0709233630297542
0,070893733299819
0,0707860496749908
0,0676708184851389
0,0696645990004962
0,0725126456520692
0,0694239013413729
0,0716909965278002
0,0705283727158038
0,0719857223744817
0,0738957908549662
0,074595313996836
0,0744115506093051
0,0731118463901732
0,070630302752665
0,0753880450979362
0,0745606491112262
0,0732257553897046
0,0740510601022996
0,0733360545096398
0,0728774390188918
0,0756982880589979
0,0736058389750272
0,074737113428578
0,0741539558616224
0,0743876414608829
0,0749444420538178
0,0745145650474245
0,073739903513244
0,0748482381992083
0,0733351100200756
0,0758950052515735
0,0747009724583986
0,0750538266381351
0,0759961237138826
0,0766874480156497
0,0769575821156679
0,0752063467134263
0,0747621755245547
0,0785940842508181
0,0745741208680128
0,076079296041688
0,0802140928862209
0,0767350760909517
0,0744407709473843
0,0774362177967864
0,077943237272513
0,0776806923231308
0,0772815242926136
0,0747569302872585
0,0749748106999875
0,0812941864357562
0,0766356848426214
0,077099404145176
0,0792628120917173
0,0789190992018097
0,0770137120770979
0,0783556631782023
0,0796126692581565
0,0832242630511495
0,0797153639423566
0,0794386193011692
0,0782902308400563
0,0821530011336422
0,0802074965638753
0,0769356178611041
0,07845445660404
0,0838193100860088
0,0794644286642788
0,0823064941663761
0,0813755473212178
0,0830252716099211
0,0825861494540228
0,0827590525953617
0,0799263277886365
0,0834989846818414
0,0802750840128355
0,0802633751822556
0,0816437266268711
0,0837384461019985
0,084743091271138
0,0816993356827414
0,0816836021664958
0,0823928938809992
0,0796015776954773
0,0816625427491153
0,0851094154535867
0,0838645480244098
0,084477496388585
0,0830060414838262
0,0877659948076703
0,0848913007856073
0,0867775608971228
0,0823170843175798
0,0874978105331191
0,0838479180160202
0,0917503416849392
0,0835718976790391
0,0911876898134427
0,0841423883144597
0,0889925762688673
0,0854319346664826
0,0904090201747857
0,0854821958008198
0,0872927159239595
0,0863919724817072
0,0891036059168658
0,0891255876926921
0,0903449839375307
0,0885432985013836
0,0898338420287752
0,0915173691845483
0,0876535690209124
0,0890601791016871
0,0884784797396779
0,0894087550136965
0,0914721316564665
0,0920586600190817
0,0921162079875596
0,0911915945529428
0,0915302723703694
0,0920898220491672
0,0900723414238612
0,0920698730235062
0,0935497837190757
0,0912418100499886
0,0913634448186675
0,0931135945192105
0,0936949298643534
0,0900925204188347
0,091431187984489
0,093672017764875
0,0942948931849453
0,0932027196647817
0,093728062340746
0,0931910332957975
0,0933102156503743
0,0938655350674202
0,0941028537260027
0,095291595660768
0,0946584851349189
0,0959797838667476
0,0951271711271724
0,0968024522131241
0,0975057609723323
0,0971237301880384
0,0987456161819803
0,0974647941427382
0,0996456055747512
0,0983382137654919
0,0971759276830088
0,099629719908081
0,0980618145612201
0,0970595921584196
0,0976350545929106
0,0970541586220689
0,0989148463143002
0,0988371748987186
0,098916354022656
0,0997579197653228
0,101588030269176
0,101520173989631
0,101585643698429
0,100860738002817
0,100619196014955
0,102478966693087
0,103208227437922
0,100516244211708
0,101370746808459
0,103879632121138
0,103819128390615
0,103982912141788
0,101597618968222
0,103009787379625
0,102999613499634
0,102341091008581
0,103700096686631
0,104112974202071
0,103118098779261
0,104425886058564
0,104678533808763
0,105312697269517
0,10421242700463
0,105717700821544
0,108939043018889
0,105468497940539
0,105728684059908
0,109291998096393
0,109140274301659
0,107613436626063
0,106770683862843
0,108622121869652
0,108753504701422
0,10922488266261
0,109281992940736
0,108621366354945
0,11225338787735
0,110833461390707
0,110639611385597
0,111240142439101
0,111469783960591
0,110042301060226
0,110559329735308
0,110831193203611
0,111831727708601
0,112869890471386
0,110628932478179
0,112297254204343
0,113010490817381
0,110971728287883
0,113472409568074
0,112313957502787
0,113107743178152
0,114738820633051
0,112846130430235
0,115475441309552
0,116090448952572
0,11690391567864
0,116923326846468
0,117718079040052
0,117025534784634
0,116876111653262
0,117794343124828
0,118204930339523
0,117312783529898
0,117098515831148
0,116692902461643
0,118151146748019
0,11715369765506
0,117468490514688
0,117782008050605
0,117674594769074
0,119317111155838
0,119042881340086
0,118682196595348
0,117725477446479
0,120996455561821
0,121596079712777
0,120366135578003
0,121608996421319
0,121952753506558
0,121957932610863
0,122570159531297
0,121879778210699
0,122490185546938
0,121599497399778
0,122807223143746
0,122446584841375
0,121702836229209
0,122497896213987
0,123828924349272
0,120395684609124
0,12356441215067
0,125169366336107
0,12245426162882
0,123759783121974
0,123238912863374
0,127424994398213
0,126222530762892
0,123210976580313
0,12638843353823
0,128521820473023
0,127862913047756
0,127422467467521
0,125885864769335
0,125485960353392
0,126238883410621
0,130049065558938
0,12716561550527
0,126006618070725
0,127952648974432
0,128075640779611
0,128469434920982
0,128697723551739
0,128318789371778
0,127844773048794
0,127679124165561
0,128499178356437
0,127068587182448
0,128066444584762
0,130260158000253
0,130101698665193
0,131582932299094
0,132252571414902
0,129764879440374
0,127621006616684
0,130225277025969
0,131156421636538
0,130500242205135
0,127324202681476
0,130843173093105
0,132387589308996
0,128939608166884
0,130771282106096
0,129512145958296
0,128459082320274
0,1301075634835
0,130540102098684
0,130679287623661
0,130327340911736
0,130935162037059
0,131352006095725
0,130797264534421
0,131064535634145
0,131095789515971
0,130364504925631
0,129266157703237
0,131456472317996
0,130813562088344
0,130494386010426
0,130829432938143
0,128561207592785
0,131474764971634
0,131193688481885
0,130855155631052
0,130154579138518
0,132180734715196
0,132247777444864
0,131066847558841
0,131437600782875
0,131063293649867
0,129315465499759
0,130353994523666
0,130555572457751
0,129176364304794
0,130479090964695
0,12951488145297
0,129390129691089
0,131028896489258
0,130693827664995
0,131378699380486
0,130977045153813
0,127195967096407
0,129519294463272
0,129832189126757
0,126952891672905
0,131054521863184
0,1313619433597
0,131338463685562
0,130466391267786
0,128987055898049
0,129304262633919
0,129299854413718
0,12945049338591
0,127900272297066
0,128808191950968
0,129621934017846
0,128750998491256
0,126922088428187
0,12774512989913
0,127017305802236
0,12726290922377
0,125223502524044
0,127735727824202
0,128973741902885
0,12721101188482
0,127370860215368
0,128090007251521
0,129289045230434
0,128404847470421
0,12701059923572
0,126662989382723
0,124616395396976
0,12521838556721
0,123954219821911
0,125501384342631
0,125926341494249
0,124605319976458
0,124685679313505
0,124658381230407
0,123148742787008
0,122401159383686
0,123962528530164
0,123082447746914
0,123108540092976
0,122936974987237
0,123917885626465
0,121159981065262
0,122244259768989
0,124182807557167
0,122520207545239
0,122897426566964
0,1204825006352
0,120751706442754
0,121390700294457
0,120451399466323
0,121872679249315
0,123007100745446
0,121530633309894
0,119030827936813
0,11872013190632
0,11835477986653
0,12068867552373
0,120495011339415
0,118436452865716
0,118020882518072
0,11705127451554
0,118913175862178
0,117946919773406
0,116220935598199
0,117630654794262
0,115610021628065
0,114741969357852
0,115621060282055
0,114851953825852
0,116467595680231
0,115233150314058
0,114605991438741
0,115514812456911
0,116417456472669
0,115898414403696
0,114517921014466
0,112390895211065
0,11213156624003
0,113168933996471
0,112470070131605
0,112600506305832
0,110122205628517
0,109899175021806
0,110765794320611
0,111479613066595
0,111045933486158
0,109319144338663
0,109680856274812
0,109113733508165
0,110234859992498
0,109524069088308
0,110643855940592
0,109559702620188
0,110084624050604
0,107278813188956
0,106853076035045
0,106596400781353
0,10812853506645
0,108042983751166
0,105497460315129
0,104484368008421
0,104555405970469
0,107493654383194
0,105028199747491
0,105868623791998
0,10379250039732
0,103292422008658
0,104916708625066
0,104435590650918
0,103359369921585
0,103710483882603
0,10401646830444
0,101682510889713
0,102111313518601
0,101976806744432
0,101512487745381
0,10263674896788
0,100030970027072
0,10137798819117
0,104122608616592
0,100922753733699
0,100280944129832
0,0996084749079854
0,0985761647628016
0,0985973420059415
0,097243396065193
0,0977277605437017
0,0984341122179844
0,0972333910002311
0,0960286248816924
0,0969895050075782
0,100202031859713
0,0980856761086287
0,0964300776701569
0,0963688700955333
0,0976799507481284
0,0975462969370213
0,0965458057484107
0,0947185711599568
0,0965454970931758
0,0961516561033343
0,0944307607861605
0,0950881047272071
0,0951513529767643
0,0960439609518176
0,0960354058800468
0,0934179511529259
0,0918803329991784
0,0921601198541053
0,0935188417108132
0,093921444602379
0,0923749792792368
0,0917924499873764
0,0915032672939725
0,0912746421678294
0,0901037364020143
0,0903089282930505
0,0909103718240041
0,0908682374026518
0,0894845864834669
0,0902809825227583
0,0907289055423809
0,0900834500739837
0,0887342318858833
0,090645789977566
0,0906227130586931
0,0897735960611628
0,0883776491933585
0,0869029770223219
0,0871616970965051
0,0894982630164876
0,0870610848772696
0,088673549444612
0,087723094796776
0,0871754195836859
0,0902714964991887
0,0873207922580535
0,0865769044124871
0,0851367172362049
0,0862153273526618
0,0852317674973095
0,0861838193731499
0,0871013037107398
0,0870808707092926
0,0858493202571877
0,0852363988522915
0,0879905829885801
0,0852889890483238
0,0841106480032416
0,0851215817900551
0,0839096876550935
0,0877457960520703
0,0873055051635982
0,0865454027736792
0,0836668254142257
0,0854350620064502
0,0846304901823003
0,0824455793569883
0,0839982802241866
0,0850636904907838
0,0844651195229898
0,0814906527588791
0,080930049642997
0,0832311149470693
0,0835408131316845
0,0844083390399688
0,0814021492676477
0,0818687454097171
0,0838033838091246
0,0839494915216172
0,0849303337168875
0,0843794047762844
0,0839308479719963
0,0839141372128003
0,0818986239779233
0,0801213035795055
0,0794260133626029
0,08074148298496
0,0812682064248096
0,081838312386477
0,0813043115104514
0,0842915567478335
0,0827259159242154
0,0813739071800749
0,081243423249009
0,0803616921972254
0,0803264751524077
0,0805207973100909
0,0797447195065932
0,0799934988977629
0,0814705405955741
0,0819754413567255
0,0803132647885534
0,0809386562544846
0,0817850033876219
0,0827594630923087
0,0808286884287893
0,0789528235252567
0,081482068745158
0,0819740418561505
0,0820356884310614
0,081481546602142
0,0813011625416555
0,0816818470135767
0,0808701032574431
0,0809873836223089
0,0807076247702355
0,0792353596798862
0,0802902786459366
0,0827013034792251
0,0810197127212178
0,0800061484634773
0,0798370052047381
0,0832063141993729
0,0811257766000783
0,081772656674265
0,0821888225510163
0,0810136886690635
0,0811947436343826
0,0822639437467719
0,0821805307050588
0,0827350852298763
0,0826186524337389
0,081347980682406
0,0809733716891421
0,081259999824903
0,0815127862219468
0,0809142557080205
0,0813022241595363
0,0820566497645049
0,0825596994767222
0,0816900239843999
0,0837459225886504
0,0815855289968048
0,0811917940542691
0,0810449275790207
0,0827743631578848
0,0832901394112788
0,0815676523773075
0,0828076102217093
0,0828591200591216
0,0840865939161911
0,0822030501380084
0,083866049198639
0,0830485453500348
0,0816252040304636
0,0833490118903681
0,0867005142555087
0,0837315181389445
0,0825698375492468
0,0851907663382878
0,0833460989281234
0,0849841498641468
0,0845913187979797
0,0853612808279393
0,0869014834027278
0,0864967254938609
0,0887084035205429
0,0860319109440929
0,0855657605203962
0,0839363522450823
0,0873704518809772
0,0846696061715898
0,0854335605877882
0,0868935113088287
0,0864615752671915
0,0869672195262204
0,0860503120418542
0,08784317399196
0,0892749173522518
0,0876391389236731
0,0909105433418313
0,0873946490823522
0,0902092950748219
0,089886074224821
0,0916860194830057
0,0904290428682399
0,0928433954066889
0,0904880112371792
0,0925621342128314
0,0934882733654203
0,0936382772139596
0,0920905927190085
0,092778590629185
0,0928046888938236
0,0956907217653233
0,0939511469220185
0,0963227099813565
0,0928408923555185
0,0956295723956922
0,0956514882593907
0,0953745281856499
0,0981029256416227
0,0961199713374497
0,097625918862682
0,0998827092980064
0,1006379098384
0,0996271919357578
0,100072955484292
0,0999953081474048
0,101440187365058
0,100845641508848
0,104524212632174
0,104408410717209
0,104973860521326
0,104294587690984
0,106699917006393
0,105942926393016
0,109319971745194
0,109437608009541
0,108864420290236
0,109411740685291
0,107031788647864
0,11276077808561
0,113376753471162
0,110552160931021
0,111363102261086
0,113921069191049
0,11397037785812
0,114150321952034
0,116992464089023
0,116229265282379
0,116355828926881
0,119094072176839
0,119185540172592
0,123528174277888
0,126038806997794
0,122970860646136
0,125119043244231
0,125942418614185
0,127610065155633
0,130218719636247
0,131666864009235
0,129647150803276
0,133250796105432
0,134589252290961
0,136594072144507
0,134538357064575
0,137397424487621
0,138986783888118
0,143844345192308
0,144141973147911
0,14299002514336
0,144500413126706
0,151512511633809
0,149206957690648
0,152109467400632
0,155068045829509
0,153359796981871
0,15793702308552
0,161370154933317
0,162018397023721
0,163594690757393
0,166082517732164
0,170134008106366
0,171879966430101
0,173271472687008
0,17634263627218
0,177058960111109
0,181633340864126
0,184123008979521
0,190822503586484
0,193524465671164
0,194689004281208
0,197166806062942
0,199808626183816
0,202030339150673
0,211254887911487
0,216503545864078
0,214512043519545
0,222744921388152
0,225786325822876
0,226523541037016
0,232269774846398
0,232451882965994
0,239575136275184
0,244303221415273
0,247641211851411
0,249909557428837
0,254324725994612
0,260242752014386
0,263715429426491
0,270819942180631
0,272039773226587
0,276137169412574
0,277992079777827
0,314749002104168
0,304787688187861
0,299506463848525
0,306179623808215
0,296605014790903
0,333255269269694
0,32900491421049
0,329794851815269
0,337554394346793
0,343374853866316
0,349670243518013
0,358112075107495
0,360523530316001
0,370002487343846
0,377133957063726
0,3815570432021
0,392007102149481
0,417582784871363
0,412079512793446
0,417152299708491
0,414092487146613
0,425720370489239
0,437619609341256
0,437524734624692
0,446668542762925
0,450082250951514
0,455212118506396
0,488237534407092
0,474702374715345
0,476342345783972
0,486612172136952
0,505259155938352
0,499550006331926
0,516985410416728
0,53594137629197
0,523865491906156
0,537657983215909
0,537274233231282
0,542643841329914
0,556470745034419
0,57166046860797
0,568146667976855
0,574702701419067
0,586496733755604
0,583581599556194
0,600325025117966
0,613346953743095
0,610525275333725
0,622431282359429
0,633613181521645
0,646710597792196
0,695465108415905
0,653248384907148
0,639741377911204
0,650674833154991
0,652676680032597
0,687552635837705
0,670989044826462
0,691924755673998
0,689058843825844
0,670598456253853
0,684999962898105
0,692639695505948
0,687525790681571
0,701380720614373
0,695239766794214
0,690126879316188
0,719103786768841
0,698552538770689
0,713671404843545
0,737797169471506
0,700214076777521
0,687939342831278
0,685465667391045
0,699187654402478
0,707632154678362
0,703953184536596
0,687324646283822
0,690432628417628
0,684350169134588
0,679044747566931
0,659363116799649
0,670819073062837
0,663597812731904
0,658611577218358
0,642818868304787
0,632426486463594
0,629618580662848
0,631879185610529
0,621726420331424
0,642110401548608
0,597164297370873
0,593352617706764
0,588982940589166
0,578402397935819
0,57410981266693
0,568332743599976
0,562037664164286
0,551226947050048
0,541131421710424
0,533889935722476
0,515838721966602
0,51988688742561
0,509706653476071
0,507749150154186
0,501429480265656
0,488806491458765
0,483946355323067
0,471991859370596
0,464702382357861
0,455015832206273
0,454239330253059
0,452276355394754
0,441791402642632
0,440601631775291
0,430782461941631
0,423016577289907
0,418731786666296
0,424937016265116
0,414824199828492
0,407060128844413
0,404084782025538
0,396318991152596
0,396787473022077
0,397292629266862
0,386672658214123
0,384192718984458
0,383940749680197
0,372510512790917
0,367865634298396
0,367730352096572
0,362548549079267
0,354494820105136
0,370725896888141
0,365018231507827
0,350705128636847
0,351805681521314
0,345125717833545
0,342577723768541
0,331639592848941
0,344349952092864
0,337971305416166
0,329794453004791
0,328223746993712
0,331003987542259
0,327853751643617
0,327157815685401
0,322019273111796
0,319010731297875
0,310812484687931
0,326560079965972
0,320146023670671
0,311028726667205
0,322814730909227
0,310579896871707
0,304718610709306
0,309307192715866
0,309907810072744
0,303038318355568
0,299522813758184
0,299927471972595
0,295038778166297
0,296066168893684
0,290183899554119
0,290279227163882
0,292146061817632
0,29645707033541
0,298840215981581
0,285066862846916
0,289314482964587
0,284296671228991
0,278279516102377
0,28448348030355
0,284545937629335
0,284489773253029
0,275492642163511
0,274750524186253
0,277680015312991
0,272479284457229
0,27617034524693
0,272545112670291
0,269957790652328
0,271263748439467
0,265594168715865
0,269353649164131
0,266719721481608
0,265523136963384
0,262804202460952
0,266742114432276
0,260861836912017
0,264001616158397
0,267434305141145
0,263470351842784
0,268334593033071
0,258457403867382
0,255600263907571
0,258492534030837
0,256247215708614
0,256312650766876
0,256538515047919
0,250487015136244
0,24907292758296
0,256052487702915
0,25125862900653
0,246451556382456
0,250729765780256
0,249576166222103
0,253391716036776
0,254384509597294
0,249460948472671
0,247600750558991
0,244260356164761
0,243146553092937
0,242103701215902
0,246334662805125
0,242566921980833
0,240145814196473
0,242625539039925
0,240041155119859
0,243032370170605
0,241274059072993
0,235893542585308
0,239870729497997
0,238306920066755
0,236217289753523
0,241556399690975
0,244142355541265
0,236849833191543
0,239079429379697
0,238582145056288
0,233570474233229
0,235406817807416
0,237728844180446
0,23461601474435
0,234474255402137
0,237654576977737
0,236435614511178
0,235808873637825
0,23538635251085
0,235147269823728
0,235953851032444
0,2372225564128
0,234121714221845
0,232565178442678
0,238567935935189
0,238882106904547
0,239173295691521
0,234821436055651
0,238709188639762
0,235374516855286
0,234299674437681
0,235249325522315
0,232490167354557
0,244371406507742
0,236129429061303
0,237058151302582
0,238736272534299
0,236893454132467
0,238060408928098
0,236201543102006
0,239089656120421
0,240136017653661
0,238819579049879
0,235414357651178
0,239112394993241
0,234894774885111
0,234492532417126
0,236345295326182
0,233328247083104
0,233781305213913
0,23184921810098
0,240300145763549
0,237298942775939
0,232022176594693
0,235785937593458
0,23307042300731
0,233812836619877
0,235988767074184
0,234249333830257
0,234032843267385
0,233523316307133
0,235329413564634
0,233820233975985
0,237141491380804
0,232327906313228
0,233018258539156
0,232989622200442
0,230020383894485
0,234675330189489
0,23446310566871
0,235359753755766
0,233988762912273
0,233615113584456
0,23399694284054
0,23488537383264
0,228857078552774
0,233281934022935
0,231348422091015
0,234954449284507
0,233519518813276
0,234963597220544
0,234565224327111
0,239048141284825
0,235889896925588
0,235358732037562
0,236422583371523
0,234213578331152
0,236860306864129
0,233509670363229
0,229251924961247
0,23418502828918
0,232626058344891
0,234888179557154
0,235755713088468
0,232891500289687
0,233690174838986
0,234775186463271
0,233249277581387
0,236308894492723
0,23265882688396
0,235907833974801
0,231173791805406
0,233619486120031
0,232874529542055
0,230488447940657
0,229828926245343
0,230984464578729
0,234108912223239
0,233873655750246
0,230632678458688
0,228756696762398
0,232144377948356
0,228581098370515
0,231664961512452
0,233722591135447
0,232881133755625
0,235284682373264
0,231615017243216
0,234938898164646
0,230497171892668
0,231340376920767
0,231664427403019
0,234399896577078
0,23391328047913
0,2309905660513
0,232978056347686
0,23267862324179
0,230916219727586
0,229470167298545
0,232548000750248
0,231951085771798
0,232419438257827
0,233618351540409
0,231362878144435
0,230149732615988
0,229933152810017
0,231799817726831
0,230842447552841
0,230867685155976
0,228151820831005
0,231067757369269
0,229697586338495
0,226184077328124
0,23221890359406
0,230973189806842
0,229303162198659
0,229472806638295
0,227883738479089
0,227745410496355
0,227715940563092
0,230155802457791
0,22615169807876
0,225064662566029
0,22801787549876
0,226290846465193
0,226324478726705
0,225075162359483
0,222705641468779
0,225539042892075
0,227343904510198
0,224844454918082
0,224919300113464
0,226310383599004
0,223486074521332
0,222305449257552
0,225367436854962
0,225985338680252
0,229856187179411
0,226718076475065
0,222403909108088
0,226984067840959
0,228997346488404
0,226542633686545
0,223850475773891
0,22632397654146
0,225989433976904
0,225402622273141
0,226096756682807
0,224940981947484
0,222556242949258
0,225773285968837
0,225396761793575
0,222976572818837
0,223753178598064
0,224653760296411
0,221260307396082
0,223814556707151
0,224432865839955
0,223677324091043
0,226061707074134
0,226630083323169
0,222846477389247
0,222387950655979
0,223835684418956
0,224169235322812
0,221768174721201
0,224023652241931
0,222774011831117
0,222144641977352
0,223409956437329
0,221095042027513
0,222050193598111
0,222108668653723
0,223373918051362
0,22397944569014
0,223746371899361
0,224741770394105
0,221048950177775
0,219808342530687
0,22233317756233
0,222994601636746
0,222289167455725
0,220563782741184
0,220179450474684
0,223174436617387
0,22389998570554
0,219716527110715
0,221025252259394
0,218502367464879
0,219207825024541
0,220250056746534
0,219430379762608
0,218647431005607
0,220935851250366
0,220512737889615
0,220488807057533
0,219344841369184
0,219081809165025
0,220276744089759
0,21865647065727
0,220297513178181
0,219546716652266
0,21970454821047
0,220588440300045
0,218512917135956
0,219583020201189
0,219564516591474
0,221222123508043
0,221150127644703
0,220108183616099
0,219074032116138
0,219488811253413
0,219793912849395
0,21982423479422
0,219513116095285
0,219047518351251
0,221614998046949
0,220341919469964
0,219249615534547
0,222219159536843
0,220693928771789
0,219127064437112
0,219827376459247
0,218791426481221
0,22122464458319
0,222346862296762
0,222379549244379
0,218377687994573
0,221020046291755
0,220749469985494
0,220998507948708
0,222269797482461
0,222160618722236
0,218345494235966
0,220751126931153
0,219081316427933
0,219541437127164
0,219186879341208
0,220190893808432
0,220754176969003
0,220467026435562
0,218186771624031
0,218799297231624
0,216783221398662
0,217430378176932
0,217725497158785
0,217116968219748
0,218418943469244
0,218530130682519
0,217823251082997
0,218030618695594
0,218982745768266
0,218682754875095
0,216133793853471
0,215422404208478
0,216350270455024
0,217399449707223
0,218569294867293
0,217586637670892
0,218376642791532
0,220078819954092
0,218246819530894
0,216917116988985
0,214752259835314
0,216304873918095
0,214167941261709
0,217352803744053
0,215147152971464
0,216359314835593
0,217726914253513
0,214535919527687
0,214130940886353
0,2152037602216
0,213082596805085
0,212744754835085
0,214778251894495
0,215519607196147
0,213530384812834
0,214289904564472
0,211735409099829
0,212638325752271
0,212299658341845
0,213508692987157
0,213140195393178
0,211884894170849
0,213339009952449
0,214107970799786
0,211406226899541
0,213404977348557
0,214157895048111
0,210015776326801
0,210264708976238
0,212283267428904
0,210611410093793
0,211955202130203
0,21217736311929
0,212438945464672
0,210575744551722
0,210026618173882
0,20977615979225
0,211592458787888
0,208796794431447
0,210289768132799
0,210042463929661
0,212660850761159
0,210114507139889
0,209448478145686
0,212432941657608
0,212067558642355
0,210467897387464
0,212393310684248
0,213901957528007
0,213741581120317
0,214611885430395
0,21272872462619
0,214699711262644
0,217482125245408
0,217613382683571
0,217988730641477
0,21900383924319
0,220982087900877
0,221866255257427
0,223323855397966
0,222118601039262
0,226563226510114
0,224817049264273
0,227590811623572
0,230216686660311
0,228039897778564
0,231179206735463
0,230653123827887
0,231119152043919
0,233418733455099
0,231919630557425
0,23122993766147
0,234104828978067
0,23403295807041
0,233705894478694
0,23101791082462
0,231456694418975
0,232539220809661
0,230022458189377
0,23056676233158
0,231182524357363
0,22898753008437
0,23037255996024
0,230307744187386
0,22946976919448
0,228699728236491
0,227639530610746
0,229457782063168
0,230266263012628
0,230167052081855
0,227787665207427
0,231054728766954
0,230475931724357
0,230217289750276
0,231698588444735
0,232583008453872
0,231446048346326
0,232400286653862
0,233828856844692
0,234566995752932
0,233963707890941
0,234586363478245
0,234809768591128
0,238610587844591
0,23810714854958
0,240607865501041
0,24425122459489
0,242278041882419
0,244324459689247
0,244109045971727
0,245880113847919
0,246291949010568
0,24614584583212
0,245291177237085
0,245590666076339
0,246340811026143
0,244961113456288
0,241649651265803
0,243536929855724
0,239912580210907
0,240404203993558
0,241951274737555
0,24244156199126
0,241115408563042
0,242365109929508
0,240767096688693
0,240155648245346
0,247413137922315
0,246236829431555
0,24570377357135
0,248527408709157
0,250040544321692
0,254143488043399
0,253010755651313
0,253275257428936
0,254211207540128
0,256014427142909
0,257173277680782
0,25774582298084
0,259432222536584
0,258247307742019
0,263347301007464
0,262169180409367
0,264637544252175
0,264950480438174
0,264889592758179
0,26747913405103
0,26947027254048
0,27212764556293
0,274372483193274
0,275319271856873
0,275940599792066
0,28160660633409
0,284010939343887
0,283393374046101
0,28334909630804
0,285027348739161
0,287420409107844
0,288383859986619
0,284453388229785
0,285826489715806
0,286356792428191
0,285836173211678
0,282706453912849
0,284814423159548
0,278521379743481
0,276650217169841
0,276341584135508
0,276546375430468
0,275724737211843
0,270073180831732
0,272535343232081
0,272940491222098
0,27176992557039
0,27152586000652
0,271215018428834
0,271622654917184
0,272505596317096
0,272346188834853
0,272910648038263
0,276749844884919
0,274993438082047
0,27265257255975
0,278558943709577
0,279103667289773
0,276258981923615
0,281771151403924
0,281801442966072
0,280438287946479
0,282880971657359
0,2837860036713
0,281814299053403
0,282829810469617
0,284953134594623
0,284970173583301
0,284231399535342
0,285246621151582
0,282457736570516
0,28549134710288
0,282888081788732
0,288169168123136
0,283138417469755
0,282422232546548
0,283359824023393
0,282962929667886
0,27981646814717
0,28376197140358
0,285158526847639
0,279055331619376
0,27804467204111
0,279267395397808
0,276592245286269
0,276859450329522
0,275950530697101
0,276049664684285
0,273581773439262
0,27619580493293
0,276092288998363
0,275123930282871
0,272057117400877
0,270187555556316
0,266945843132404
0,264918158807374
0,263439783297052
0,259231497097849
0,258423877463083
0,26023887113109
0,258914427458436
0,253856673511685
0,254410592252662
0,257354816766804
0,251968896341208
0,252672083100448
0,258366454486411
0,255379638039189
0,255681743103267
0,253977971260629
0,255839984751238
0,258544174773812
0,259532233977285
0,260294402482781
0,258876779354357
0,261781125419123
0,259564668659281
0,259569680664636
0,260301336410019
0,257820915894845
0,262362575423198
0,259216721031862
0,264266000646899
0,264479528326578
0,259646046212406
0,262394885514006
0,259163229830667
0,261473257563006
0,259936551948216
0,263518850499985
0,261432849100323
0,260491277317535
0,263010734960663
0,2625717480333
0,258554398373002
0,263810512874242
0,261687813884746
0,265324705467141
0,263731702654735
0,26418960517956
0,265691894069298
0,263327012966771
0,26378778204701
0,263529626955532
0,26767934043865
0,266460776904375
0,264406829823172
0,268799803598389
0,267844728119896
0,270941329562543
0,269640433418256
0,270708730563741
0,272993180361924
0,274842964402824
0,27670826399355
0,274955838521033
0,277813732016218
0,277922228218238
0,277771546519793
0,281124658589526
0,282138240255337
0,279823431299091
0,28429366757411
0,283972385639466
0,283980965493699
0,289416930170855
0,287418871135665
0,28900978945348
0,294668153971222
0,296232700615128
0,298623560666029
0,298712002660509
0,293421354815191
0,299104215221994
0,302346135158488
0,301714674435202
0,305206528319295
0,306102811336576
0,307514359415131
0,30605580362821
0,308800118490161
0,312255640531664
0,314668645771527
0,31478128346365
0,318183662353191
0,323263248001276
0,315973391919646
0,323090605917683
0,324478305135137
0,326655864486357
0,329380534624053
0,334797338838596
0,327439060155001
0,337544609520556
0,33312173116162
0,336926733504186
0,338797291434202
0,349475167371166
0,344759023768809
0,344137075983138
0,351583088274545
0,349567088522732
0,357241054148129
0,360467605550926
0,356041602007764
0,36272133685695
0,361568804647334
0,367721398300583
0,365430666758224
0,373055754155568
0,374068844493952
0,37681495899424
0,376638903955562
0,376977983375199
0,378507708193777
0,391449307451323
0,39026047872339
0,388464293498879
0,392298010048379
0,397780937391198
0,398465575610698
0,407595221551402
0,406312836320869
0,414118191841746
0,417346418294517
0,417445684762043
0,417839369340032
0,420577266640548
0,421607980637785
0,425264719086445
0,430083498931204
0,430924832147587
0,42791472090487
0,434597954967895
0,439640764345179
0,458994285720515
0,446613253221002
0,449005241821229
0,450072542918888
0,465523049460913
0,453257385509296
0,463490089504644
0,472707491669919
0,473353669365955
0,475342166986448
0,47899879737319
0,467494733125122
0,480122602902834
0,484411248548941
0,487204315666031
0,489454075912723
0,490086727183062
0,493832717702331
0,502020320649039
0,507220918030447
0,518199709201317
0,516585133121753
0,523946650182964
0,51696308846021
0,532753265739776
0,522270237773305
0,525630621059026
0,531217822874491
0,54641662360324
0,532801998246156
0,55080354181082
0,541170544750477
0,556114665465948
0,55730543317455
0,559023971674217
0,562917749840829
0,584731761220187
0,564640844679286
0,571475121849073
0,573767886468061
0,587425760931497
0,58941619318168
0,590047343235913
0,583881825066555
0,600405799193939
0,597977117028517
0,604470616466606
0,610849276669084
0,596550627379782
0,613783267825753
0,632623031936618
0,621393084634339
0,646003858507451
0,649977768204464
0,649491076672262
0,64995026045117
0,658162739455583
0,621335000228273
0,660793771207092
0,636002585407777
0,666975497994788
0,67575914525239
0,666100633229917
0,668222204991634
0,691780480659123
0,670126761398189
0,693792917844103
0,69592252003749
0,695445134251975
0,686440469388341
0,66653282653276
0,696717445806475
0,698265535774436
0,71028269693078
0,714705741294579
0,712438719254581
0,735470642301848
0,736322647104224
0,741090596615908
0,733514040564146
0,776665009054468
0,734161964701983
0,74263020977769
0,73998857654508
0,774497916509005
0,748746595957987
0,763755347782091
0,717871010241655
0,776731463387374
0,758687430395453
0,75303325975854
0,774240533920746
0,801968170344333
0,793417568420874
0,803244672627686
0,794326663504886
0,866776545966706
0,752795623525527
0,813192846720892
0,803016274495615
0,858070291447567
0,84121478881368
0,851743997107296
0,861812113669363
0,828804654238302
0,805712408621462
0,830075358238288
0,861271812046116
0,849508863945362
0,786837442760696
0,903140922435126
0,898592085970893
0,876401481561469
0,839008304616854
0,901744393911973
0,863022707163341
0,939578903127809
0,864463257250111
0,889752395957336
0,880126080731793
0,943484367817607
0,887718854716604
0,96650453261417
0,952388376274355
0,89094547261338
0,9533832827996
0,968797716773836
0,901494138325986
0,977709436578262
0,960503621820862
1,01472997271067
0,975675310049969
0,97560796964505
0,950718706963908
0,93352727131307
0,920364125803709
0,99688384517354
0,991504909363527
1,00546825675313
0,93117270436936
1,05683371573563
1,02916180091046
1,13778483606407
0,900104005517719
1,07477030145947
0,996217428514778
0,992650218485636
0,892388688009041
1,09131984051736
0,985175257613014
1,0881561990725
1,00129930177362
1,09013650832849
1,01261995347228
1,10628071447059
0,999061124646962
1,09588225877243
0,977342205314772
1,19059962759545
1,02501370030877
1,13892246404172
0,982946612689938
1,25336240381592
0,956323927549873
1,19382254437433
0,930857140453463
1,15577473423786
1,1402269803588
1,24247201079236
1,06733853430361
1,34916509799757
0,972554439651431
1,31712856015031
1,08628593610537
1,04997449983599
1,1315740081851
1,12700822113131
1,03571205610727
1,27982578856753
1,06119423781645
1,38060201277503
1,16598537490988
1,10614375422868
1,04903367555151
1,25139169344554
1,08555259289656
1,35213430910004
1,11819223308324
1,54423930412417
1,01659206481264
1,24265109708702
1,5612186637386
1,49435537013167
0,904938159750898
1,59749673494402
1,18853972467383
1,3929850643821
1,49657032547541
1,50104498880046
1,05554547060833
1,23687791075634
0,975367951008838
1,29535967359076
1,16261043815554
1,40029055158332
1,13606517391062
1,26797486074948
0,927286228998648
2,06258094967066
2,40895560242775
5
0,961597143515871
1,46992873642633
1,21561456416339
1,01459059177864
1,12190698508405
3,01808765244392
0,933312931514733
1,38151348132875
1,26098870960603
5
1,1775767787917
5
1,19660036181025
1,92014717198683
1,00106569929625
5
1,35206297263735
2,15652913269737
1,1069854843034
1,29853727189295
0,790169688745311
1,27568149235208
0,65199784994333
1,82202089693308
2,01747549623762
1,17740064451348
2,06016583877508
5
1,15186246038482
5
0,722139083894151
1,01537831723948
5
5
0,895709622094814
5
5
5
5
5
1,18263860100223
5
