3596
4000,36533379555
650,420452594757
1
2
2
0,0679631629257849
0,0636726885394032
0,0681861869682336
0,0473845698305171
0,0697468692093155
0,0609544545613812
0,0690252712864879
0,0537369092064576
0,0641730473797206
0,0490345283702097
0,0647949242871822
0,0538777962312669
0,0653776325775105
0,0484474769232848
0,0650988372376581
0,0543154915532154
0,0597263245088435
0,0551145203391052
0,068527316897878
0,0533956753315555
0,0603978090392322
0,0503394845862615
0,0612959861074716
0,0579962103728392
0,0641600553569089
0,0540578165411089
0,0631287243319727
0,0429169547004041
0,0636866851796632
0,0639455836541734
0,0630206167171262
0,0437291034996905
0,0623630779435023
0,0582633232521158
0,0635432554270431
0,0556139547002457
0,0688151029393766
0,0567384163745812
0,0651358647491038
0,0552182488845087
0,0676585930372484
0,056142548269884
0,0709574893786834
0,049449250691539
0,0639733237861753
0,0545832815101
0,071970672244426
0,0491738619872513
0,064993138124892
0,0492700381534872
0,0717189104823441
0,0481768863953017
0,0745231052483602
0,0611873780150983
0,0667787101434248
0,0534328155317315
0,0671558560016973
0,0573380274248168
0,070319445144613
0,0526784609969531
0,0858942849787584
0,0628519028336152
0,0646652206848228
0,0473972106657078
0,0641297287821148
0,0585878565625404
0,0620887819187429
0,0585495347876834
0,062138386222095
0,0547931384599662
0,0619335998477478
0,061289084107607
0,0752630271455531
0,0512017365951776
0,0657757262689215
0,0593185922853907
0,0680739781654256
0,0524577029286937
0,0553797823255212
0,0541855378845716
0,0783796635266229
0,0693446401915436
0,0654613538475597
0,0501662746777352
0,068964396497139
0,0720345473300634
0,0588225513006846
0,0556691218684038
0,0759035297154263
0,0629970334354831
0,0638749692085327
0,0636546507227853
0,0611160728584579
0,0531054561629591
0,0677266365616188
0,0570616149426459
0,0601623071656445
0,0532995572474543
0,0490852502333946
0,061242191959951
0,0510659997515263
0,0701056325860172
0,0947549329232268
0,0429163715418984
0,108969823832826
0,0516753562221117
0,0640868933454392
0,0678131265298756
0,0742431869629107
0,0603159028553492
0,0615536451238195
0,0559057859564639
0,0633928608656615
0,0523941223742027
0,0462523915777604
0,0749732179725022
0,0759051416448336
0,0573884485745384
0,0609164535927606
0,05632391437841
0,0395191343603727
0,0751617911260827
0,0826477977742318
0,0630705345468085
0,0748973541240428
0,053245163730967
0,0507072790190671
0,0773482150064959
0,0788165765050631
0,0643561784833289
0,0617329215108462
0,0599279584082759
0,0461259099412009
0,0554687966186038
0,0865979932158873
0,0626120862425891
0,0591978935439368
0,0315981853575978
0,0766883829914352
0,0875092667079947
0,0766847431109496
0,063403385682819
0,0547361949277724
0,0513137733851259
0,0913956871346702
0,0630367487017583
0,0521277091603837
0,0790415276021789
0,0717312867119023
0,0552292506221827
0,0615890850299007
0,0540839966137309
0,0764325744276025
0,066425068975845
0,0183181030767446
0,0975586567362521
0,0977007703786009
0,0727649286783668
0,107293364006191
0,0588880761988568
0,0776979538051613
0,0506226789819234
0,0711445281423112
0,0471072828267182
0,0743916796484677
0,035429202882707
0,0765672673868752
0,0704665286252508
0,0628336032328788
0,0520039105204639
0,0944507740290951
0,0515376472887628
0,0489627242065464
0,110753397292394
0,0709455605616579
0,053696032335405
0,086136544586691
0,0729859573140393
0,0501950472998013
0,0635455347389918
0,0776556097956059
0,0584217182931554
0,0644541812112598
0,0512055362208124
0,061172323424963
0,0711510450959958
0,0667518644124312
0,0657244295961935
0,0692690559314805
0,0344745799254731
0,0640402546587291
0,0851440899822598
0,0870355154332181
0,0639470893155958
0,062148955222802
0,0255118827393965
0,0994480736724674
0,0782839900559728
0,0729336607593966
0,0555428931582253
0,0635036715238226
0,0540285989569343
0,0547707382130249
0,0614173523131099
0,0545524760685762
0,037094449243986
0,107645060948338
0,0707294146479954
0,0726397915382699
0,0526121466665333
0,0700114482705071
0,0348235753586573
0,122013996503455
0,0792014619546895
0,074865774745823
0,0571249193730859
0,0578993558827483
0,0662245738355095
0,0776732487275944
0,0607225762020356
0,069799967271124
0,0596876449236642
0,0653203967179825
0,0568034166413467
0,0693163209204231
0,0537924224074956
0,0629931326286024
0,0585104566927125
0,0673561369269465
0,0569760352148236
0,0789561764394701
0,0573975203062103
0,0664115970571974
0,062400262830098
0,0491128607358776
0,0573107791533057
0,0836393513849299
0,0638219765779414
0,0684399345241532
0,0580692395720175
0,0659333428293453
0,0591065124168101
0,0686759754505882
0,0633369596065882
0,0665731144694752
0,0467889878061166
0,0920076475581926
0,0676149067196096
0,0739264058636056
0,0448233435538831
0,0897886423307823
0,0654064680213129
0,0787341300712406
0,0565565707940238
0,0801565937961692
0,0448407070144661
0,067508414375059
0,0787542050962623
0,080757068467809
0,0476893730940982
0,0918569562043598
0,0626029544797507
0,0722272442913508
0,045634422930462
0,0552063413844431
0,116399310775472
0,0714348836288089
0,0517936063995707
0,149111162634707
0,0763137414124662
0,0921880689466114
0,0488424649055998
0,0407310643144868
0,134635425239646
0,130342398496467
0,0735832991309024
0,0753155483695054
0,0848677028909682
0,0754469912328065
0,0698118842788744
0,0644604959407967
0,0789143208078235
0,0829970271084793
0,0889995071754283
0,126733951486884
0,042358613510418
0,11614890979775
0,0840004912951925
0,0869541405817159
0,0611047014559215
0,0774913829180309
0,060899554068521
0,0930500858205255
0,0690318972810645
0,10539102098547
0,0714850047910776
0,0833576523971446
0,0906240436054427
0,0906067677449623
0,0739872805539598
0,0904039874057203
0,0824550117975235
0,0874538110443079
0,0821940246850465
0,0810115420485704
0,0924776040882194
0,0784005943951668
0,0641281703111391
0,134353730671201
0,0805993536366364
0,0925278665091961
0,104006882141576
0,108188378870139
0,0812890560676317
0,0935139584007402
0,0874914131379431
0,0954469616741997
0,0826927742281009
0,0895517134490239
0,118748446697066
0,106295841235704
0,094125215547462
0,101659167614873
0,0965914947033425
0,103674351163638
0,0979839937532153
0,105320092026151
0,102259075832823
0,117183849243937
0,0937786768887909
0,128597076649067
0,136161390449522
0,0937381425714689
0,135820495722349
0,146695136290978
0,130059745321947
0,127632981241804
0,123121087247388
0,132404005222269
0,128198661954223
0,140128031029446
0,127108902502863
0,132448943497711
0,14751318456635
0,15347291457316
0,13772067397384
0,152245745848042
0,191423121273392
0,220855182086097
0,166805686332037
0,175056339104184
0,124981061305211
0,207680177616344
0,171870975974218
0,204233888950305
0,197113146719266
0,18348929365643
0,186963052554216
0,190539204367729
0,190629927038907
0,196677169257469
0,201197844946592
0,196522774676376
0,197305255991016
0,208430596023994
0,222899371280172
0,205201266444603
0,210472968036589
0,269303376840423
0,236055155003114
0,237065553377467
0,233227289043775
0,228894709028426
0,260083252291194
0,260590770479854
0,293061779350878
0,259767705028585
0,277775175946866
0,29891409157041
0,261955526043713
0,282199969911312
0,262130427042008
0,272845509854428
0,268203343192835
0,291473031697194
0,272181817004213
0,289943556106463
0,288914403355183
0,296063363701748
0,292175146858535
0,301202565115114
0,27493787782511
0,327807399155187
0,299819848645754
0,34038723161464
0,298612856880134
0,346476055955204
0,343568238813768
0,397180067720897
0,323481473492537
0,34722924132794
0,317588639363654
0,340929654499702
0,332842831144245
0,346624593042556
0,338441688528263
0,357598935009833
0,372536395099319
0,372988181800063
0,375331529711668
0,391157241165789
0,350779118016175
0,382060412026315
0,364506085916874
0,385698296093866
0,401375274055652
0,410536146679566
0,358411532035981
0,435021457355946
0,374188247582062
0,39656796093141
0,403664067652127
0,405293129472438
0,383012507483747
0,403022377152104
0,407117863238063
0,419075759286849
0,40930345758799
0,42413838731978
0,397366693509092
0,434733648623042
0,427174179226289
0,435727634882064
0,435779373896872
0,441038218511168
0,42810605603297
0,450626071049294
0,428467456307376
0,461511388764208
0,427655749741503
0,492991064990529
0,467707059640138
0,481582441014935
0,483341727319587
0,462256790433242
0,455581031976976
0,469095984957941
0,467581988798569
0,47143603285474
0,45601738954375
0,508964664009857
0,473219442301328
0,501886689249913
0,474434340372079
0,500386399996043
0,479370356728461
0,521822762603681
0,504134617988076
0,520210235358538
0,502182935950082
0,505008868146143
0,498413501607913
0,558196722846688
0,519460688470002
0,586603989288318
0,536472083950149
0,534642568838603
0,518150383839784
0,539323607306947
0,511031242414937
0,558901444131193
0,554444318968814
0,563868126267832
0,548650782790605
0,5838854863974
0,564770224621902
0,588508929064398
0,5531748510558
0,618741640391088
0,556075185379563
0,595419737287268
0,556280724032206
0,585602389679326
0,560744325199073
0,590831908452189
0,580896617410675
0,604480901352376
0,561924233101477
0,650322095110383
0,574439116746274
0,619407554595899
0,585878340693814
0,647978165233458
0,625983028723842
0,633170252164952
0,612996495031427
0,69311179125346
0,627031390124008
0,649037400241323
0,650469512924622
0,663212476082745
0,623936174150183
0,660826680684791
0,644008010889585
0,687066046298567
0,67249905541521
0,720317430204201
0,630415955110771
0,700089283134081
0,670521687716192
0,681411559473046
0,68853949788403
0,739165656998012
0,660367491320733
0,740545173753739
0,667298922800407
0,730926508303498
0,683282740112829
0,720656438117969
0,691878936559249
0,730481102518603
0,662391591197568
0,784810366794586
0,732397929098056
0,756437462736209
0,718821374091903
0,78117765562156
0,715162077556834
0,740452860688886
0,723058891328837
0,756868662404936
0,688150995096517
0,774549880892769
0,72233264820383
0,813411302980366
0,753982418144067
0,837661223734691
0,762601324640207
0,789243422506171
0,78658057562762
0,828019737350453
0,756130938374396
0,827449359720287
0,777288992016381
0,821050911079879
0,792360736366848
0,831086002917263
0,783711037619379
0,874031280044341
0,791776866797294
0,841476537504596
0,790204644496043
0,895772393567629
0,818745473312794
0,826214369520335
0,793764922228675
0,840637987559579
0,833549263180036
0,857289090281035
0,84964550633958
0,914287909040322
0,854234520527871
0,878492401195054
0,867010159830678
0,915444956937227
0,816268719830384
0,930413697873975
0,82622742903477
0,872971699373798
0,896713273389733
0,947083501148056
0,859802067751085
1,00048664021157
0,905293857770808
0,952512465936164
0,911708240301021
0,928592693214746
0,941643006760514
0,992222221450945
0,901117364834964
1,00563721239011
0,919801437255619
0,960422880318435
0,988766683215208
0,953489870265562
0,966557370690454
0,978984209481281
0,917342878360562
0,967688187341104
0,945875441238361
1,07366805195898
0,984606583809987
1,02410352278339
0,929309143600875
1,03738030565154
0,985285638214877
1,06790807540764
1,00224854817447
0,988426255231618
0,995561295987971
1,09234842429814
0,970852075262806
1,01148146066206
0,941272775741319
0,99094566174742
0,999671299276841
1,10981444013555
1,05502133086773
1,11224474922249
1,05544984840257
1,07425346873703
1,07601275577937
1,0277762343865
1,02007394799851
1,10725889964742
1,04840237578965
1,11840972594086
1,03769909819427
1,10542765116808
1,05930356197105
1,1638792337194
1,08096635665952
1,07772074918204
1,05220356411924
1,09577700509239
1,04893824806429
1,24122403147426
1,03303058027558
1,10218252829199
1,07718972940743
1,22259542889235
1,09135304997248
1,08787160950158
1,1084297637371
1,19880725282408
1,10491077263748
1,17310652619108
1,10179180109676
1,10152432770951
1,11777440745086
1,23730694395458
1,10737016622224
1,17693326160299
1,09117984559745
1,23606527028315
1,15096101227855
1,24061595336869
1,12152765487102
1,2037525202856
1,11699306823055
1,20187492960354
1,21890936169084
1,20331570488225
1,15294513048454
1,28084706356697
1,17556299497687
1,24137506572947
1,1338061085933
1,23708139354168
1,17057615627942
1,24724798999321
1,16878782679095
1,32948663523396
1,23468536555601
1,19339631068961
1,14418550134257
1,24057387629595
1,16010539276467
1,27290706236979
1,15867371431884
1,21770734920119
1,27835088560549
1,23341595073046
1,12918384575176
1,25059474979347
1,14009748798195
1,23605922637463
1,22275695203232
1,29987882087131
1,24812660801729
1,26246034639068
1,17680309547255
1,36631758224392
1,21264659887723
1,27747198171313
1,21860713271393
1,35243040151703
1,21670762941368
1,27740162008371
1,15318339265753
1,31046106858156
1,16404173986943
1,19828014246548
1,12692586245915
1,25298994943525
1,20460861669032
1,38071465120182
1,21116514100359
1,27907939638564
1,25442600577453
1,32457143297932
1,21010995068248
1,35208551089226
1,14686376405686
1,23909196182206
1,25486398067507
1,37779997052367
1,20840690493068
1,26676260366279
1,22534557496125
1,24415697408505
1,23522947623732
1,28543581860782
1,17355680727376
1,20544240077514
1,20579853783861
1,20988285998863
1,22663521702539
1,28060240415372
1,2144773475297
1,29753574417343
1,20151066624584
1,32608822957043
1,24213876615614
1,27287480280258
1,20428233140696
1,26896571826422
1,264721423683
1,23702107947904
1,24417835425147
1,27960942609786
1,20242087981193
1,32606505687945
1,24865603056851
1,33032218336055
1,24745169534548
1,30989161240375
1,21115579441618
1,34614774386889
1,23887079972322
1,21469993444389
1,24642015609768
1,33227284197939
1,2485240630521
1,30295289907066
1,21415014974578
1,32238215658008
1,26080867910603
1,28081497951952
1,21892573848041
1,31845294857464
1,20027337458032
1,22853024736097
1,26054147179867
1,39762085868936
1,22870423521296
1,30859539985543
1,25167305451069
1,27516510934656
1,18592974376613
1,3022292463847
1,21656182898522
1,27105732883795
1,23456521361329
1,2713112946393
1,24187015178835
1,27965112068035
1,24331922876634
1,27142107711248
1,27245574318092
1,39268319383971
1,23354227908433
1,27122434027757
1,19104368793881
1,28470597035665
1,23500509672586
1,23297767260744
1,15904522832113
1,26246457192213
1,2602594594576
1,29696342294537
1,17879531285266
1,27227908608911
1,23685112981569
1,32998569446728
1,26904894117798
1,24904515410844
1,23854887037666
1,32910912729664
1,23579893073379
1,25353735582844
1,19228627888336
1,23322683876633
1,24437502088685
1,27532011152169
1,19198784717753
1,30022141706976
1,26061562225526
1,31423201480341
1,24647797254408
1,2927071556137
1,14329474499864
1,22652963371998
1,26076806486057
1,29741754035969
1,22819823479863
1,26506973932986
1,23053198429369
1,3363971625298
1,23291638146541
1,29348718500787
1,20189497514381
1,28418067117197
1,22013122217152
1,19220192489568
1,20515938016893
1,26049180890501
1,22713621775853
1,29485976994407
1,22705519121605
1,2393946799391
1,21434940837793
1,26669215359593
1,17473948158538
1,26561041261862
1,23663521495089
1,17043173403969
1,20835782488687
1,2964530705408
1,18154689656609
1,19128368328476
1,25084455562321
1,29554203414832
1,21595611713063
1,26094974482487
1,18889707968412
1,21489438150625
1,16787094804528
1,22313321537665
1,18968145899294
1,24375913354233
1,27771427892288
1,23910669656194
1,16266738991868
1,23505880461064
1,18974868545838
1,23966126282111
1,20347375901506
1,1402408787812
1,15938035791933
1,19184223801475
1,11903511013797
1,14431966199662
1,12297999809466
1,15072962679862
1,14583518566431
1,16614854114378
1,15199660733508
1,20595755948567
1,13085643549617
1,16167079994293
1,16407720363505
1,1177569245073
1,11651219746921
1,11083333154058
1,08807164441367
1,09032182928034
1,08468171938713
1,0994266319828
1,10334260205487
1,10886337022561
1,10626702718028
1,14728581303586
1,08778869878748
1,08309064890132
1,07057661122144
1,11772074774468
1,04401584751567
1,08253285072418
1,08728109615965
1,08184356142492
1,06986625091175
1,06104909417896
1,04388565025084
1,04917855194084
1,01950087278061
1,05469737549117
1,02962659586592
0,995161241049751
0,988387801719282
1,02406189234247
1,00039868561499
1,02633906735401
0,964437924423327
0,991447330975634
1,02995571658464
1,01669104739378
1,01383061047198
1,04074850760959
0,991119476472344
0,997656151905399
0,95596016248424
0,985074014830062
0,941992120690749
0,94963637767297
0,935234921617128
0,965533927852064
0,939840266555419
0,956986729767019
0,939987333946871
0,943820768647337
0,930990956242285
0,936518818420403
0,896757072961657
0,906056101872769
0,897857094959781
0,928011545759097
0,891052030574168
0,88670273544463
0,879812843871035
0,874765732332056
0,85716322267424
0,868343017258818
0,874605449621234
0,868336779091494
0,844901158565012
0,856720778182147
0,850299527562357
0,840290757365752
0,833835826055394
0,845734375500135
0,806684622263195
0,832637374507919
0,808638231102568
0,794042303434274
0,798291807464121
0,814232695466477
0,798953198418442
0,801998428170989
0,787645319426862
0,804029222148294
0,787848692001145
0,775298263794736
0,761726482471017
0,764618414741476
0,747649813380496
0,747588490539467
0,739734668917232
0,754952666023728
0,740039846901326
0,751133838360138
0,706885273946494
0,715156647296472
0,705640649650762
0,724104362546061
0,708492315649151
0,71848353839166
0,698935396209886
0,709731104891803
0,70315757638006
0,702621353456458
0,695455672732958
0,693448664274285
0,681765178575452
0,693415258403291
0,682118102839225
0,661095140637985
0,649383720859863
0,660505810930507
0,654172816080919
0,655996628405339
0,646780610534634
0,644102001665234
0,641811241375093
0,631739751186586
0,630352926905116
0,631011987452274
0,616733927027344
0,624020084928595
0,612270620790526
0,611040884566814
0,614604749949794
0,602857844686742
0,593579820726654
0,598659909687973
0,582270932950447
0,579635208113009
0,578236323670208
0,587084539513328
0,578083262089033
0,579408136119417
0,570789979939178
0,562844465606714
0,559337792249646
0,563724814568216
0,558808853395759
0,555149040258922
0,535149849924091
0,542439545346397
0,545334149803376
0,541901528382916
0,533256220089197
0,525952173251767
0,517166959878868
0,526332830734616
0,515024381328724
0,518678330054482
0,509896582970469
0,515183421330197
0,502560421235829
0,500757369304501
0,503361563321695
0,493954118158866
0,483129298577375
0,485651762784166
0,475796930210261
0,480459056826862
0,48172377741738
0,480925680744653
0,473613186768733
0,473288354073266
0,465889153159934
0,459242617694269
0,455432256735541
0,463140337169969
0,454677877182353
0,455830418719527
0,444981828690278
0,444739751608675
0,436560117431842
0,439813385922885
0,438668631296269
0,441854325241256
0,429539401135047
0,425592658681619
0,423093738733809
0,417665497776456
0,414290164414222
0,41834036820584
0,413603942354285
0,409229485211563
0,403555587968313
0,404338668398265
0,39400697024778
0,391572102946353
0,396700837251763
0,394597551369866
0,384070415023635
0,388086906117834
0,393886473151388
0,384342439075867
0,377254990506979
0,382310859751966
0,377939368009101
0,370752097066633
0,363930604984534
0,369169437263581
0,361170678118529
0,365111711153304
0,362679997624699
0,356048691212966
0,3552689617337
0,353493392317721
0,345351117989694
0,344352742632205
0,342288334443547
0,346895262077873
0,341095215662678
0,337534612629979
0,336552557128934
0,336832895747867
0,331534567896622
0,331513678153181
0,326805453246858
0,329167202293498
0,320133344422283
0,317526826353762
0,315755134514926
0,318055354527654
0,318377456698977
0,311101368943554
0,308258106942198
0,317303925379002
0,310822627094716
0,309386243748582
0,30976667226092
0,304163761709308
0,30079035488474
0,296785625912312
0,296197840454514
0,29867416050456
0,289727286151223
0,288556118799255
0,292059826832394
0,288973683690428
0,281140144720589
0,280683882880016
0,282494953679568
0,281937567302463
0,276043269076483
0,278121785467032
0,2753423939841
0,277296780551529
0,274435404189413
0,270218835805685
0,266538862357672
0,264309072459463
0,264625189840098
0,25820138191404
0,26163813349422
0,264843299013379
0,25928036600561
0,259676913196016
0,259213784886061
0,255426825663217
0,250451931156241
0,249510652253232
0,250660865002305
0,248356976129573
0,245721997877305
0,246041500284335
0,243572307446759
0,239737764719438
0,236770685582052
0,242701589380743
0,236606483090545
0,235429527818195
0,234358166064406
0,23498087202772
0,235865506926519
0,23158492562885
0,232037998535718
0,228548891785182
0,224213694951922
0,230937551575176
0,221624765940458
0,223268000550254
0,229108597592968
0,222065271718132
0,217818439859147
0,219363765239346
0,221379887127724
0,21888583009584
0,214366101546217
0,213350682897291
0,216810332716855
0,214340927458301
0,213689312785371
0,214866778069075
0,212045037831736
0,20667427406086
0,208036589152952
0,209655038693753
0,201405558553394
0,203498000394469
0,201054475064403
0,198240280639326
0,201051474106455
0,197151927181709
0,194018326548071
0,194322872325017
0,195625428366842
0,194578793106253
0,194412375881172
0,190129721777784
0,188687920642582
0,189178526248063
0,187191958949059
0,18452700348967
0,183068204591885
0,182821492319493
0,181787069723842
0,182825655238556
0,182288739999668
0,180996500803261
0,180864100395329
0,178190966520429
0,177914285247587
0,175357813760804
0,171656510040829
0,17375465575232
0,172374692456663
0,173341718457748
0,171916389313851
0,174092781311331
0,17684200674232
0,170752702009634
0,166594427808139
0,167610436811182
0,171055526571671
0,170111526182967
0,168031953832573
0,166913876750301
0,164358929160385
0,163798646761091
0,164475403265497
0,162921674899206
0,164311504932637
0,158987932166022
0,160846578609361
0,159965558718286
0,161318215623768
0,164830305178804
0,157919082583548
0,1541181355388
0,151816388337363
0,153248590674376
0,156327909144382
0,15372699382595
0,149774612617706
0,149651366328358
0,153007163031272
0,149125889227778
0,14678207721426
0,148675611730508
0,148270386283935
0,149351172639973
0,148823870704041
0,142952967509596
0,143515332445499
0,140633607427404
0,138986275352565
0,140228821153409
0,14041412378059
0,1412171779677
0,139145513241788
0,135831362948685
0,140218399762107
0,136736025709532
0,136501677637693
0,135865078024345
0,134990806674609
0,134446469622548
0,131164885868545
0,132062411563478
0,134989214645942
0,130423485232581
0,132487061578824
0,130933891871552
0,129713551555643
0,127256825656432
0,128920320278264
0,130713740785909
0,129292239763076
0,125815339689108
0,124895834007181
0,124467565523811
0,125384188704324
0,12481312167059
0,125250799746125
0,122058149684513
0,121437777543975
0,120018595293662
0,121496271543436
0,121795002337561
0,123541068013345
0,117619545555986
0,117147838783942
0,120866167333036
0,120887186964822
0,120305113007964
0,116365093844802
0,111968369879974
0,117697120556428
0,116058350053245
0,11531237403436
0,119194812430433
0,118643488766996
0,115872332714318
0,115135869593203
0,11124910424824
0,114547100300472
0,114938692062807
0,113960191243929
0,109505257484309
0,108243508863193
0,111465494174068
0,110718133944165
0,1115534947151
0,110142646030694
0,107120624491729
0,109452094658703
0,106310759572136
0,105569712754847
0,104435979329239
0,105670876998419
0,105816918683407
0,104812971497731
0,104670106731294
0,109239350920807
0,106130619082244
0,103584710344632
0,103872848553677
0,103286193180426
0,0994149785913548
0,10394807131291
0,102184668718495
0,100169955204681
0,103190473298057
0,103714124879592
0,0986569453356717
0,0994186127594765
0,0980364386796868
0,101685519440011
0,103769188587296
0,102466324790995
0,0960626332538064
0,0974733306872065
0,0980445891413555
0,100532958175966
0,0995331050630716
0,0984615989845632
0,0998721537563871
0,0975931375489918
0,0929281307047624
0,0974013641303303
0,0974369759789779
0,0973867861137487
0,0950220918400191
0,0948381599210237
0,0932658541718797
0,0978107024493597
0,097241038510713
0,0977503119197994
0,0935607574858226
0,0940730084064768
0,0942449093456896
0,0934571736431384
0,0919297369800775
0,095098719428168
0,0969132924850261
0,0958768126794068
0,0942432506213722
0,0945359600298077
0,0913179008504415
0,0926532425927855
0,0924571942425186
0,0918439275124576
0,0910655821120724
0,0921283471092456
0,0909706437343716
0,0932044014243891
0,0903504673933723
0,0919140549133464
0,0889793244737762
0,0899896472479812
0,0878695322530609
0,0890370425466466
0,0897750019612063
0,0894491713836673
0,0872900521040404
0,0876469164123489
0,0853188074768438
0,0881280941599311
0,088014278318765
0,0866317734440301
0,086223044655363
0,0886360816320222
0,0840409487247473
0,0860114810620528
0,0875848644804288
0,0890618837852323
0,085702708703427
0,0861682742269225
0,0853263535430392
0,0870026505562077
0,084273977785405
0,0840393139278009
0,0849328266922569
0,0871167579868425
0,0836731615367679
0,0844283298931738
0,0814465832125718
0,0824555807375763
0,0848650968815556
0,0854994696144312
0,0833180028057385
0,0833974160587921
0,0815629954529697
0,0857587363533769
0,0833612555726512
0,0852772914719331
0,0793932357239754
0,0814785136930508
0,0824991099692703
0,0840888615393202
0,0838465337979609
0,0814966933397858
0,0818104092676503
0,0836133654612345
0,0798720553880011
0,0808222186497644
0,0804214220000853
0,0817441485177141
0,0788654739621857
0,0820893204863005
0,0810792136016748
0,0799772058686384
0,0798355515833177
0,082763513712556
0,0806948178157774
0,0839702915526535
0,0790410696476408
0,0796509361362786
0,0796458182348651
0,0786909160436364
0,076523505075553
0,0803726344277338
0,0752990211741736
0,0750531450767125
0,0770601867026966
0,0769019792496336
0,0753261996888012
0,076293940438528
0,0772441502429924
0,0812017105130477
0,0753761726687213
0,0748267665161979
0,077881633660434
0,0828665977986023
0,0768319121129869
0,0782420125100097
0,0796737777983184
0,0771855977104673
0,0723901934956407
0,0799238890921291
0,0774210856755728
0,0777496220968904
0,0761117366786887
0,0778861244206534
0,0746451647758063
0,0747237609557755
0,076071420175835
0,0780635417402481
0,0756973531687449
0,0778183099895067
0,0763355183971451
0,077261945259315
0,0760642280740375
0,0780563018536918
0,0735057803846018
0,0751091057175482
0,0763976193549872
0,0752876668338786
0,0710144012059845
0,0778861668649777
0,078348063796642
0,0749651259914583
0,0712707456571795
0,0735843615664719
0,0713910375038969
0,0729492440250206
0,0704293984050789
0,0746220477102665
0,0709750052475711
0,0725112323282095
0,0731721926526668
0,0752350095515854
0,0724717209478913
0,0749021037110477
0,074020493176587
0,0763086707726815
0,0738165556814479
0,0754275516459629
0,0736964274085642
0,0731478652822277
0,0723146045799596
0,0728491469849343
0,0701013836504895
0,0753192056450332
0,071503787072507
0,0728764902714639
0,0727430354651343
0,0725518848101779
0,0728152529746444
0,0742824996587304
0,072173711211048
0,0724518004436307
0,072061770415379
0,0733615532751362
0,0695538638330887
0,0705398619237276
0,0692970730619134
0,0751868360775373
0,072222066907987
0,0738637134001545
0,0736189030587954
0,075003120148621
0,0720307713882784
0,0738972626640467
0,0722139813445764
0,074139760563591
0,0727918107833118
0,0724639343758888
0,0685396945723374
0,0713256102662166
0,0736517158476103
0,072866221982626
0,06898835455574
0,0751682651593967
0,0732938684130478
0,0756563422465154
0,071426940751356
0,0712528602371603
0,0696149328145284
0,0739862890452651
0,0707319614872583
0,069214035682427
0,0689455587906196
0,0723443980307665
0,070242852157187
0,0739609546207852
0,0722084074160081
0,0740691562839748
0,0702088842935323
0,0734529607018322
0,0716603467806685
0,0738280488835053
0,0691494736228845
0,0719075318986345
0,0694960072259338
0,0704513592638687
0,0699771963162216
0,0720535492619603
0,0715234669705166
0,0735611247071919
0,0675222684398326
0,0717893499401863
0,0693128542868999
0,0733081298765292
0,0710156793364223
0,072262033524831
0,0708906125722282
0,0732127572118392
0,0706209625995499
0,0724369453257948
0,071511508925963
0,0747776257388691
0,0684550299913237
0,0708969108131172
0,0694555840897104
0,0718379603598011
0,0733509199899168
0,0732182650552621
0,0708996994118378
0,0719360193095572
0,0692956943219158
0,0723790881969948
0,070802093330587
0,0751054277251511
0,0712918467545097
0,0714973408060675
0,0718230778710885
0,071697944681763
0,0707891357038905
0,07575444075949
0,0721040453690539
0,0735252362465362
0,0724432661844445
0,0764568771545913
0,073261898694476
0,0738045282490595
0,0691149833305736
0,0735140831033967
0,0727760379394297
0,0746006941080792
0,0709819058453384
0,0735492686740785
0,0722514816261374
0,0727888457014011
0,0689253903270956
0,0728931164471452
0,0713153289998777
0,0748611661259419
0,0735120979844113
0,0757941173690721
0,0707038742578689
0,0726472063826526
0,0717891625023975
0,0735986460307725
0,0703697971939536
0,0730066274410041
0,0707991292521032
0,0733068931118156
0,0707542979669621
0,0739289359507694
0,0706474984502911
0,072498128187888
0,0709050676099339
0,0745556295997892
0,0734138175066571
0,0736474931365985
0,0688164677269783
0,073937181421983
0,0714238971349099
0,0753035784561949
0,0723144582433116
0,0741796306220517
0,0726559004418686
0,0736407325556113
0,0720868041254044
0,0741868843026151
0,0730201667943319
0,0761448715776745
0,0725819124320261
0,0743016858262118
0,0750319698983021
0,0748442867652229
0,0719194755076708
0,0751106697493564
0,0720302223893746
0,0737348810157576
0,0716016160794837
0,0743752118614423
0,0737466371756624
0,076541705362389
0,0751743170818467
0,0750160621898752
0,0745150412829985
0,0772949382497756
0,0729252457077015
0,0759432723551809
0,0716632149464461
0,0758489877135318
0,074357715159119
0,0757393317023113
0,0750265746266714
0,076013000674976
0,0751123656276341
0,0805654772497383
0,0727618494092943
0,076716260858919
0,0754157927409014
0,0771579845526324
0,0740035233234324
0,0756374062084652
0,0739243513955599
0,0763144430079477
0,0730979540749285
0,0785674010892483
0,073243211007725
0,0737436447485718
0,0749221306510483
0,0764257057089339
0,0740580499778462
0,0753238421830992
0,0756292337613041
0,0764220482488224
0,0737693186761963
0,0773994674888817
0,0739802305252809
0,0756879255862085
0,0753246171588211
0,0755788880116026
0,074502441330208
0,0790359924883468
0,0758779183784581
0,0798910621999941
0,0752480828568171
0,0779149088522148
0,0762400035648641
0,0776227636679307
0,0744617568029013
0,0763399458115397
0,0744112829851715
0,0784176196650323
0,0745395462478072
0,0774431562361506
0,0763938151344598
0,0800674367151594
0,0784633761286477
0,0813914357275088
0,0758462891442609
0,0808192366412664
0,0781350668672985
0,0781642916821499
0,0765665202015208
0,0817426515252018
0,0782881238421036
0,0803175256079411
0,0798639030207553
0,0813894449300824
0,0782042738778473
0,080203029009495
0,0768609805631315
0,0794635819557654
0,0758057003771571
0,0798815564180581
0,0776231497106832
0,0796893066902034
0,0794519924123
0,0798480980727288
0,0777744179614603
0,080777284280216
0,0778378024519732
0,0815466756079869
0,0786133231588678
0,0817631903261878
0,0791734861200222
0,0802275070025838
0,0805866381760472
0,0792103714096758
0,0774282016803103
0,0842817343668108
0,0780243830648472
0,0813791368491429
0,0774404463565202
0,0793961613926223
0,0780617034939282
0,0807376765089221
0,0792433740209064
0,0824497253570749
0,0763623834637251
0,0816259706577489
0,0798579834557983
0,0836532336103784
0,0810884611052851
0,0834242571154877
0,0807202228348584
0,0822420384097497
0,0781871623327125
0,0835635302577079
0,079256091362275
0,0828087465613438
0,0813342089418043
0,0828310749385809
0,081424525115658
0,0864316256918373
0,0792656954517707
0,0819385501072073
0,0780108570122121
0,0845341370174752
0,0828293609800407
0,0847540422405722
0,0828350416549824
0,0850804825142941
0,083047424018906
0,0853430224481293
0,0809002273876318
0,0874077579788713
0,0842146691413826
0,0884096909816342
0,0851241675342243
0,0847223922133064
0,0799547348302904
0,0855689250466367
0,0807941330181491
0,0885086348268602
0,0890308741164502
0,0920676762242972
0,0853117707776056
0,0871973404185796
0,0794992305574303
0,0837428198258561
0,0867459099412925
0,0946251832917469
0,0768208432960612
0,0877598800459281
0,081633662728273
0,0846706947862023
0,0825560174694862
0,0895424539952321
0,081088204776575
0,0908122322724972
0,0777868286318492
0,0931769881967644
0,0799648618385843
0,0875699070675435
0,086593453013849
0,0930968087270403
0,0872115105009564
0,0901645339104247
0,0807196720344984
0,087289092620036
0,0821278523805068
0,0891696235867509
0,0817479498054415
0,0974677002390541
0,0801246732693984
0,0927296069333872
0,0773494259232483
0,0914214312321019
0,0757602744508914
0,0867847665247892
0,0737842388107199
0,0977383426253112
0,0837378990652465
0,106929619989324
0,0821902284969877
0,103410352396544
0,0703955461826025
0,0996820819105913
0,0760081196169595
0,114134470959177
0,0747242701019832
0,107399938793791
0,0674090688510105
0,117598201859635
0,0810228807723552
0,118611147729733
0,0694557996959856
0,109459087310407
0,0832779551701918
0,109625326401397
0,0821272672155973
0,108258648975617
0,0960237127571088
0,0943643177726218
0,0920224757876126
0,0933476709166519
0,099128818559577
0,0879085672933177
0,0993311740161656
0,0877281827976845
0,100836704550616
0,0937981757762093
0,0982557564746441
0,0958396092716048
0,0940910911371652
0,0970282103618646
0,0911647670342458
0,0953927859276217
0,0944964188053066
0,0986056241656558
0,0944487354526123
0,0959155975774306
0,0960432155418701
0,0981264645339557
0,0953568859383698
0,09799616676811
0,096325833200105
0,0956834921384923
0,0942991170652291
0,0988009226967927
0,0968829968534115
0,0963340901525996
0,0972693226567207
0,100020765029623
0,0971188117587649
0,0976746914383919
0,0963585171189959
0,0988538455173826
0,0943513167852847
0,0968714145059098
0,0972178522078039
0,0984074572689402
0,095983739154283
0,101353287767387
0,0981734520474083
0,100909425524755
0,0995147374400089
0,10202340068344
0,0991778340092656
0,100684079290541
0,101012495447421
0,103917910159485
0,0977221462591247
0,104146356167014
0,101115739330502
0,102386249559368
0,099211483555994
0,101439194870966
0,102134753727574
0,103249508824688
0,104435719934266
0,103573801827269
0,101378813621311
0,103694063089542
0,102499387876041
0,103083813831616
0,104350142660031
0,103361941836455
0,101651400171419
0,106953691834825
0,103343499717213
0,103994900564995
0,102519429676687
0,10678904763273
0,105387261644643
0,10489340075383
0,104490742786128
0,104087239436267
0,104946320844127
0,107397223702856
0,104565486155413
0,107190920029336
0,103544307526928
0,107843422136575
0,104574973489182
0,106401208534444
0,106727256140829
0,107924393956391
0,105911137089812
0,109258475929368
0,108350269005624
0,10978860861442
0,108126048861981
0,111095658631491
0,107416473576869
0,110545005475165
0,108699054284891
0,110894548655562
0,10796633593882
0,11063469962763
0,109899877850191
0,111599905691716
0,109962839294169
0,112158989023775
0,108940003297813
0,112696622254378
0,109923507480906
0,113713267069802
0,110673370499558
0,114087663385079
0,112783435344904
0,113796897780024
0,112058591740193
0,114759532892929
0,112785536361224
0,11630749377972
0,111913019148835
0,115320537085816
0,115110919597984
0,115038291764719
0,113594118038732
0,117994473569332
0,114250536548237
0,117302520135722
0,114926107267289
0,117864874465219
0,116460804146735
0,116538083134409
0,114830965034228
0,118033871494398
0,115679041837687
0,117858213042964
0,115362577107715
0,11941941484382
0,116766178060956
0,118211466749096
0,116502616847356
0,118396360821521
0,116987387078705
0,121110197613672
0,1171140130778
0,120034087390903
0,117371052927873
0,121499179752327
0,119297034764098
0,118969952009126
0,118914887572957
0,12167636020326
0,119373627653501
0,122017286186733
0,118984880577712
0,12221222943689
0,121233496495811
0,121571637579264
0,120207595181123
0,12339868758223
0,117309034161292
0,122082359970543
0,12236993640395
0,125008447659347
0,122446111630272
0,121631245472167
0,120162328950496
0,127575010273156
0,122612166235545
0,125356361270015
0,122316211064597
0,124592373618305
0,122844083582224
0,125580341669286
0,123239594646311
0,124001645437072
0,124179737551015
0,126037502202948
0,122464418372646
0,126343836743852
0,12523664692496
0,123800544709557
0,123870195390433
0,127220845702662
0,123387326033923
0,126724367066387
0,126230250540544
0,127127025141496
0,124278581597904
0,128724635024118
0,123811533721918
0,126064440942284
0,12517191868896
0,128706086305267
0,124995095991677
0,125466118606689
0,125838453625288
0,127648511979311
0,125613464409522
0,128616190391636
0,125464670881795
0,126080161130053
0,126089848462783
0,128937347718555
0,124382905323338
0,124441558382897
0,127027119939915
0,128387444233545
0,12648874749065
0,128806424226604
0,12773641424808
0,127128639447577
0,123562226300003
0,127628034991955
0,125789111464361
0,128668726350528
0,126369388981342
0,128513556378682
0,12567083702208
0,130030003398547
0,127494545873225
0,130004280864497
0,126598804708208
0,129861190731921
0,124960040487324
0,129119637487169
0,124704392959348
0,127792460693151
0,124376858903031
0,127151494859638
0,125215340427109
0,127981498749201
0,12520461572472
0,126581168641978
0,126443861945173
0,129730197130575
0,125989998782184
0,129406251362484
0,12514788448204
0,127596131152775
0,126929354924615
0,128884456542685
0,127050520887656
0,127558604753346
0,126277018467567
0,126672368720794
0,120988297571706
0,129043484759738
0,123982365659935
0,126704300454202
0,125742894945751
0,128091728449597
0,12394997678164
0,126692747784936
0,121561619431853
0,125500246788927
0,123975718336737
0,12613987782221
0,121472214252968
0,125809163213809
0,122108349577748
0,125408009765229
0,124901622994894
0,127233089809305
0,122266508979551
0,123357417767879
0,12033707150007
0,124563279960803
0,120919821506785
0,12517755594471
0,120029709686497
0,124650548068776
0,120053345663912
0,12287737427256
0,12150484118559
0,121834401317931
0,119371814873534
0,122485495988359
0,120568018478214
0,1225755794241
0,119086738664921
0,123763884678292
0,118087799430986
0,123152841314653
0,118555092684134
0,120493833404459
0,118567298993103
0,120418797494934
0,117239342191505
0,120593346454777
0,116366928416468
0,120536348055304
0,116680219784507
0,121219441701865
0,117206953753247
0,119203227342203
0,115032819256165
0,117043188793912
0,117031654423489
0,120793284166941
0,113778492725128
0,116971684265738
0,116321286224096
0,121515517788119
0,113625619498472
0,117214493485496
0,113362858019321
0,115459221905797
0,114425626876192
0,117157890030044
0,113771302918785
0,114454707435998
0,111139520313311
0,113619417203147
0,113977687244545
0,113916752798828
0,111010032219263
0,113378963782627
0,110631277222426
0,113550236918352
0,111215165494659
0,11329720691696
0,109498436572488
0,112866541503237
0,10819708633035
0,110592115071705
0,110450992374024
0,111799057129327
0,112870902678766
0,108884413488547
0,106193171280602
0,111449088668409
0,107569868337495
0,112045708405393
0,107202354503312
0,106950119227883
0,106480261039569
0,106560584916578
0,103397143756165
0,106078857295153
0,105482818452586
0,105794380350618
0,104553828454363
0,106380440250481
0,105433715255753
0,106940354986765
0,103863566346123
0,105500643045111
0,103635851016348
0,10541499770493
0,10466517236333
0,102203887370934
0,10118998842561
0,10253296772674
0,103728551663886
0,10890624624745
0,100522349827516
0,104644243167139
0,101405368199152
0,106681884428138
0,0985033988210321
0,106164247328122
0,0978086977885522
0,100793840579256
0,09704917795606
0,100056643670316
0,0980562187598115
0,101125713383574
0,095836417063021
0,0991875559411931
0,0964454948163234
0,097075268492087
0,0961122947514799
0,100809134786595
0,0958925875372933
0,0998168568078342
0,0961332959277802
0,0979421061675915
0,094295044627667
0,100714807824441
0,0915680724696627
0,104650338377047
0,0940281434422968
0,0969282614205219
0,0930689592558126
0,0960480417668431
0,0911539507219846
0,0956946163338446
0,0934482748446557
0,097070099654752
0,0918169550910774
0,0951130439685588
0,0900607338004911
0,0942825874679971
0,0917755455871403
0,097011020757337
0,0892881456433146
0,0927977546423964
0,0916891291079187
0,094909191631899
0,0865544927983274
0,0915134845801432
0,0870763303732178
0,0918921657065581
0,0895627697285761
0,092564905056804
0,0872802688288692
0,0896972898751746
0,103869884185449
0,0891699094136197
0,0921890601136005
0,0868748750156255
0,0915153993284232
0,0878855765879755
0,0907986205858226
0,0879078719830503
0,0878550008826284
0,0901543606625936
0,0875901435393805
0,0874377119175685
0,086722529482167
0,0881065746682092
0,0858309344767593
0,0859158304113064
0,0884050983556739
0,0876093638482715
0,0889470451682995
0,0854278128540671
0,0871991458037511
0,0974771001470915
0,0882079503534059
0,0851481827883535
0,0901601446229254
0,0781059430080557
0,0998227043625461
0,0888155297958222
0,0848902362032624
0,0881340106957203
0,0828220044692652
0,0853816697864526
0,0829454246076625
0,085636668332133
0,0829115367506432
0,0926440690858912
0,0795912655763469
0,0915743486565178
0,0794919657849671
0,0861391001446894
0,0805606206797884
0,0842574931312294
0,0826030311159742
0,0859985085930471
0,0832415616075158
0,0862125806831413
0,0827778596177568
0,0835375588852358
0,0819329826267228
0,0817899875151246
0,0784410436776367
0,0881412540201334
0,0827452234169471
0,0846857696616062
0,0804911569126964
0,0829499787664249
0,0761400176768585
0,098850547203046
0,0783812315425957
0,0891569237467741
0,0762219906306845
0,0863793896361905
0,0803221981508573
0,0826962063565614
0,0773306121466453
0,0851596766806071
0,0790277192316944
0,0840718868204973
0,0802139869466758
0,0866155539680202
0,0804646681415433
0,083162582188202
0,0803838561860238
0,082028801891057
0,0811409927296824
0,0811049499119261
0,0851330413489243
0,0772325537508553
0,081349300421741
0,0955322115461827
0,0866390627985172
0,0919592213879395
0,0821415772613203
0,0847848737827712
0,0772615026828163
0,0858268073446117
0,0777561755006263
0,0887162381402271
0,075292215399042
0,0863255066802801
0,0798608927894987
0,086258771944046
0,0789491504851721
0,0880238407541421
0,0761320233374729
0,0860848961299639
0,0757418841255692
0,0887101486260228
0,0748579017237126
0,0898049296626779
0,0698044498131957
0,0928094669925498
0,0755119229153925
0,0949645575289835
0,0638334912429465
0,104266651500397
0,0992298835994266
0,0810863199709469
0,090503647105212
0,0785073139557678
0,0849596377884151
0,0789349350424647
0,0794520526452018
0,0881676630503108
0,0803221434640594
0,084982483154243
0,0825213246441105
0,0827557037642852
0,0870226152669324
0,0787447176147793
0,0736925343979369
0,102039411444113
0,0835170508504468
0,0881418429857794
0,0822629206130672
0,0790042401878524
0,103256410536049
0,0803297762261171
0,0901348559007577
0,0878449394174032
0,0853547638931462
0,0869317149173882
0,0832112997806991
0,0848043427728092
0,082227135029029
0,0890322161094253
0,0786116484479152
0,0904690873837986
0,0793884644139191
0,0913274844205236
0,0842219655625736
0,0951581349106014
0,0967170175288311
0,0864307312882193
0,0893948595504616
0,0929626493654526
0,0893048391652117
0,09094166040263
0,0847957462788065
0,087850897302549
0,0904225513186151
0,102294865984929
0,0816690193895442
0,10161415047985
0,0970255036485888
0,0902830559146646
0,0937620100172093
0,0904766282609318
0,0999746844287581
0,089284690976989
0,086826157460609
0,12578821428984
0,0769244042370816
0,116891643018208
0,081954383276919
0,106563546796245
0,0849456052782592
0,105400520023827
0,0794295043287815
0,118056086588592
0,086304228215439
0,104359338561616
0,0893963473520778
0,106595180603312
0,104014555466916
0,103304771258793
0,10232306034018
0,0989014414360954
0,0972005392343503
0,11043836926106
0,106676964734715
0,0854940231186553
0,120471063582145
0,126090275394476
0,117498611373334
0,114103184390741
0,0856701357038389
0,146815059760062
0,101514216077841
0,114666714958154
0,102336150072672
0,111986272949772
0,108456027906364
0,100914110178459
0,129587255135056
0,11849712528579
0,107612335113449
0,127379308612432
0,100243930161721
0,133486778300312
0,11770859786893
0,121392919003619
0,108497768447698
0,131886127969883
0,0997788975470591
0,16053150589496
0,134027906560309
0,122793045028708
0,149724276320497
0,131057849094926
0,140157893864635
0,129887167197118
0,134962736996891
0,132340574091194
0,148280140968581
0,137231851086056
0,129316879700258
0,136943711841714
0,168322563657093
0,129562644309963
0,154211889984084
0,140308630140382
0,135140994017404
0,1567859531721
0,180907282237494
0,171654579657498
0,159929463171109
0,147092472572096
0,181481594900488
0,159104632780734
0,16027562005746
0,162504286035406
0,161112926550718
0,169934909285749
0,160145434599506
0,183358475320409
0,177433563848281
0,17661954739429
0,182813373976318
0,175132170971966
0,189551160701913
0,208501086297354
0,236154162140099
0,184870977959442
0,246593102669352
0,216811631540273
0,212992853880114
0,213558144447928
0,210323012349439
0,225371265841912
0,216107158881838
0,225731133941106
0,215625573661079
0,244846961319013
0,250263273342596
0,226799674117472
0,269865513591347
0,232973888142517
0,268189573805367
0,196644413105486
0,463570658038651
0,274317009093491
0,285145436729451
0,281678664289907
0,250476227484462
0,372474614426155
0,298661782938812
0,300564914284283
0,305238279884234
0,310807924182255
0,311111054110512
0,325993197916224
0,328727545566538
0,343880157762181
0,341614286106199
0,331202273192414
0,344626615365079
0,417898845025826
0,380000863178338
0,398358311663525
0,362729583211733
0,391040573843193
0,399484260350648
0,388061107638129
0,392907963763835
0,40926579954926
0,368953558132502
0,493665433029496
0,405475037443418
0,446523195921744
0,412321562051122
0,500734437202629
0,420559735512343
0,509497560522927
0,493833798311621
0,473009299503881
0,481056593187772
0,479511842880745
0,501041672360557
0,478665682432986
0,532906995106449
0,528561710865525
0,505386698148362
0,528547243495868
0,528561927992978
0,537204808605882
0,538719000178297
0,562039716469532
0,53541088235935
0,589876829054162
0,558282114839515
0,721229805027532
0,617268961010571
0,576823184725301
0,594246043301393
0,579901372003639
0,622905849200523
0,595476305551381
0,632899554052032
0,643342687599599
0,59056932342769
0,62571119465917
0,615344801471295
0,63363494046541
0,612239218678755
0,645236811245951
0,607579690208209
0,657340709016889
0,629757404502577
0,614814354335128
0,712236525721871
0,635612371821287
0,633025618667867
0,619717996795702
0,627175890738996
0,63076254728324
0,624520241606884
0,605901411444628
0,656075382145576
0,601106912209251
0,626363595963621
0,601000708122284
0,607288409058676
0,618375951277234
0,56201058760754
0,592445809050986
0,559018792299926
0,576657768370126
0,553944481072383
0,527707822819211
0,616119866717831
0,535264814620767
0,535593791032576
0,52361153552127
0,52134424984498
0,508828314524283
0,496726947275435
0,498822813056484
0,500230026381357
0,489789326003312
0,480440375125979
0,468238212433581
0,469300987344622
0,451861707882848
0,454363880128814
0,442315903957225
0,438342245828456
0,435620788320685
0,419261924440453
0,418895087250797
0,409280508841328
0,406484086628801
0,4008683947936
0,403079572299868
0,399840295448875
0,386437207683694
0,381521096062273
0,37628176779775
0,377376135830535
0,376527833258028
0,363818563467199
0,363850896517414
0,35329327632921
0,356915790744823
0,347606518178546
0,348164697546091
0,338904774946271
0,346130901244044
0,331440118772279
0,338475753182036
0,321056961275728
0,340552683088287
0,303484220827701
0,368367363849185
0,349518391793959
0,308171535624464
0,329338640102371
0,298987738960864
0,324155439861594
0,27709468740404
0,32991687026814
0,32562384405113
0,298189320537274
0,304128162118405
0,292520999924881
0,297734670007369
0,31066069411109
0,281796142405464
0,306614783267735
0,268527413708359
0,299378070167094
0,350564223681575
0,273946707553578
0,368892066189987
0,289461608346869
0,290734348772397
0,258241366100508
0,332489554607219
0,258894827940764
0,287676720159901
0,258241048680569
0,302340757338769
0,288694074408947
0,26401871549262
0,270541687926991
0,265661804638466
0,273592546911712
0,295645365250123
0,264496984583932
0,254330867810646
0,302665038159519
0,257512584814648
0,290554013925629
0,289094172758916
0,287843519120505
0,255341989991474
0,254987482267148
0,259197469821766
0,228411201651093
0,313110501758113
0,252493985514126
0,257162662519069
0,254113866692108
0,239275820466111
0,252667732089315
0,246557835835734
0,270044771387508
0,22298730181784
0,295186781312027
0,228504295545377
0,251875008173719
0,248107595947435
0,262850737234176
0,283913297383833
0,244658393447958
0,235213890985399
0,237262145683153
0,279945178659405
0,227882766113426
0,254808045554678
0,228594820278
0,224747306569932
0,258262661221884
0,232013701622785
0,232292368118257
0,248298985632888
0,223663217067096
0,27132995679387
0,252757842307703
0,269124506388475
0,241810837793001
0,21814522635869
0,229119906394219
0,219184786709901
0,231148423455929
0,212135214885842
0,23014201432674
0,243389344030994
0,189551567440261
0,277447785657402
0,222239684862977
0,217114057862895
0,221753381904312
0,216239492914209
0,213067218064239
0,227851891435089
0,237317406220672
0,236142145456484
0,213496615925037
0,248567518569924
0,205153823153245
0,225448724635675
0,205083180719969
0,220138577874103
0,205031832174263
0,227668919069355
0,20963457651182
0,216605251770894
0,210296757276852
0,224413866125012
0,203264283566817
0,260214319058885
0,185854227692731
0,246677372159183
0,21279701623298
0,256988656433929
0,229502166848109
0,211857675359737
0,220300203634207
0,210866453182891
0,214680841088141
0,218144712596557
0,198380280870345
0,254806427976742
0,205686725521522
0,229482554188785
0,203517406855753
0,224190296637083
0,204488513204095
0,238623043670734
0,22053208941189
0,237734223500323
0,271217675544952
0,216515428545201
0,232618041329381
0,20613962883675
0,223255609046318
0,22269234220505
0,209587992598837
0,220640979070059
0,200673198155617
0,235462443354778
0,213890479399
0,215880141800824
0,214166644606402
0,21249050965219
0,213775744674691
0,210469275916585
0,212382693663117
0,216057088140223
0,208744983799538
0,224268556056797
0,183443665041338
0,266123287820813
0,22475590884227
0,213151033506677
0,219034728682302
0,205828267011507
0,222283075415765
0,207603606310259
0,219003754870465
0,220050705175005
0,212410404724954
0,218254538838361
0,207158221474888
0,219679856957136
0,2104904462355
0,238439069755604
0,204974257916351
0,220523633314911
0,210789469886296
0,199802227762369
0,263559613920851
0,206655741758842
0,235100542935745
0,208193528719921
0,217136855312024
0,206722051679701
0,212757699339248
0,206032802304732
0,219458642565205
0,20923563330828
0,214450857931159
0,212717701932599
0,209618825402104
0,216240354943641
0,207702930462012
0,23000724337656
0,215449496009929
0,211527438571472
0,21251099234946
0,213804120400965
0,210796501064387
0,222854468797927
0,226628977569384
0,205102302127843
0,220397010637302
0,211717466487238
0,220346535222392
0,218900860739427
0,205716906352239
0,214986826313062
0,210808491982053
0,207627703453825
0,21863697843923
0,202346528052975
0,239268143285995
0,208553132541859
0,216696112716478
0,206347598972408
0,215624274179543
0,207306721567744
0,211766624793004
0,204910626401999
0,214629719034983
0,209270484126053
0,212956831368748
0,211525128526366
0,207946873636087
0,218281713151524
0,216185920782175
0,218486881962938
0,212538559999663
0,21216968033802
0,212483711976358
0,205562448731772
0,218832347282944
0,209346019775768
0,213705006482813
0,203720051328387
0,216489737887941
0,199166943918252
0,233755774848973
0,210323175330159
0,213332340605653
0,212861728578496
0,202203210660455
0,211866949285072
0,203444788408732
0,209570063051952
0,205652056300151
0,211514077527894
0,203152555922706
0,206567233271556
0,203451667973095
0,205856341430159
0,204514405822716
0,203310545660431
0,204337895681968
0,202821261046621
0,203213075017925
0,202206317748676
0,205123650014688
0,201083943008766
0,203977005601413
0,201507581840239
0,209204971258021
0,217980198577541
0,211996439701547
0,210108141697195
0,199938900725383
0,214620494567731
0,198110510855244
0,20823002116811
0,198876850362713
0,207113294451288
0,203201918031661
0,205419581293937
0,203375504388378
0,204638516627994
0,198170434143533
0,207569403037069
0,199178590909745
0,204568065592679
0,202008488655275
0,205471609877306
0,201473755462883
0,202670405295133
0,202721808038442
0,20724744272409
0,207558422223388
0,198928052101155
0,20669763823701
0,201536710620139
0,203837559457397
0,200451368179254
0,206031556132835
0,204696795845679
0,201933808910155
0,203811675253113
0,202128879029592
0,202745118642967
0,200750053361646
0,20114086297596
0,200166850529417
0,202329349179988
0,203103329083923
0,202771882703382
0,198953828826616
0,202056538421045
0,201226879668583
0,199362604150631
0,199108938967082
0,199068879485203
0,19971477973011
0,200540159666911
0,199524473909833
0,19868676240002
0,198251213392878
0,199635351308243
0,200815704211185
0,200934218119833
0,200435580548001
0,199761546248423
0,199400706251488
0,198125430613415
0,197075926059844
0,197220286611452
0,199428493813939
0,200151965969812
0,200244021056195
0,197891714150031
0,196697465427089
0,198164069403976
0,198847900995154
0,197875040797589
0,201320219998919
0,198911422416291
0,199321127503611
0,199510343649786
0,200083257204742
0,198767319785522
0,198174935212127
0,198571697608556
0,199129225575567
0,200462116304488
0,199583962192283
0,2000326159539
0,198720406520956
0,20152277350987
0,199246240380867
0,197163032206028
0,198079810446205
0,198608070716099
0,198373730745267
0,200292056810348
0,199835795948476
0,199283723467252
0,200143000275131
0,199928352426507
0,198875934437417
0,199806048246494
0,199243800684687
0,200586937810228
0,200675573383294
0,198112112986432
0,198368361966044
0,197293801022311
0,198847913316566
0,200663582165438
0,198986950886136
0,197664598528702
0,201047251682449
0,199047062447154
0,197013033933514
0,198448263224002
0,197267808181075
0,197962992997122
0,197225965727841
0,196165477347787
0,196691618259349
0,198564093339259
0,196066195249332
0,196916206926413
0,19605132065099
0,196664163367428
0,197249293808384
0,195498926066204
0,196270353068102
0,196658836446849
0,1966324585622
0,198057235097719
0,197563264119738
0,196191127931072
0,19622504129218
0,194985918444497
0,193898933521222
0,195286905700737
0,195490856356311
0,195465106427884
0,193249450484133
0,196323172077886
0,195195170871701
0,191947450557295
0,194623756510052
0,195736880684656
0,195350537240551
0,19301553499361
0,192944056003752
0,192528482449154
0,192438777151843
0,192684358214263
0,19137286367729
0,192312391347514
0,192753131001392
0,192968577890244
0,191984591522574
0,192679712049411
0,193550620788318
0,192612107593864
0,190465047514705
0,189372844228587
0,1908257910279
0,191150685264346
0,191238890539162
0,191821552636558
0,190878013749115
0,189890538609955
0,190158856517086
0,189529670026332
0,188502051380408
0,189220369614622
0,189914182764985
0,189659104709573
0,190437322961075
0,189912025501993
0,188658548357654
0,191392256515032
0,191360443723928
0,19046097548534
0,192081750797231
0,191618917782007
0,192279059684566
0,195707709866844
0,194004442021766
0,194423468462906
0,196264051739813
0,19831273002821
0,198038357943419
0,197941670339838
0,200116172092944
0,200921427345835
0,201375160008593
0,202537611404829
0,205332881938222
0,204600604112946
0,206482151862997
0,208027039303419
0,207430087942499
0,209162288589836
0,208581431899491
0,211114526786775
0,211936530045409
0,212245590395103
0,212040406673731
0,212830481853254
0,211446199247628
0,211611708263956
0,210744010969745
0,210443619819111
0,209571201082097
0,209523069930965
0,211292812798497
0,208633133092653
0,208228015206583
0,208512125143049
0,209678381981358
0,209912965156073
0,208172771813492
0,208887978896882
0,209180033567826
0,209276331945881
0,209968783021223
0,208751264357372
0,20856663946845
0,208362914617526
0,209200084547465
0,20940978987449
0,210604987829894
0,211279512484758
0,211795915929846
0,212805209692149
0,213298667538854
0,213243008574069
0,215443726826565
0,215680730729245
0,215453599689782
0,217449806564147
0,218901393305458
0,219293990766654
0,221476337592031
0,224176655103941
0,223309196754403
0,223793978456457
0,224678471901296
0,223384283349392
0,223186517839802
0,223562887796294
0,222013577331731
0,222219616885243
0,220623857029965
0,220808535889589
0,221908682868787
0,220120099152528
0,218240327308003
0,219598017781843
0,21959616826481
0,218972272080888
0,220325949128217
0,220100069853512
0,22511493639791
0,224435152032882
0,223418041983343
0,227100294876202
0,227641747650041
0,229211805853244
0,230415781562544
0,232583069267385
0,231504908767006
0,232504746393797
0,234345921267574
0,235093271964817
0,238512367594309
0,238977541599925
0,240495020212696
0,240769638284257
0,242001828414257
0,242262101609664
0,241950131420751
0,243926761792151
0,246119332778327
0,248835560242496
0,25002323374904
0,253618827722778
0,254145277326695
0,256064116611825
0,256382748464334
0,257274618302655
0,261010553378967
0,259831510253147
0,260907443287759
0,262648068411386
0,259675453079471
0,258716605950036
0,261402593005197
0,262916935240395
0,262124223101616
0,258367142940773
0,257462944589207
0,255914789828967
0,252303049687419
0,252093911225992
0,25199023278365
0,248277948304759
0,249733167743134
0,251433669574661
0,250638794863973
0,248696278459645
0,249177772324006
0,248764297646148
0,247319290627915
0,249012999404359
0,250159513764404
0,252931709677704
0,2522389097153
0,252734041201919
0,252269717946845
0,253247150470488
0,252099561838598
0,255488379469938
0,257406314568978
0,256892811163737
0,258567499104441
0,258170289312022
0,258322577253589
0,260842309495771
0,262322344769475
0,262431685976169
0,259356686266869
0,259506524366937
0,261031740959901
0,259025811520645
0,257790799406327
0,259667126628467
0,260493153626439
0,258310321696811
0,258479186035396
0,258000854420501
0,255923820889289
0,258247958374792
0,258713287801563
0,255399907686282
0,255671190141714
0,255778820478014
0,252205419901055
0,25383164918417
0,256340164518097
0,253209821969495
0,251835010770434
0,252599626354411
0,251221550411239
0,250705842667163
0,24788464498944
0,246566831357203
0,24370992140822
0,242414853290479
0,242651901508657
0,239116688897303
0,236882666268508
0,236343877847697
0,231418525008013
0,231327591906949
0,232969964931323
0,231622465772293
0,227216640276327
0,228194844524558
0,232693298423681
0,232238883758604
0,230260648604467
0,229670305560134
0,233554613460632
0,232256349975155
0,234733910967013
0,233649762942395
0,232744988275908
0,233471231430972
0,235128532104473
0,234539728357764
0,233013061561324
0,234322412646686
0,232443449585082
0,233079697990379
0,239814657601914
0,234777535239594
0,236300578493187
0,235021023139386
0,234374629149469
0,234741885990249
0,236378431864546
0,236718757174351
0,232075567660216
0,232822375934066
0,236586020580248
0,237704729518413
0,233937107604143
0,234500862317652
0,232164973077637
0,233033286155939
0,235904071187314
0,23558199039706
0,233074030442398
0,234602512014723
0,236266951530017
0,23553976093495
0,240380897212994
0,23753433405673
0,237017383724494
0,241752803858371
0,241067714232591
0,240117011160391
0,240775191050465
0,24292249290113
0,241693427826649
0,240019150885895
0,241915440551757
0,243243564354296
0,248362418149452
0,249536563149833
0,251439687383034
0,250804473766924
0,247100412026374
0,246850079000733
0,251720189349746
0,253984683278333
0,254051060858806
0,255007261217493
0,254195431980123
0,25898582053522
0,261387697713745
0,260726417244033
0,265820881581913
0,26494125825183
0,263613672870563
0,263234535834533
0,265234680783704
0,267265588467928
0,268490599007416
0,270116718739097
0,272874299945235
0,269562435882092
0,271336398892075
0,275199558220273
0,279989850690755
0,281207801708876
0,279434967061527
0,27960751432271
0,281834316973251
0,284621115230284
0,289332056934727
0,288997171188498
0,288105586545363
0,289134656067005
0,296194888165712
0,295580096000033
0,294521784467763
0,299757132128481
0,300563606473743
0,299252184643216
0,303724318607192
0,303552342262907
0,307540438364423
0,310356516218602
0,31507001313677
0,315213027604049
0,314383194420708
0,317660583286056
0,319086171399167
0,319661874985407
0,323785034115412
0,325060844635547
0,328955932100646
0,330456068552763
0,33780681575213
0,33704146584686
0,340096378067739
0,341577475421288
0,337087591906985
0,339581217964509
0,348759764876285
0,348504962516241
0,347790921202798
0,3557366748527
0,365322759124536
0,368075586130746
0,368192421453692
0,365458518689973
0,364370084506112
0,370072353275815
0,370901899309467
0,374408077655988
0,380237160237556
0,376716484315135
0,381090692060007
0,382130642988515
0,38714854713017
0,39252570699629
0,390784239635045
0,395396208276357
0,398566721335177
0,401843617279653
0,399069283865489
0,401158694000034
0,411627376754863
0,407432718599462
0,420453277007362
0,418057617317985
0,41698076486123
0,427081915104453
0,425551146840118
0,421996307378536
0,430743792519205
0,437251441818569
0,439902548981549
0,440005626663208
0,446565641641571
0,448024943589821
0,447033872045085
0,44785966166382
0,442903316946839
0,452733606806573
0,463728501213733
0,468358925411441
0,469811094080065
0,47086212267752
0,474943749232508
0,477923547897019
0,478021789771068
0,490567473823412
0,4868867247475
0,486702779219921
0,49339467122974
0,494829671187145
0,499287470118215
0,503119383381744
0,515773661703561
0,504695163261621
0,502513451149199
0,508333320013226
0,511559457818065
0,51766536001213
0,529121989239959
0,524854891098586
0,533519635032012
0,531839536028006
0,546514679887716
0,545454682144856
0,553457451178624
0,542440881256782
0,535656835691436
0,552085207027604
0,561486483816556
0,571413516648908
0,581587525419764
0,573762068759639
0,566826179818268
0,572272198512492
0,58749404791421
0,596885083185271
0,578193319963513
0,577826692253071
0,584232459821463
0,594918552339309
0,604412112907174
0,60127149792597
0,588723875340851
0,600603158289357
0,612162317668647
0,615038065943595
0,628685602066507
0,626067156386115
0,624217218726436
0,658171898702157
0,649450416729632
0,620581013704568
0,619782391774318
0,641856288678029
0,645904798202702
0,642956706955561
0,656510747508725
0,65337807217312
0,670086334933683
0,667119522322167
0,667665080100355
0,681969486533302
0,661092152920383
0,657894217298362
0,6729715226518
0,695320308047375
0,691848113712556
0,717394025472515
0,705526231209368
0,686495482296059
0,708113161334413
0,72094312071002
0,730972913302436
0,735205620766325
0,712185251422407
0,727528510845269
0,729798799698315
0,731163838625957
0,735257240757671
0,75407406475777
0,769583187450446
0,742110709115158
0,741459265270924
0,759627817445184
0,722053051958108
0,775660715138733
0,771292090750442
0,786237039165745
0,787221164266989
0,792127213578875
0,769280121520617
0,773678393082419
0,832782652003189
0,804423240589602
0,78855915928822
0,815186046765897
0,809602050797474
0,784465632834363
0,772094576023656
0,801400670229813
0,770456323179202
0,792797274769941
0,847381015320925
0,859658913218261
0,854677167304178
0,852079306227512
0,822314247597477
0,831748117292248
0,828081097754347
0,851752777863148
0,828837934511072
0,881004862275812
0,885518862036265
0,852753165925763
0,915862108299291
0,931871491490808
0,902843199904575
0,907328404391412
0,896554239389786
0,904973045475311
0,890469154966015
0,864849403996561
0,939400347380728
0,966018523816576
0,882067852488565
0,898301681580663
0,929348592100072
0,958061594224262
0,874993963094838
0,919148457942678
0,870654750289536
0,915652542436075
0,923869286600642
0,921564197711996
0,958393078503537
0,902481244780064
0,873355551312319
1,02364946719302
0,985106767075726
0,907115736849997
0,916961441872634
1,0197346647135
0,983924342903173
1,01384947470969
0,989010996311981
0,945354491923502
0,995607205299666
1,11577812073447
0,897684631161899
0,919233883443167
1,02607910922748
1,08762541032097
1,01855564379357
1,06037820014377
1,00581794369677
1,10998703898656
1,22969239022431
1,16424532724396
0,97279814304198
1,08250156913361
1,00266421467859
0,944649686223589
1,04973927385094
1,22913245994368
1,22026635336304
1,18051654332398
1,04253171310475
1,06410244122875
1,02076493632707
1,04163122469167
1,02043491870722
1,1608630389117
1,22113760037401
1,28285395826031
1,24477979593645
1,1888900136375
1,07599898617303
1,42968856961924
1,19876586193136
1,0874497128415
1,22350002113998
1,25469136804254
1,06982316359513
1,55628125931556
1,09749469363147
1,36734671578692
1,51961623997232
1,01350206969343
1,05795750300118
1,92239489647399
1,13827122627339
1,14593788259789
1,04615714835336
3,23573666902436
1,07909044289296
0,869464435653719
1,12834158556803
1,17666850649468
1,16673909136186
1,27779611528114
1,15512817626646
1,38999032923324
1,11862124223312
1,1744287083152
1,5584954120928
5
5
1,15185960003219
0,761291644858995
0,770589158042166
1,18951658690426
5
0,814051635258258
0,985332273332344
5
5
5
2,28652545741106
5
1,14576295560668
1,24863703445953
0,984759651597235
1,22831720036361
1,04345614341018
5
5
