3596
4000,36533379555
650,420452594757
1
2
2
0,0126895728744559
0,0119486704337831
0,0064536361296698
0,0112264304808086
0,00866620278211013
0,00822131787434247
0,0151360061347016
0,00286158592676069
0,00726488352915464
0,0108298442095967
0,000797291312037012
0,00591871823289296
0,011615391674231
0,0175252667802665
0,0132916834453358
0,0145911982992066
0,0096029777365923
0,00379372691636988
0,0140557271243832
0,0118720018161383
0,0142688088136865
0,00981142461625757
0,0106062552421312
0,00456320771349847
0,0099087163126616
0,00849079687872347
0,00824332001488298
0,0118494658387545
0,0223441585899404
0,00977696063953886
0,0138386079930429
0,0160725923412782
0,013864109673538
0,00949459380430961
0,00766778612685833
0,00579757814878531
0,0117424026950048
0,0148901200484746
0,01443364950754
0,0150224936704702
0,00982664140780358
0,0138538895956345
0,0111354079478862
0,00404911701040248
0,00898858849644803
0,00772432029165184
0,00729155299688651
0,0149538637780572
0,0062401348072272
0,0141627421058651
0,00582395370178232
0,0109517492345514
0,0118918437728299
0,0063404815799901
0,0112321770558265
0,00425543161863547
0,0142212096730723
0,0120107753492259
0,00823176971784139
0,0113996994499041
0,0130631026140324
0,00715690729087943
0,0115286269211038
0,00590536166308762
0,0116740122141124
0,0112536196398529
0,00879551753728383
0,00895190781595513
0,0130761572300199
0,0124292593013307
0,00988015568670999
0,0124300333749335
0,00893951511007069
0,0129419426599269
0,0110204048547774
0,0044651134674028
0,00630770258449897
0,0135642953439774
0,0109363742007038
0,00799409578474933
0,0182769386387255
0,0139313437831532
0,00898132413516179
0,0112738501725048
0,0155124221540211
0,00546213104849068
0,0129915840852814
0,00990762973595124
0,0064389226959466
0,00216465538914097
0,0102917868439729
0,0141539118157253
0,012201873341311
0,00370015492178526
0,0163884542388304
0,0119862030173625
0,0090270366690616
0,00286941507471351
0,0128750323604434
0,016413652988592
0,0170974528815369
0,00375659406652782
0,00494918007407381
0,00912262554213173
0,0121372974295434
0,0155438750687188
0,00519873498147604
0,00844489435762612
0,010047221008746
0,0157681274361867
0,0150297743433744
0,00737711497578932
0,0115174524995019
0,00555459365808937
0,0191265460537214
0,0113916951787145
0,00689378128517623
0,00706629301432037
0,00997353486602966
0,0104047080291713
0,0107606442828255
-0,000729448398616724
0,0189710028790162
0,00714067915927721
0,00932388169318632
0,0130062515718376
0,0122272620626024
0,00854565048849002
0,0135690763898821
0,0130865762749585
0,0097243312281163
0,00793558108732542
0,0123158227579819
0,00526813430944687
0,0145552527125313
0,011848410227832
0,00856762496835066
0,0116969970728696
0,00649274646545887
0,00506634278782825
0,00762661818579064
0,00707539348711137
0,00814477176387919
0,0136444984989628
0,011194123872469
0,00988130974407654
0,0140945020273671
0,00575472881675575
0,0153987427048125
0,00633914985445008
0,00302382066538361
0,0125321650722855
0,00699064284226746
0,00735423233539991
0,0122093280641891
0,0234479466277685
-0,00133941663901773
0,0153047899973701
0,0104666438508895
0,0130551681517261
0,0162186731794559
0,0117907865362829
0,00863533702845847
0,0110520380556295
0,00826250568896781
0,016324599531116
0,0119691607025846
0,0103772083709105
0,00985052674526476
0,0192050464416177
0,00768865816131087
0,00717573562103435
0,00371149098241076
0,0164786604540638
0,0181907263695898
0,0078067398256451
0,0144670755688421
0,0172775128936992
0,00801696368799866
0,0132686848028952
0,00629927426190487
0,0158665759107252
0,00971681293849502
0,0123809778779269
0,0164930838336555
0,0119559712547474
0,00933421548395773
0,0154688792560781
0,0122498091337364
0,0148500074814517
0,0219895755702481
5,67445214841314E-05
0,0115877487857838
0,00932516805080363
0,0101111092319448
0,0206722638009222
0,0181055169627953
0,00613757755279195
0,00788218369620369
0,0129285302800964
0,0109142559035685
0,0152045871173085
0,0149184112564726
0,0173694476590252
0,0099368056829676
0,0110386823967141
0,00345274739857187
0,0115763546856148
0,00790328371923862
0,0168550127954779
0,01092518153678
0,0160221142559955
0,0136808694132877
0,021573913345988
0,0132767571393851
0,0104955582426472
0,01451911798014
0,00788050945385152
0,011769990782545
0,0132294216946154
0,0143930681003403
0,017139074904204
0,0170059982529286
0,0140034839907228
0,0111390593520969
0,0171263153132433
0,0198712923822181
0,0154637278603897
0,0157438355757733
0,0172911621160376
0,015232748901776
0,017754985111026
0,0128654496582866
0,0147344706925593
0,0109074193992889
0,0159420963210802
0,0171477501420697
0,0194242645589747
0,016375380725825
0,0239961383674971
0,0176069738578628
0,0168007602673395
0,0168903682995776
0,0122043588310327
0,0113201406930698
0,0143043694373648
0,0135523365933303
0,0210321110960571
0,00675322293125874
0,022754384649265
0,0165623263688769
0,0164132256412476
0,015580975541338
0,0223644201746835
0,0184988282388462
0,0233264088674296
0,019846344285989
0,015967759648959
0,0250343490058001
0,0176135323331614
0,0243075059764594
0,0148459492815381
0,0263315177903458
0,0211451159794733
0,0261614411722259
0,0186050299389153
0,0268674017739163
0,0173277449530359
0,0104597899908219
0,0160171382683243
0,0211311680935141
0,0201516302119317
0,0160171543452761
0,00911678985905412
0,0192610229437057
0,0226135887291652
0,0217587168139191
0,0178913182441347
0,0207096164560671
0,0283761585549023
0,0174199831990078
0,0246231228688815
0,0169740443292325
0,0365528520727756
0,0230737240507099
0,0267116990943388
0,0265012509546005
0,0249566968834249
0,0204107893025268
0,0304411995559471
0,023015188377547
0,0296465500732634
0,0255463362282601
0,0290355085099009
0,0275545780476971
0,0266531045567592
0,0338318944192613
0,0327702605013463
0,0323780636578756
0,030752890049238
0,0276172916880123
0,0350582419233624
0,0344873621698277
0,0299283434681392
0,0383680653805686
0,0393085503644047
0,0329310067027387
0,033441524810123
0,0450023693371049
0,0345565673713257
0,041117073339065
0,032032166909366
0,0464043112722607
0,0359646817844146
0,0480558839414626
0,0415040965663037
0,0459316523527257
0,0501971989380314
0,0462717317782694
0,0456163489943468
0,04219995099833
0,0461842960240487
0,0457112728142022
0,0475718158820566
0,0468339506561155
0,0585171989024077
0,0545582521000304
0,060701359542866
0,0562033473187719
0,0685255115359561
0,0624201295090457
0,0628370368926963
0,0673059233618369
0,0635214325425976
0,0658500770989887
0,0677425236506955
0,0759232331558748
0,075185436334368
0,0752441231135499
0,0788075489362727
0,0857330500176053
0,0825680624284155
0,0846824103546668
0,0909650641978005
0,093602560152923
0,093015956936407
0,108116204298273
0,089506276609048
0,103652955941149
0,0967128831617462
0,0980742898377151
0,114765196759563
0,121892086782055
0,107042637532894
0,132049757098307
0,119818663440916
0,125952453276903
0,121237748354784
0,129023352104942
0,136559570154611
0,137873809246245
0,136748305298502
0,148231269417137
0,144911046269148
0,152272343623356
0,154293676905597
0,153237641579759
0,165813640588939
0,154166859652629
0,156851952598238
0,170523909630634
0,167526926026699
0,174041825220035
0,178130008496268
0,180151823395874
0,187369668469333
0,182540652770243
0,196029664568307
0,18469297408526
0,196932697103663
0,204072292944741
0,200286914403618
0,215562372493511
0,215048205574511
0,213823422183544
0,212894107738794
0,21510138820904
0,216486275275433
0,23353207137007
0,21657500184022
0,23463253177012
0,237563395359929
0,235617820621099
0,230286976568196
0,247506356325821
0,238792980115315
0,258201138590875
0,257301295417824
0,249638356499344
0,24573705343024
0,265072676084981
0,253686984387953
0,266968310956081
0,257071477650046
0,271552961063927
0,272048269525399
0,287263731534978
0,278187601653492
0,292893285842053
0,285333283600411
0,300922208733332
0,286982880223332
0,304414601374003
0,297281507234861
0,29709081885524
0,289613029969894
0,31313579598177
0,294507679401631
0,323544081433667
0,292240129570946
0,316582286895518
0,302865095529704
0,327983103573685
0,306773938194358
0,325115515907779
0,310202662874295
0,337792463300376
0,329211768911714
0,329420503172446
0,329161890288834
0,360672613275383
0,335993328681251
0,355748872327329
0,327040649145715
0,355624801111719
0,344822763977157
0,34151461455505
0,331042746581573
0,361111687530712
0,358353349211114
0,376500524598423
0,357707940504189
0,376073258992985
0,349143242157295
0,375726571581718
0,371699162986799
0,376611281953425
0,371309490908341
0,380189263033943
0,374416406758284
0,411843700477224
0,388997263771522
0,428965772295073
0,387153119983798
0,408442728238366
0,407577222015694
0,409814490846685
0,400531183786515
0,404847127326239
0,414539374866911
0,413221717827374
0,413949853121498
0,455754844602906
0,420240789307196
0,464272977294845
0,411743267823739
0,429634405417215
0,427167942505163
0,453838190499379
0,430639458706685
0,449827578919808
0,446216217060623
0,466347221559332
0,436425697064362
0,478765700435364
0,450066893642626
0,459374113473225
0,457407984409193
0,472772911144535
0,478028224094318
0,492321781230313
0,470563639989402
0,502965694667069
0,478098749023526
0,502385736999805
0,479818738983781
0,500635443119098
0,49197694360083
0,519224412449166
0,478470578112854
0,524301774741793
0,47857665223356
0,508198429356607
0,511848362269816
0,529899580921397
0,51578723004069
0,551361500980322
0,536829962413751
0,563930297907893
0,522574989657488
0,55961118370923
0,533278614812268
0,554424464286889
0,579243881457553
0,586404509224197
0,5525943326605
0,564313855433538
0,551459568305788
0,554123483710299
0,576313799552176
0,568067628983469
0,558519235121385
0,612161025029715
0,554951282662516
0,585408159832236
0,58864600424762
0,588357229870368
0,569523611598467
0,609483398655332
0,602668219665604
0,626194315529615
0,592568592550972
0,6092106285821
0,602137127419866
0,629840247724864
0,61342018141791
0,658153710105356
0,607532048033444
0,630498697043122
0,610801470419332
0,654133578559231
0,62695842595008
0,644745502234469
0,623917013551455
0,648834598019584
0,627150645194213
0,674993939944814
0,645878060554417
0,680594702762349
0,654560647953969
0,674210169520685
0,662166179331242
0,693136315815118
0,659292375975725
0,691972119089235
0,675930290214095
0,693924661347274
0,695914431873548
0,692770880549496
0,665661540529739
0,695919934491601
0,667335328261546
0,735852400482463
0,702112526390741
0,731847753760282
0,708243976163386
0,714018528670104
0,697735935310476
0,76296412496756
0,742694898731743
0,784961838216617
0,723826147328705
0,757046243986242
0,727278254329474
0,750073465731097
0,74610375329546
0,746348662380999
0,732920930033471
0,748681230604961
0,729728022386574
0,786884853279267
0,733375548629322
0,761450821162264
0,774230101894666
0,830056400240949
0,796783630380057
0,802922520886306
0,74304727676585
0,814461634598328
0,798533192484691
0,843391061270935
0,797367223034652
0,828781524596668
0,814448721718204
0,839309352975559
0,80972348871773
0,871666410401739
0,776115427534066
0,896400774975583
0,814201592393901
0,907695883431308
0,853025992433071
0,849038130967186
0,801184751482661
0,850790372431192
0,860269632214684
0,834912151848633
0,843128439246372
0,929065067056078
0,842421034608481
0,90072007724413
0,824011081714818
0,891565598423559
0,839022888496084
0,885820368757312
0,831874895010834
0,904374610791065
0,828700655253277
0,923889685425136
0,877694298219157
0,941913240913712
0,878429940572912
0,945665213479995
0,883798752522064
0,923717707561841
0,916642140275245
0,99201801228642
0,900123389791627
0,971391398676784
0,878676843978065
0,972890218865553
0,908450833856
0,981770054253246
0,889406211335096
0,939472019760252
0,879384442917761
0,968986750932609
0,93288480345361
1,02167282299579
0,921385307395298
1,00710332506918
0,940326654705855
1,00410555461005
0,922341497428748
1,00409015964938
0,942403473707084
0,990137433881971
0,9685365991036
1,0551797213538
0,939880173324822
1,00479253690292
0,936334088729861
1,00565883543737
0,946371926131012
1,03135082454909
0,945855257319115
1,09590127726175
0,972635209959632
0,996314802721139
0,998640349486859
1,01246905073339
0,977268158006758
1,03152242652505
0,982170996299676
1,0943344141401
1,02969445242017
1,05603806120068
1,03916643076624
1,08319465050051
0,96680582609727
1,08660338920707
0,937850788853906
1,067897092651
0,969215152124502
1,05008701289684
1,01127287262683
1,04881193790127
0,95512041175093
1,10048407876306
1,03959616601272
1,08090267448791
1,00721852630881
1,09900923449203
1,01089223024984
1,06193810808285
1,05302373688267
1,10205268275365
1,04218673009765
1,03648419846582
1,02153906414678
1,10863884516431
1,07095619427956
1,0939424479558
0,971167669860818
1,04130917879777
1,05675213034112
1,09007072963617
1,05034072890828
1,13480591793122
1,05462176917158
1,05229001632445
1,05816926720911
1,08896675285618
1,03249681923319
1,15086385662808
1,03944167892405
1,1233320923338
1,02981388205854
1,09785601849449
1,05000581418359
1,12677478116223
1,06706293629409
1,05606589623172
1,06160037572202
1,07000823210443
1,06637345728815
1,08913020152905
1,09348604467747
1,15022330123809
1,04447466108438
1,12445884609282
1,00708667966637
1,10449819488777
1,07410401434993
1,105408184579
1,08204882964418
1,09996393356025
1,09349961980021
1,11695086938337
1,07274705162118
1,09900898547017
1,06266384250491
1,10437111531342
1,00813266136797
1,08473471154227
1,04831660126024
1,14329197714612
1,09005771344071
1,11351867355756
1,07655093765646
1,09915492612054
1,03063133839874
1,14026899333661
1,07328232233199
1,07825616306332
1,02198328423662
1,12303800061628
1,07599330702549
1,05989571563894
1,08297450094256
1,11582924343907
1,06659041029129
1,06010322754473
1,02504442058681
1,13696751765955
1,06711016798384
1,11074766652175
1,06813778323727
1,06019793404574
1,02809166164774
1,14989925523846
1,05836307648083
1,10455542835295
1,09855002323941
1,12556822847386
1,0715310943165
1,06738015037798
1,04860886561939
1,05368839923228
1,0337134808888
1,05407512784032
1,08585557013674
1,12709270783544
1,06941487699798
1,07814910826839
1,02567920330842
1,0874096194368
1,0516905608879
1,08124780808139
1,1052826840076
1,16856203394912
1,07416712188747
1,0727259197693
1,07453768342777
1,13175910864356
1,06549217019369
1,11085199700772
1,04743040732273
1,06488543505808
1,04233968052664
1,0817645451984
1,06575314739066
1,05666728899276
1,08721501623799
1,13626869336966
1,1078174761692
1,07792010954382
1,03849161755513
1,12198848393167
0,989544281457283
1,01564116584824
1,06106007967058
1,08262356565521
1,05474405621794
1,09805666739697
1,04096568035837
1,10527784100254
1,05517076748968
1,11767703841308
1,01858350943165
1,0709186088819
1,05702460491888
1,11451632166541
1,04717801717155
1,1175800585924
1,07212419162495
1,08129798826249
1,06841355736622
1,0517920272612
1,06551225338582
1,0501028258363
1,07025098847549
1,07746968997588
1,05267635906866
1,0921744823764
1,0310970945395
1,07304353687365
1,01734780034494
1,12668743394775
1,03255213274866
1,053691828862
1,07014428725367
1,06255073132614
1,03437036338657
1,06307469464137
1,03540846631395
1,05774357266527
1,04193039868096
1,11281839727617
1,05436643448664
1,08259555299167
1,00615457471068
1,06179060815656
0,992801579738619
1,05327707435923
0,992566883602282
1,04755541204577
0,99500649645295
1,01944113974793
1,05419211491571
1,07731320961779
1,02079294716412
1,07728649742994
1,03299478906905
1,01527854821258
1,01768274052225
1,03429733137582
0,99083878568171
1,00734194673774
0,965883210057586
1,01363952541693
1,00349983188084
1,04540274003865
0,947810930540256
1,00158021752636
0,985475860162581
1,00296597444881
0,985154740878862
1,00626786861995
0,987901791959754
1,03009841432785
0,972583413032908
0,984293911143673
0,935385067177721
0,968179443745072
0,958404184683356
0,97004815857968
0,951519345401898
0,970414520731462
0,940475042730364
0,976112749401041
0,933195951461541
0,95685756191544
0,903442379633831
0,961913368012422
0,913627671011107
0,922413425235507
0,919093028764326
0,933056462018649
0,906112845662658
0,916277227000291
0,901000736942365
0,936907104627133
0,895972633576666
0,930182564649958
0,894422449445628
0,880011926926436
0,864691766268031
0,867559215870707
0,875681065574721
0,884194683414325
0,865398229518449
0,892130478841852
0,850345954004261
0,864695703514411
0,840082850399518
0,853378876877681
0,844981187328166
0,837910110099359
0,811261125468638
0,828942617840826
0,831696527311995
0,83217456193425
0,803323798894275
0,806090026331888
0,803585810712527
0,809613858293525
0,792401058668539
0,825947865501876
0,789648209343043
0,793916445736307
0,763421543755529
0,780359044861055
0,773896089310228
0,769412859148135
0,765105332066681
0,775602847449429
0,758618745932263
0,760481662727636
0,735935996565642
0,751555556189276
0,718350045090085
0,734090757942207
0,736609209614106
0,721110533610812
0,706936903451081
0,730550404393363
0,719742573212895
0,707617401313663
0,701485940253861
0,699890058382308
0,690800786041971
0,697794109558393
0,68661214327366
0,694273041984994
0,682605464476759
0,68058907252799
0,677593606360599
0,676958446961972
0,664449138520496
0,667766150140366
0,642040524586076
0,641468930639468
0,62895809445197
0,647385607894133
0,642329198460686
0,634751205705599
0,619599080264302
0,631010100946815
0,616426814247537
0,631459713588173
0,622964497231915
0,620489336983992
0,596127729888628
0,602509438346365
0,592374875166775
0,600750060290438
0,586368352312265
0,595116809156788
0,588701268618916
0,58672379996917
0,581886782958519
0,587282857022952
0,573790564079284
0,571202026603876
0,566272786128585
0,56714616386017
0,541723896013862
0,555450372325701
0,555858829333128
0,554958633064594
0,543558678310046
0,544269495983475
0,538274602251128
0,544501776664759
0,526947917994536
0,519781606030936
0,524961597026363
0,520624668681105
0,513929946877235
0,525733958938928
0,503909251289087
0,50284568121502
0,49339864209974
0,495723329170159
0,498299917539012
0,496263786813477
0,489654225098291
0,487409618425115
0,479096426908995
0,48403681397369
0,47871890786514
0,473366560028561
0,464399246779074
0,466285839230406
0,460378100558125
0,455944101775797
0,448994481754286
0,45413789903364
0,44299237721253
0,446038173680942
0,443464416644532
0,441388375701998
0,434436570148734
0,432663008417377
0,43056071201997
0,429281550734068
0,422823375994522
0,430398743120273
0,414016351056127
0,414082819212325
0,408109456426665
0,411874392381088
0,413853063522035
0,402619688153202
0,394163500149879
0,396484266954989
0,398104160540554
0,393262130456504
0,39075245000274
0,392879178524202
0,3884745264101
0,379746156869542
0,377358735387724
0,382048231994639
0,365285302929147
0,371556405111917
0,373007808849108
0,366424619077585
0,360755953744642
0,363887064627891
0,362706211548375
0,356928350027861
0,351926568013342
0,35620146194208
0,345168463630762
0,345790934352244
0,346489571259809
0,340206603750186
0,337096953051177
0,339001996370107
0,333803611162534
0,33227671262485
0,33168299558385
0,332026537151888
0,329879763651377
0,317362470874645
0,317063159595019
0,324225694668308
0,315983203533795
0,313801530879812
0,30928100448065
0,305811982859523
0,302994311122672
0,305639618557686
0,302523551571805
0,303385952013876
0,297391659845229
0,292710867252229
0,295416606500533
0,295197005130941
0,288690785763768
0,290275343922626
0,292759964419291
0,288618328809709
0,277631821014253
0,277732990859317
0,275038564916874
0,274851001547267
0,272923178935449
0,27558119060924
0,272832871871082
0,271872661568822
0,265442130513321
0,264633058419688
0,264079943219158
0,261838363902125
0,25624745045503
0,258303971242373
0,253269361709985
0,254904289334917
0,250059312511245
0,245483230487526
0,247666369745486
0,249348793757203
0,245264556926546
0,244514793919821
0,240413159565396
0,24595678239483
0,238631875688422
0,232137684187712
0,229418799290443
0,233357037401346
0,231376856726502
0,22820222553946
0,230637523506595
0,234051052858837
0,229774817443487
0,222867500957999
0,220246331861307
0,225642769582932
0,221380626983214
0,220731819071463
0,212044136176059
0,216015388397312
0,215498657457841
0,21519438468995
0,213198440642471
0,209353129078623
0,208172818297395
0,20505639650997
0,202591886806129
0,205686566727478
0,202670806986862
0,19919947458527
0,196139190818547
0,200927220151595
0,19851538365753
0,197970369085478
0,193410575888581
0,192211313741522
0,186101360304392
0,187282215990872
0,193247972131662
0,189585864138581
0,187453836723526
0,186723450776605
0,182552732637674
0,18727507131477
0,186130437127961
0,182332500292574
0,181452848207947
0,179214664616994
0,1756046037442
0,175221687577079
0,179413569278745
0,177222406556149
0,171105746342112
0,17329740131014
0,172086431834512
0,173234066375911
0,174514009670988
0,17439948735957
0,170711860242448
0,168809106138944
0,165089645989948
0,166156524298574
0,164401940994188
0,166014712700518
0,164652468706367
0,161410159773964
0,162313419485587
0,162384248414366
0,155332038722362
0,158856328270417
0,159221012209019
0,156324012105047
0,152426125921258
0,153641367014054
0,154557889826845
0,151095051897569
0,147019263468534
0,149442665299924
0,147058916712389
0,147868704629494
0,145171136753862
0,144315429607833
0,149728432236562
0,14689519774106
0,145957017591033
0,141507767601078
0,138862932302663
0,141869138532664
0,140356580477286
0,141769927023569
0,139469715905968
0,13676659293992
0,137841439582623
0,136827838932493
0,132979783247999
0,13191331151313
0,131295313959642
0,135381820970952
0,131026206706741
0,129674677799393
0,130960057244869
0,13107197719905
0,12727067237829
0,129905819971623
0,129955000594692
0,124897824982237
0,124107785984012
0,129119325720833
0,126458277330787
0,124844060429848
0,124190529622316
0,123297258390163
0,119196271793852
0,122239235080061
0,122206366070401
0,122158448401749
0,122773657492383
0,118637877173589
0,120039287664658
0,117399590959665
0,115981514009911
0,118115336791764
0,118278188300085
0,115823883057883
0,112750821613679
0,114838408520782
0,113272786847156
0,111400536796229
0,113152422087486
0,112262437966586
0,108921475840865
0,111877806060479
0,110671457811444
0,112663404732085
0,108965843713711
0,106910680060184
0,106804150980561
0,103798978566243
0,100855425376673
0,106339040406138
0,108566050007798
0,105001494578512
0,101438978912306
0,10065107877488
0,0969910539113933
0,100539148235612
0,0995107592946249
0,101567876657793
0,10045866344917
0,0943281616629712
0,0990210378188764
0,0980907947028326
0,0939234540154736
0,0952935923715555
0,0957157512462683
0,0924205999330353
0,0966811787466032
0,0928281064670327
0,0898043284554454
0,0970914127136692
0,0915861087598764
0,0895719008248681
0,0936484310811877
0,094439194708757
0,0926497759132058
0,0929967089516095
0,0901577910961036
0,0884068486220129
0,0867390081713462
0,0899665502250528
0,0898305625279252
0,0909073003555829
0,0908481250506638
0,085211801542902
0,0827980518051654
0,0831231708878297
0,0857240347514086
0,086373213770597
0,0850324345988423
0,0870275607787838
0,0860649968176128
0,0854137073819309
0,0828363952117044
0,0813963517304664
0,0829106101711845
0,0834285667586155
0,0800333879519575
0,0811113690505944
0,0812639671096828
0,0819685095343317
0,0802655684171848
0,080112971505099
0,0778447838198085
0,0789608198731575
0,0794979241744489
0,0775524086577675
0,080802658833238
0,0799898677863784
0,0766451312730867
0,0740117646092322
0,0759784502075863
0,0746252530433096
0,0752073369031663
0,0757223637218561
0,0746586509039505
0,0760137928761537
0,0739994468171419
0,0743652363401494
0,0704854085732059
0,0713659201196829
0,0752880729356788
0,0738371589662285
0,0728873544270591
0,0745375902391295
0,0753759790171116
0,0721078563708401
0,0701351351106041
0,0712816869656597
0,0699628217719009
0,0711394366371222
0,0729168754426736
0,0710603928493199
0,0686888113906846
0,0712450567972333
0,0723434624481024
0,0673446576806866
0,0667711980515362
0,0695944083753379
0,0669879578207879
0,0664086944707368
0,0673952495293653
0,0688211822599483
0,0706894982219328
0,0668235295091208
0,0664778209271792
0,069434476631379
0,0650916386158604
0,0655000084891509
0,0651195380098872
0,0687100275629088
0,0698148015132669
0,0655644612004314
0,0644886089291465
0,0648165493869413
0,0657568666733036
0,0672670676117691
0,0628141561191157
0,0606200796536623
0,0625660847290541
0,0640641143996092
0,0608521682641947
0,0624869685333166
0,066429079960498
0,0629756165911038
0,062600688524362
0,0662444340301157
0,0629750519767136
0,0602681048575042
0,0618211268328362
0,0634056922010233
0,061310082833803
0,0610189659137165
0,0607795997196302
0,062766570216894
0,0638455579794648
0,0615040334633964
0,0602462539485526
0,0582139913533925
0,0594451890890051
0,0597172832457829
0,0571893752689697
0,0623059369460672
0,0609738792422371
0,0572902662602696
0,0612976998492137
0,0611525490917009
0,0591811867313198
0,0600014770819059
0,0619013208721672
0,0602178454205068
0,0594440956468178
0,0575175155396847
0,0582281535678453
0,0611707209320733
0,0567467359070293
0,0578823648283167
0,0579181751794958
0,0596293743566346
0,0563962960287842
0,0568032487519691
0,0609001889535403
0,0578082902324118
0,0551219173101119
0,0596700571712737
0,0570232144469201
0,0566633504187928
0,0574493045177999
0,0584454026970454
0,0585651496909898
0,0532520266337618
0,054565739097053
0,0579893695438981
0,0567123283400792
0,0586042791453913
0,0575736982396164
0,0562815243150393
0,056970649847162
0,0562441215780989
0,0551486328078352
0,0540164674217955
0,0543297136783361
0,0539937876229409
0,0528980125839844
0,0531163564251249
0,0542894192893227
0,0553744079781047
0,053961417799734
0,0531441235365211
0,0528266642081056
0,0541015941117382
0,0525954724691518
0,0542924886273766
0,0557098037410694
0,0530187584064438
0,0552759307671055
0,0533595233589253
0,05008651708545
0,055072107874492
0,0528633252097057
0,051546966660222
0,0522784937691037
0,0539971718585244
0,0544421518005307
0,0545658118674881
0,0524172315447977
0,0526675052299399
0,0528810447922956
0,050632817866146
0,0509022474181059
0,0506121948018978
0,05252840400529
0,0524514859423577
0,0510033567156038
0,0501050867156365
0,0502044016571455
0,0549493187917759
0,0523679255710006
0,0509948779778165
0,0511658868388487
0,051398865903906
0,0512505528787229
0,0530169515679467
0,0524745752715735
0,0509193940060159
0,0535652858611363
0,0510256167661617
0,0496912062365629
0,0506730679164441
0,0526628197845519
0,0528235438297199
0,0503612180926997
0,0502907327467908
0,0502106315263029
0,051303217924887
0,0498898138261127
0,0489703756202575
0,0513913414666819
0,050069852094368
0,0509108636205859
0,0496752998477295
0,0490423195749447
0,0502882237138437
0,0484962903289152
0,0465523193789261
0,0487309689465154
0,0506473497488906
0,0495764017728557
0,04935189373223
0,0465833016758112
0,0510704133492262
0,0493983946171611
0,0476554416101022
0,0492379350704638
0,0486718946949106
0,04853686467746
0,0503574721852567
0,0482650312218631
0,0500359759461316
0,0494894131086763
0,048577935110279
0,0497681319282363
0,0463150849633846
0,0485833162720994
0,0481682863554737
0,0493433527246417
0,0492372513022725
0,0479063835975814
0,0481981710340772
0,0510251320677188
0,0519045526221119
0,0488147645443082
0,0492001216032691
0,0482941333657872
0,0471035188426803
0,0476793634775357
0,0489985374187577
0,0473004374119221
0,0502884283511862
0,050657879828175
0,0469321452550385
0,0466240627227651
0,0505677265778846
0,0529322713098265
0,0463243427425416
0,0498164018364136
0,0533484772503538
0,0484181550607249
0,0509839520883557
0,0506919606069721
0,0496369560600811
0,0464827122737054
0,0453581440785478
0,0501612020491326
0,0478768103034522
0,0464491297100116
0,0497644558967773
0,050976950404361
0,0468382546414081
0,0471521719738074
0,0500947282166108
0,0473461891703887
0,0508435360224632
0,0471263120738071
0,0476368068505017
0,0507934331948331
0,048801991272168
0,0478349705947483
0,047633114703829
0,0495017103129524
0,0504390142601948
0,048982899674073
0,0494180517065611
0,0479395450203891
0,0478180006422808
0,0470383258175385
0,046830871865781
0,0494340209392248
0,0506222301594829
0,0453968078437072
0,0487623127023664
0,0509698124662535
0,0486311616990928
0,0497987487111081
0,0495371707847034
0,0481547345291117
0,0485254106009114
0,0476723483938377
0,0486291927190693
0,0484994865175201
0,0476798473147237
0,0485383947881941
0,0496508523878339
0,0476851663036795
0,0484254756112319
0,0502491033412687
0,0515614693407251
0,0486898174337866
0,0471326673765959
0,0491844571244928
0,0492611024090732
0,048098515926538
0,0499499516360046
0,0490831398224327
0,050770632926082
0,0505611437146666
0,0502095717753575
0,0504291299883277
0,0493850880006199
0,0472225409622682
0,0487289474911888
0,0489413149099878
0,0499188110184416
0,0519964883645213
0,0517304471356943
0,049632965609325
0,049694417879999
0,0522327054093316
0,049945171727748
0,0514755396864826
0,052572598818437
0,0515139770193164
0,0502384478066659
0,049366662090529
0,0517094028657716
0,0506070978072621
0,0521805785645783
0,0505966931081293
0,0502381632259406
0,0499913424926859
0,0483504774464059
0,0511249152398239
0,0507516652060903
0,04969116446859
0,0502033804809429
0,0511251471457903
0,050190176079265
0,0516167817464197
0,0497047756451054
0,0496330960590349
0,052690657507568
0,0521436559727282
0,0534321682182891
0,050221582628931
0,0487185117948416
0,0506584000975338
0,0517851206121544
0,0496356790034171
0,0507171055771321
0,0520674989792625
0,051828029851343
0,0511862021572486
0,052100750957437
0,0513337741003168
0,0549330938986769
0,0541324403764885
0,0516201456731056
0,0515755629641982
0,0507544961047144
0,0507423962345668
0,050205655933501
0,0515959509524557
0,0534063576230141
0,0512102618812354
0,0512003911023349
0,0528413655683239
0,0529461126131825
0,0506129321120978
0,0519617962420566
0,0520156003250929
0,0529405577574684
0,0517943408393579
0,0520391820287397
0,0504470114160635
0,0531085418125306
0,0520311434232435
0,0533317598102978
0,0541943816250394
0,0543408250156761
0,0537491960317639
0,0532138240153374
0,0545926687467078
0,0547120698291081
0,0537215955027876
0,0515774773657388
0,0522880039755948
0,0536705780156478
0,0542119985917804
0,05374156968463
0,0533682838817834
0,0539271195982445
0,0545548785267774
0,0541723822153128
0,0536996800887452
0,0533649595653406
0,0529803589783682
0,0523333347164469
0,0530451429890937
0,0542472185217456
0,0520594914854715
0,053432421286068
0,0555746760045963
0,0537698467546283
0,0569141687007648
0,0549805154862042
0,0537991479187211
0,053490425627357
0,0531453446368816
0,0549164629651676
0,0579311949623647
0,0549717590651569
0,0547757839925125
0,0544202578048987
0,0554870475456325
0,0552234085641174
0,0545313440757704
0,0574637221252494
0,0539703449110775
0,055412352670499
0,0552926511633603
0,0548005777605484
0,0562712914817138
0,0580091080465858
0,0547316675366704
0,0535688686625972
0,0565509030994647
0,057277684335061
0,0561260386863367
0,055299428812344
0,0576560077248121
0,0548171576165887
0,0554980940350123
0,0564438290948382
0,0570876771034347
0,0596418186937549
0,0565023404704073
0,0557816637524292
0,0574723795440271
0,0585539369842999
0,0594948189720684
0,0566963173285768
0,0585682272096892
0,0569287865465433
0,0572618436449557
0,0576248481570378
0,056591191012008
0,057391942966244
0,0570340601506925
0,0589812961758426
0,0590744541018436
0,0555717937190634
0,0573080342301561
0,0569774157788928
0,0584013360813439
0,0600007968404626
0,0598342471335512
0,0595041470617905
0,056259997805501
0,0573678901203169
0,0585260100950865
0,0587851490030218
0,0601948164882873
0,06074509137722
0,060570455621675
0,0586056460577453
0,0593177477136118
0,0612168846278359
0,0582823548143038
0,059577055721489
0,0577704996262106
0,0597718707511494
0,0608017847712381
0,0607016395855413
0,0616562028838575
0,0599428212930983
0,0607568043916698
0,0605153321701399
0,059400080897225
0,0583986667753288
0,0606078710513865
0,0609303682823547
0,0604340649712385
0,0600750184826716
0,0612408501020944
0,0613100553359079
0,0615112876371415
0,0613265722695571
0,0585698370805223
0,0609833545007978
0,062821042520319
0,0635689137090926
0,0609849886660154
0,0627289211815227
0,0626799039962438
0,0624009896830544
0,061109591398577
0,0645659854341727
0,0629125724859302
0,0649769265169483
0,0645088794282782
0,0647492318846127
0,0654501243417792
0,0623861306627191
0,0638742357358925
0,0639510567923013
0,0602866530118251
0,064870638112469
0,0646101420084962
0,0612832333053085
0,0615780435942
0,06399713756775
0,0622611690095478
0,063541743549852
0,0650380355511848
0,0653916804307173
0,0623979102711074
0,0660663480650497
0,0635242758556078
0,0649565263365
0,0651817281048898
0,0668993440800372
0,0652046752707333
0,0678787663972515
0,0656382013676357
0,0678184329303049
0,066242738791922
0,0650160061011784
0,0596794776587076
0,0681846784900152
0,0654384942584972
0,0638803744989948
0,0664650101652961
0,06990936234471
0,0648021793083679
0,0651211315144834
0,0651804968767182
0,0707252410608219
0,0631945569848931
0,0695059566738351
0,0643169702388831
0,0715420292857412
0,0689360184390395
0,0712655759158929
0,0697068158885167
0,0691633230231416
0,0648863655628767
0,0692081060211369
0,0667740697074553
0,0677032037905527
0,0727282517176364
0,0709477462463455
0,0696177947826616
0,0694245869192143
0,0728239289737407
0,0714401524989786
0,0720455181562359
0,069883089951995
0,0727290407837166
0,0697594705120517
0,0724267756047736
0,0732948788285439
0,0713413837228557
0,0723567073435188
0,0713809187550928
0,0696408399903645
0,0697760427358339
0,0720542071724105
0,0741544884534548
0,0711574407275937
0,072105176062462
0,0712625591492114
0,0718448918757287
0,0739724089399
0,0733254148698994
0,0727700470759804
0,0714162295268406
0,0721797077081227
0,0723521226213069
0,0747209009716258
0,074862468893434
0,0772464530594987
0,0744828049176321
0,0727590988536595
0,0757397982036113
0,0731581480634827
0,074237113160666
0,0755460442523848
0,0763589990216381
0,0747128812124728
0,0746141394007544
0,0734151431413453
0,0768717492060647
0,0740287158342121
0,0764975381465936
0,0764535348406904
0,0776736561846283
0,0761432370607822
0,0750503424099587
0,0762318139783302
0,0763066024028487
0,0751523286274829
0,0790207077267605
0,0774204755267615
0,0768123793340494
0,0774806751598867
0,0801791389593269
0,0806077036579747
0,0802232687735115
0,0807326576775186
0,0796568924427452
0,078377806850144
0,0771298338885545
0,0811321005616533
0,0779966211067661
0,0788631000623297
0,0791493326759697
0,081340262356614
0,0815228388537644
0,0814742050982029
0,0807830336300379
0,080900684575018
0,0787722527979222
0,0803086961281653
0,0817767215028378
0,0830797322446312
0,083843903042201
0,0805940022436189
0,0830631536097872
0,082525670112486
0,0822980211298722
0,0818255738555917
0,0830124196713421
0,0815304248849512
0,0836902735665343
0,0856733564810043
0,0849539408850003
0,0855096017952936
0,0829310414582553
0,0839091270208789
0,0848002735371395
0,0850913747389709
0,0848546926914394
0,0849907469853536
0,0865271495024601
0,0840973711858304
0,0858696817510287
0,0857009278799855
0,0869659269423385
0,0840198921113028
0,0860425328154036
0,0846086124715104
0,0879026596421629
0,0880673493330493
0,0875051906237452
0,0864697030590501
0,0867969985311381
0,0874079170241024
0,0885879149394723
0,0884068792668619
0,0881515960317451
0,0886516075227907
0,0906396585107476
0,089284845020273
0,0891941196308722
0,0866136160531728
0,0902722267418925
0,0893827586495377
0,0916929815954062
0,0902654601048902
0,0911422312706463
0,0904817621588049
0,0914401432254677
0,091337696050312
0,091280167096468
0,0922289167658783
0,0928429958514127
0,0924441430930932
0,092043109894446
0,0916510253173844
0,0928215376397851
0,0944752985079013
0,095171086929495
0,0925543028494901
0,0921925115824181
0,0927451605724013
0,0943154461547935
0,0936242571707502
0,0929034947282756
0,0948440190255014
0,0947252181457388
0,0949157024343315
0,0949061483486283
0,0953359335029268
0,0959679493806391
0,0956381150819452
0,0964460777871112
0,0950800073242599
0,0964049632164188
0,0972441569475341
0,0963762908930098
0,0934662643133691
0,0957835504706611
0,0967078744509695
0,0944937698223523
0,0950202950537996
0,0977738673208258
0,0985894044340697
0,0986683299175686
0,0985575742351084
0,0979093924628635
0,096236680575378
0,0974747145418298
0,1014227843619
0,0978495230467632
0,0985620356457561
0,0996357477604349
0,102635942720075
0,0989684519422156
0,099427025738802
0,0999293802766597
0,0998741471230089
0,101669492679904
0,0996272021492506
0,102043684937378
0,0997003513426798
0,100458828906542
0,0990958558029489
0,101280450114355
0,0995961361243911
0,102016809390957
0,102426064222711
0,10136531898285
0,100168296155553
0,100620759917613
0,0998489429400016
0,101609560947742
0,102280527673508
0,10227703540981
0,10278293529641
0,103299238763814
0,101209809142189
0,103141988441419
0,102682898390965
0,101042219705731
0,102452346842645
0,102546989820133
0,102757337776113
0,103968513265895
0,100357373975768
0,0994996919676739
0,103077580702126
0,10277309531324
0,103012870955588
0,102852101915396
0,101078014635733
0,101559965101005
0,103207537208305
0,103926181218822
0,102468726578309
0,103072323216937
0,102978200032912
0,101881727822079
0,104124976042231
0,101482082036261
0,103466509348265
0,103148989113187
0,100401606943793
0,10163410344671
0,102340568225498
0,100243027926574
0,103055228419264
0,102508738583547
0,101914586838948
0,101354889150199
0,103437204187029
0,102554805096572
0,100865971911273
0,100995597083646
0,101337309046926
0,102409672328778
0,102442348804583
0,103464661107254
0,102985510148905
0,102415441698654
0,103522844539476
0,103951874827874
0,102545546678091
0,101709350378125
0,100435043407287
0,102814667919985
0,101378564183892
0,102257222680242
0,0998041306309924
0,103573303574589
0,100655126795969
0,103841104073646
0,100458565734621
0,104067399655203
0,101261675219814
0,102447357022739
0,0998556332780123
0,0991027630451025
0,100880275648721
0,103099054780192
0,099937671685173
0,0982756775858031
0,100935834211426
0,100932968753194
0,0976588087312124
0,10096342203931
0,0983819675540358
0,100008173657049
0,0978673555484511
0,100022144529896
0,0986577308879837
0,09836662222399
0,100513217501492
0,09706903480425
0,0985963095573349
0,0984983366511946
0,0989150757523123
0,0969971954299705
0,0988124834053404
0,0984689164038958
0,0985691891571812
0,0965704548825958
0,0975595872645429
0,0998856516912844
0,0984710607925149
0,0960784925420494
0,0968410518730764
0,0982208458435025
0,0961882969719387
0,0951425811391655
0,0980737856653603
0,0964224954225227
0,0961939256766192
0,0962320045681027
0,0958063741209901
0,0958964259794854
0,0941079525468001
0,0947733431338324
0,093960877552245
0,0938322544230624
0,0949049479160557
0,0956610150758772
0,0947676802428071
0,0943939096271494
0,0924017555968335
0,0928191432341154
0,0941951682603052
0,0944521799213325
0,0928118632169103
0,0926179484724922
0,0934630460964459
0,0920672188334492
0,092090352882068
0,0916416395305555
0,0917108470978542
0,0935244040632186
0,0925888585133949
0,0915728350468447
0,090116044584309
0,0918954738848045
0,0883454931360276
0,0864473585337402
0,0885704754413013
0,0921872335859165
0,0889940264266462
0,090293966715317
0,0885671729893421
0,0895514351582884
0,0858160994418469
0,0875380074306655
0,0884749198051738
0,0868067868689086
0,0901201070206249
0,0906902980054507
0,0872971550540014
0,0857639834851942
0,0883934415588481
0,0895766535542654
0,0849803917946411
0,08378463650828
0,0878654218881524
0,0850176435043411
0,0875769125505199
0,0855793921687753
0,0841196640303985
0,0861860363891512
0,0833811985529255
0,0864738965280116
0,0857884921953355
0,0823863600314807
0,0831655923420419
0,0830292880996596
0,0811450562981321
0,0823974023738311
0,0819083520422961
0,0820346854607654
0,0840262270642597
0,0838940963886118
0,0804607992713644
0,0812938949980809
0,0801165682784846
0,0806258401519944
0,0798128894293553
0,082765714126598
0,081152938261745
0,0797694144056533
0,0801184124111341
0,0824077405455077
0,0771016362326269
0,0799945317771373
0,0796955752312278
0,0774999663680439
0,0790867686890184
0,0803272631482625
0,0766506997122434
0,078329186240802
0,0767602918230948
0,0783873416664268
0,0779757691490006
0,0754910465593757
0,0762570306056432
0,077429950464803
0,0770499380171462
0,0759525240514758
0,0756202516841961
0,0726919477526267
0,0782552033209422
0,0752288781776525
0,0742372326497507
0,0752650349369294
0,074230020585834
0,0752702965361029
0,0740223731664636
0,0750684451100747
0,0743061334219237
0,0739111348597408
0,0749465341694889
0,0742857318515707
0,0736039663942974
0,0736094855294922
0,0728122446721763
0,0728457526347348
0,0729095218363498
0,0719531542425855
0,0708474663026677
0,073986803807065
0,0740967269881265
0,0723787002430086
0,0700480678666949
0,0758923979722031
0,0713055856271891
0,0705541084255796
0,0713221421088653
0,072416227887534
0,0704933625879541
0,0699856598280625
0,0698649339721388
0,070380574562304
0,0679993838943204
0,0702763271043113
0,0709525911200948
0,069484262246555
0,0707431397191483
0,0693696346840632
0,0680837085494318
0,0689025619599212
0,0714377356623669
0,0689003903172121
0,0682988693224596
0,0686490523630724
0,0708149654697964
0,0704269508874272
0,0690294608703895
0,0692262429240773
0,0683242511273627
0,0721380694919602
0,0685770284041762
0,0677357955421921
0,0687076777610249
0,0674996956331241
0,0695772682772526
0,0673092044360602
0,0675533458160211
0,0687552930615317
0,0660213335159495
0,0674972670536404
0,0676671692295714
0,0674214869539933
0,0655946396258089
0,0647543526164389
0,0663548247514974
0,0679985016633881
0,0664021218160332
0,0649707248450737
0,0646765751671092
0,0646180491043112
0,0645294276422904
0,0651085440348472
0,0662120923680636
0,0655385487469352
0,0656925509096619
0,0639915320058588
0,066355000409718
0,0667771034435816
0,065215911549408
0,0638632461653053
0,0652577022323173
0,0636646066197451
0,063741315445184
0,0650195294482957
0,0654216704292298
0,0658789285889399
0,0644015243044971
0,0656355344245559
0,0641705269004637
0,0646694997457668
0,0640394122509104
0,0631341788904788
0,0666806346875714
0,0647403132485576
0,0628096698663687
0,0656663151150597
0,064053281611234
0,0658529123664577
0,0647371065422615
0,0655812502018904
0,0649099319445054
0,0650361374707798
0,0658847766752273
0,0632567206013197
0,0658818560914237
0,0635845758224083
0,0627950246914459
0,0655267056406986
0,0633643876557518
0,066602232414749
0,0666137822582898
0,0662954475415429
0,0632598177080547
0,0611149925763798
0,0646633530818724
0,0660731062868497
0,0645013858132923
0,0649646236540025
0,0635040709091761
0,0625947086794943
0,0643387891774154
0,0633328740869744
0,0630973776157595
0,0663629360631237
0,0649539768352942
0,0668044010660237
0,0641832276925958
0,06374868747564
0,0608441904739924
0,067136786425555
0,0638341958310648
0,0658831503021435
0,0636115577315666
0,0661025883206534
0,0657260547334403
0,0672640600259998
0,065574651158323
0,0686152239778135
0,0641688467652993
0,0658188448435724
0,0641832165415756
0,0639123441506751
0,0647809702115792
0,0645457996320264
0,0674516035808454
0,0672284819462369
0,0667617936037251
0,0654491409604236
0,0675545809295308
0,066241185771484
0,064539485899133
0,0671499513574197
0,0701848689909987
0,068660039487798
0,068459198113855
0,0671134855998009
0,0656324569336526
0,0664793103110886
0,0676152149504405
0,0692352544023126
0,0688725616171821
0,069163839135198
0,067368370162178
0,0679448473081882
0,0696854940646323
0,0687487334163674
0,0682189132288864
0,070244436424809
0,0724241765721215
0,0691592663463102
0,0700055352587417
0,0703513990871766
0,0699485949075257
0,070641733316672
0,071964255449633
0,0737630043296414
0,0735387505306105
0,0691532598600369
0,0705975570468867
0,0738236616854985
0,0725742873322782
0,0727775806052569
0,0709326196164234
0,0736412189801214
0,0718978057509154
0,0732482669621455
0,0761039754164913
0,0739694974711004
0,0749363332771267
0,0725962114349475
0,077049376425199
0,0753969528011909
0,077631979999868
0,0808438512551241
0,0778790454829929
0,0771891209600218
0,0782120595468358
0,0810399503981023
0,0763777656130206
0,0787513847053691
0,0808442580266432
0,0774364423819989
0,0810675107498197
0,0844005612744435
0,0798903681358692
0,0839402095259482
0,079777328188579
0,0852301490930108
0,0842279692518809
0,0848146695599877
0,0840637757552997
0,0857104231645722
0,0871751737930871
0,0883402409243762
0,085129683212037
0,088096154141183
0,0855438756831577
0,0910629133062684
0,0951431482637665
0,0916079274746655
0,0921920677675673
0,0915580441655832
0,0926996989342564
0,0938341281148291
0,0932780752076421
0,0965346965794347
0,0970065243260482
0,0971860184406918
0,0970459040760619
0,100145441685775
0,0993650893637377
0,104974348841548
0,102006712103479
0,105894513545159
0,107769908845662
0,106523561726483
0,105306728463504
0,10886108807218
0,109209643213412
0,109852355782673
0,108215094154512
0,117004538411236
0,115207189103298
0,114637435563175
0,119656732502093
0,118722951387725
0,119179496165244
0,122490753445052
0,118964770677269
0,127908834725599
0,129842427624471
0,126182736658001
0,132082461262338
0,135042418455969
0,129772814702627
0,13829187302604
0,135169217685718
0,138825685442401
0,142716749739859
0,142266276633381
0,146739903040175
0,147190259542033
0,150268314900654
0,14999575441285
0,151639645989139
0,154972849892811
0,155666137310945
0,162761094942959
0,163216626770017
0,169500727443373
0,175418788395299
0,172675012568907
0,179970756271938
0,179313799072944
0,185325119063173
0,185418579003632
0,18996173379772
0,195647540128672
0,193652858513525
0,198956769457656
0,20352659560855
0,20890122722431
0,212928742358519
0,209903727162483
0,217966023734224
0,223533889586918
0,226954598846519
0,231405191137731
0,235492766941647
0,247860732673252
0,245709796202935
0,250828586760695
0,257977653966933
0,259430849217536
0,262032839197161
0,27280680338105
0,273792852676071
0,277394515537963
0,287171257012957
0,287004799551582
0,2831148931976
0,307461274909889
0,303370627089857
0,311414193365076
0,315694206039657
0,321748510851134
0,324916183333574
0,335241054385886
0,337558620051874
0,342847816494609
0,347334910102227
0,357076341479619
0,358909389339682
0,368929916030711
0,366854043344785
0,384172512307909
0,381561963003425
0,385809468827837
0,399331575100353
0,398177405826183
0,407281489592908
0,403417520472954
0,419218042968901
0,41874481413525
0,421009319932186
0,43478016002306
0,44044621409192
0,444190542437753
0,44283210493013
0,456039311770468
0,456719222694814
0,468938009380939
0,467825471514598
0,478646017483624
0,467275576528719
0,520651897557913
0,49713885740763
0,492173668906381
0,496132333551334
0,495188942796341
0,508196095697789
0,512397106920339
0,522798600466336
0,52231976522442
0,523835568663509
0,527644268327361
0,530612751329991
0,531938202742314
0,529786117175633
0,53877929658651
0,535492543575448
0,541636417145535
0,534134834684343
0,533382466279257
0,559110457501473
0,534607513101555
0,54371026290064
0,538952819755222
0,532203239753017
0,531068193211688
0,526826749522456
0,524654350970272
0,523664908350874
0,523022194052436
0,516006103058655
0,514875682329858
0,509521572051783
0,512119573873303
0,494888780564811
0,494526960704787
0,4884027873912
0,489120939056376
0,477749958481913
0,483602638607876
0,47630726095087
0,462614762479871
0,449952864563589
0,448921334028443
0,442197608388415
0,440565017655621
0,427800604611411
0,426455475473801
0,415776259975165
0,409787980908477
0,404239265416394
0,405954495828121
0,397185204269822
0,390142338835202
0,385064810953268
0,378436086646318
0,375431941070663
0,366707147253191
0,361023442502515
0,355071805692323
0,356500801250003
0,350288343971839
0,344911777201544
0,343507284781553
0,339757693544956
0,329229984783787
0,326126828573867
0,3181857018413
0,319716589615752
0,3189669457822
0,316115444654761
0,310752307317911
0,302661978218671
0,303408896432327
0,300212924692581
0,296335887920147
0,294411021654249
0,293130643003522
0,286811598501133
0,281557084695273
0,2828241407309
0,274588971513763
0,273349920881689
0,275125690560795
0,275151060726486
0,268927568954192
0,268019658995239
0,264052629165034
0,263429033709411
0,261026340043411
0,268274207175367
0,260277884199372
0,257023982977265
0,25481373248774
0,253401067444773
0,25255172092685
0,252844015652177
0,24745474604328
0,246169827648614
0,240874061517649
0,237194549957887
0,244785232908117
0,243503223223719
0,248166022573226
0,241647358426346
0,23629373383438
0,235282079849006
0,232698627930437
0,233833494338709
0,233079377028194
0,227188123326053
0,233457872051549
0,230910412898399
0,222223840204005
0,221263816654173
0,221624127851822
0,220625140197985
0,219780490921078
0,218164505411171
0,21755944048017
0,21647238432806
0,213699187891696
0,218252688174543
0,216740110391665
0,218071896087749
0,211195986274956
0,212673356307457
0,213000506778647
0,212026895109913
0,215944802664472
0,206629290591369
0,207695152837164
0,207912582532858
0,207587973417303
0,202147331180496
0,204974897220096
0,200253159931234
0,202300275614212
0,204942115162032
0,202163654502395
0,203278760184508
0,203283834999651
0,200958758486315
0,201641122912548
0,204606977369311
0,19429122713159
0,196388556846038
0,200472282062198
0,195379893283521
0,201242133964621
0,19808185552249
0,194088066998611
0,196515574893267
0,192319814637355
0,190882877752045
0,192452998084253
0,187174089276962
0,19028411842836
0,187328702761575
0,194854182661373
0,188901969507305
0,185841849428061
0,190158440697897
0,185638509979799
0,188920447795936
0,184112901886819
0,186609979411206
0,185284103174613
0,183112056559943
0,184276917375701
0,186507030948387
0,180556904574175
0,185244905174185
0,185513273746942
0,180795012095948
0,180982077425633
0,189424025100769
0,182164303371637
0,179481048945171
0,183774706014376
0,181606444922664
0,180237770509113
0,180270090265643
0,180162200510094
0,183793637402016
0,18486332818889
0,180445087539087
0,183866334260816
0,182125893297205
0,182766435898528
0,180875639468433
0,182310489085027
0,178546763917647
0,184400705305936
0,178318470312886
0,182010199002531
0,185715552217216
0,181092729773013
0,179829768334658
0,181992722212568
0,182367393707148
0,182658393207635
0,183972210053309
0,183255477736085
0,181233538523574
0,181747309740878
0,180848522762535
0,182892645102738
0,181081526177751
0,181976074453197
0,178566597827407
0,184111616739228
0,182164339317032
0,183336756911694
0,181217755158035
0,183626022387891
0,180722509729611
0,180004541890218
0,18282981827661
0,18247123547788
0,180194508343872
0,181837219080941
0,182484463773756
0,181351703768995
0,17932121322049
0,180883964710938
0,184010010868431
0,182363242721297
0,18196857355032
0,181802871940249
0,179595959638262
0,181671343052579
0,181247077364512
0,17797574419989
0,180090742947988
0,181849344095203
0,181737303046866
0,181552338941994
0,181410260108035
0,181503086517399
0,183225049154122
0,181542881781843
0,181028703074551
0,183635734479805
0,178281890781475
0,181030060713943
0,18246306285793
0,180872295434715
0,183535287433747
0,179283048880211
0,179866959026431
0,178729086423377
0,181689488579438
0,179562182191029
0,181208312549029
0,182393500535928
0,182811376894985
0,180924903921307
0,182499259018947
0,183386075184892
0,184258753758571
0,183867133517249
0,184054034125914
0,181168870942297
0,181485660129536
0,180497221991336
0,180443075518071
0,180798099254377
0,179037876461218
0,182273442265743
0,178765160326804
0,180584728665035
0,180469760617806
0,180646461064531
0,178429970506431
0,179622371331214
0,180967178450658
0,178797111053412
0,177152495010441
0,181285825525791
0,176135162874326
0,178180189922815
0,178213563587159
0,180837926848399
0,178936281663335
0,181406894656646
0,181104755472268
0,180421121475641
0,178467819461867
0,17839609950658
0,179513740426229
0,175635218043667
0,179275403148921
0,18252155630984
0,180948451998348
0,181510027998507
0,17689568626412
0,180820417664831
0,180639932376813
0,179541005479939
0,180156007314847
0,17975926657824
0,179656531547525
0,181517203243962
0,178123515760099
0,180956042233653
0,179891316645992
0,179400982238256
0,178318152952253
0,176035120238557
0,175672649938412
0,176426528864544
0,179135220080653
0,175931921521003
0,175674370921016
0,175799848495947
0,175465356067084
0,176451991735795
0,177223433480756
0,178498503500851
0,174567181405928
0,175724563645102
0,17732143098213
0,176095246074642
0,174457895314152
0,176718757422543
0,17598932603317
0,175976474595342
0,177711514220903
0,17588289398189
0,174139504085953
0,175710263971587
0,173660980131379
0,173535723188696
0,173322251886281
0,17483908198938
0,173177735780747
0,174640233657106
0,174994875365904
0,174367158662782
0,174072809188018
0,176382703681622
0,175277036569971
0,175009730046909
0,173163235990658
0,174674460084198
0,174543855301978
0,17344460557404
0,172265159077394
0,17541426565436
0,171865099747699
0,173741206238286
0,174276175592674
0,173599706457162
0,175802523374159
0,174832587292991
0,172889582596761
0,175338881109865
0,174702647585445
0,175447687105789
0,175072364834147
0,1735675823759
0,17408677086667
0,173484916455008
0,171299635390387
0,172332823026255
0,174718371240208
0,17380769320081
0,172581316568466
0,172638340931914
0,170525027482977
0,171724181978704
0,172282639632232
0,174292661546406
0,171759495659191
0,17225386415296
0,17413631412557
0,170399908799063
0,170051565649636
0,172150705694115
0,173044331641127
0,172141141867921
0,172411655056887
0,172563170482925
0,170023050150697
0,171432198769478
0,171197498525183
0,172057540707096
0,171766183968211
0,171397786192404
0,169680941301722
0,16942562914972
0,171097567971721
0,170859838386475
0,170675459241898
0,169403757321647
0,169233392542223
0,17038236820385
0,168870119545534
0,170448520610111
0,169965069171727
0,167853051580233
0,168416128891316
0,170786545659165
0,169267496983227
0,171723367319736
0,173096856347167
0,17014219850096
0,171048025415184
0,170379137925256
0,169485598547263
0,171372917545031
0,171811388908449
0,170934146068037
0,170660686483863
0,171811187259347
0,170240849924526
0,170191365488762
0,171214692342441
0,169386246383449
0,170314417433393
0,170469854839714
0,168131690341754
0,17111828701709
0,170312869405332
0,170485855256436
0,169917721870964
0,171223422627825
0,171246678627023
0,17167939547119
0,169752857885129
0,17192623260105
0,172303027870107
0,172092727484548
0,168924659312365
0,169703251806639
0,170613552012746
0,171814843963235
0,169192968893161
0,170368407096222
0,171190811661506
0,170121170799692
0,169767557383846
0,170100708910554
0,171103133458277
0,170068711936538
0,169764593285342
0,167386458286177
0,169070113505066
0,168339729375658
0,167859903679713
0,169879838451195
0,170749764810658
0,169016355539889
0,167870054230377
0,16848028361625
0,169350049238164
0,168362024700664
0,166345923624452
0,168384723626653
0,168550238814812
0,16773697383801
0,167608890858155
0,165891126519773
0,166844891970708
0,167372443956035
0,167023252416742
0,16668446638892
0,168409834996213
0,166923778823631
0,165749527757631
0,166343778796588
0,165485575460912
0,165679161056576
0,1651120900118
0,164413403696167
0,165204705059432
0,164559899947337
0,164472370925986
0,165430774448064
0,16587182033379
0,1644892468606
0,163840941660223
0,165048839216705
0,165661771036834
0,164146678959859
0,165093729489763
0,163796558627277
0,162766949909684
0,164728278697919
0,16412070244598
0,164345754723949
0,163747649682255
0,165043674447198
0,163256865380926
0,163632677798967
0,163580962926569
0,164514714504694
0,161524966865799
0,1623273884697
0,163219930775472
0,161968604762191
0,162448454566795
0,161655256642712
0,162563947138385
0,163639975937827
0,16441875526227
0,164687218650749
0,163442661778798
0,16441108918603
0,163856948446248
0,165857268876975
0,166769046725806
0,166627762658595
0,167303740303889
0,167234787379066
0,166082401204815
0,167695173416065
0,169976567929395
0,170572642673626
0,172545077108511
0,171920608294133
0,17336305050041
0,175091414295439
0,17567593777929
0,176745270038431
0,177213339791642
0,178867083124593
0,177590063374863
0,178878506310256
0,180537968376318
0,182574073291412
0,181689523943148
0,180330878409223
0,182296754297723
0,181999795503302
0,180712067019476
0,182310338389314
0,182188623260423
0,180418361766642
0,178994522664184
0,179293923689521
0,180944966445927
0,181156378967309
0,179208053326597
0,179975985094279
0,180320557703353
0,179551420527285
0,178526599930101
0,178658709778591
0,177338734963525
0,178210425122154
0,179265751645629
0,179151555733651
0,179707966642749
0,180020786899866
0,180763334146398
0,180758960254991
0,181113539119437
0,181941381765515
0,181548709644655
0,182969453293361
0,182929447341605
0,183321971073833
0,184416480772142
0,185353551041038
0,185068609974185
0,186276307264112
0,187730397920438
0,190251774725531
0,191129135439117
0,191043264441737
0,19241627438446
0,190588390493514
0,191764213674869
0,192735296171797
0,191030648386477
0,190702588708568
0,190442310605504
0,192111202298023
0,190951879026301
0,189937413916533
0,190187987894947
0,190004510131777
0,189601637475849
0,189032955759011
0,188246441578962
0,189886658064219
0,190171075334841
0,189571409030592
0,192283290439821
0,19265691282469
0,193186764328871
0,195736221552839
0,195480667198787
0,197507490546281
0,198770517096123
0,198001544073711
0,200148800998336
0,20165202539357
0,201401885445678
0,203503885964773
0,205005408057279
0,203814895985839
0,202867727469514
0,205238925070559
0,206208641995296
0,208691018291145
0,211435173297392
0,211234416077144
0,212465721550945
0,214250615026405
0,215932215908653
0,219730496606049
0,21948516741355
0,219881317366436
0,221461799724431
0,222145441355354
0,223247573266304
0,224798884641814
0,22629734038702
0,224499960048802
0,224744635739382
0,228105219899513
0,228117782158709
0,224404262535962
0,223645723617935
0,223897430010548
0,223251519178042
0,219653314074853
0,21605276491121
0,217592570232137
0,215631625974809
0,215591435479964
0,215875401904007
0,214072541777923
0,215216995298601
0,21499840461653
0,215133203169089
0,215160360840985
0,215814637798787
0,215654476573434
0,214209160831973
0,216427832393698
0,216810873925488
0,216739541255202
0,217930760145581
0,217613723709735
0,220087081328272
0,221968248668959
0,220614600592374
0,223132732160455
0,22497534643186
0,221654103923596
0,222364355235845
0,221912215755983
0,223432815831943
0,224850738721753
0,223991032088297
0,223428003007551
0,223904796156913
0,222973458963521
0,22390196088432
0,224372770939825
0,220934959181056
0,223194630128092
0,223492270130009
0,221258372198629
0,222475655414474
0,221646253899899
0,223562714237467
0,222299662240289
0,220599052839557
0,221006290927661
0,220148845315866
0,219026818862431
0,217483645851521
0,219218440292023
0,217213279226785
0,215689913292335
0,217261364536983
0,215038537627684
0,212900397139572
0,210353624054038
0,209270158935914
0,208686133066783
0,207879147179983
0,204413776626786
0,201671223160978
0,203001082613958
0,200848666949353
0,198181236498358
0,197993658629484
0,199113529329887
0,197874148159079
0,197880974872412
0,198940492227633
0,198410258966941
0,198540885914811
0,198321996904875
0,20208539885115
0,20145488446742
0,199074769339358
0,200755873276908
0,200418361962628
0,201825575947276
0,201942483714415
0,202971295498706
0,20245680219898
0,202253678171564
0,202329215876765
0,201237116212467
0,202369007941785
0,203496237590062
0,202165516202603
0,200302587879028
0,202252786684355
0,20331635767308
0,200703043042309
0,202973206547344
0,201798359378913
0,199074945314317
0,203923761655427
0,202777897369796
0,200371727698266
0,200499930952679
0,201589555869656
0,204108673191245
0,202502132970564
0,201369262032632
0,201531559967461
0,202960352686655
0,204097537517492
0,204045764215108
0,202164748179805
0,20495557952804
0,206392264897516
0,203512183517949
0,204550024437097
0,204866204586378
0,206864551264291
0,205877569800529
0,207114632730687
0,210253254378465
0,210133585152441
0,211590376460305
0,21167332654785
0,214758780912471
0,214569233426384
0,211942857626204
0,217125010172533
0,218709375745846
0,214938431087133
0,21627183554034
0,217227694414607
0,218599803259783
0,220795471086614
0,223333274697105
0,224966598166747
0,225112698405337
0,226167733800237
0,225708134438388
0,2292186285518
0,227615393822713
0,227676619425768
0,229264900685767
0,229198470022771
0,231184967277958
0,232863385339737
0,236026456308841
0,236072007676253
0,237687179323862
0,241941818866165
0,241207066448008
0,243264073096685
0,245015098501895
0,244235469220851
0,243535951358102
0,242638269589155
0,245397960095682
0,246282526092015
0,251472037883734
0,252684598113995
0,248059605054909
0,252800188060553
0,261310817762066
0,261373915592008
0,261282863706868
0,26239304697039
0,2607349984623
0,266062342211264
0,268993745362306
0,270014920141289
0,271746283704449
0,268176247599272
0,268962253108877
0,274754874098076
0,279074204191444
0,281871371215093
0,281987078685398
0,280919508164362
0,281020157540579
0,286227621126969
0,291158445761532
0,290537860402419
0,294200022318287
0,294301221489097
0,292314209351781
0,295578757447301
0,300695445214573
0,303754469517648
0,306944075622699
0,307062084513381
0,308595484172979
0,312049431809468
0,31165335722069
0,314402266075016
0,320012336389197
0,320890184848492
0,321924587521323
0,323873444329264
0,326374594820433
0,325793786312395
0,32725806257685
0,335186661293113
0,338820456505268
0,335553616388117
0,337040584230444
0,339970690384784
0,340934436740128
0,347660256612262
0,352044878266679
0,349011314055525
0,350374768502307
0,357822247919045
0,359524422980148
0,361215512589652
0,364507318904051
0,365364463757878
0,368072696335715
0,367711845291024
0,372872295230277
0,378872316683431
0,383840778027959
0,375408394928708
0,378338214696847
0,389277895602737
0,389401358807686
0,385570464733472
0,388766339586831
0,39157811212433
0,392994121982502
0,398503063632901
0,398578622606234
0,404742487988184
0,412676628916434
0,415420791888156
0,409689639220916
0,414696160527467
0,425596784419906
0,420551590779459
0,427697665549019
0,426114480880804
0,428862870662894
0,430955912584171
0,429315525335281
0,439348605077169
0,450468539290904
0,446603079798621
0,449930187927341
0,459271441443223
0,456251033494881
0,448694792236534
0,459606593838582
0,467269210115529
0,458249936484038
0,464088936567351
0,477540290191568
0,469225957985125
0,474040684222132
0,479565917949895
0,480420788942026
0,489315695368581
0,487619438734735
0,488076124369669
0,490518469614627
0,492281690628945
0,499817140373041
0,502663863924096
0,51472945569694
0,518505099062481
0,514315308733507
0,512579008286627
0,518277920823093
0,520871933488146
0,523297101337425
0,52595691184764
0,530873628232484
0,524162158729239
0,521252162206701
0,531350846722643
0,547705097045572
0,533655515277129
0,545283740626033
0,562648022139775
0,565124189518128
0,562096758282553
0,550929061255614
0,530558075035047
0,55381090970316
0,577000724264673
0,57528544934773
0,568050318887442
0,566511305254068
0,570297371051631
0,600482973731521
0,591199445658662
0,578582186645534
0,582446183162118
0,604244596014044
0,608678880261596
0,621306669339881
0,617705849409043
0,606647011423301
0,618566769406447
0,616371093469681
0,589231357177359
0,61112787117863
0,624710233299301
0,640003099927448
0,630807720400783
0,632200989230457
0,624612287607579
0,661393915059125
0,666249654178718
0,639671130193894
0,674496648520063
0,658743157555326
0,640975523778072
0,646246920330615
0,689482627924333
0,675645716290432
0,66016076297984
0,68116521428789
0,685192305943416
0,673165349610895
0,653496418301512
0,712894108279807
0,684871686005759
0,686410369100403
0,676389316602892
0,6692841337235
0,682931886926537
0,685857680297896
0,714563635704489
0,721185747371951
0,70897543018528
0,735404283909458
0,711052873849778
0,711503620204718
0,701876109612044
0,725189722908173
0,719501293423305
0,790659415286727
0,78853072337692
0,764816064064539
0,753572513655993
0,7465178622161
0,772806744991909
0,809554305699291
0,769518884395283
0,787970180547947
0,759037080090961
0,787906939115385
0,818732461542733
0,79115138192493
0,782351030104188
0,8114666696305
0,773779115615947
0,822824271801347
0,789246029882722
0,813207152538839
0,785970659345283
0,788252589305988
0,77021521881458
0,810124233777533
0,810305653913387
0,832007676431742
0,780388372593328
0,813894820822523
0,79782739109629
0,809249628263475
0,774358034427139
0,853215405638018
0,807330481463548
0,813133759744108
0,864320039307055
0,916180885591011
0,912316396754591
0,890036457416804
0,819930205313868
0,833985728904265
0,849226795364512
0,910090620570371
0,885402775220341
0,875526696718419
0,898138423865016
0,919750860741255
0,83819043428382
0,861792794235399
0,892387306353505
0,951094192769319
0,901639770672821
0,920333809650567
0,874593129413122
0,822803264475011
0,865227657928375
0,902712868721791
0,886449017338746
0,982248228658068
1,02431587752532
0,94143973914807
0,827069811354666
1,01011352405153
0,982928974596979
0,914269261269848
0,843038399919372
0,90460112979923
0,992725575280826
1,0723631897297
0,878963494354971
0,804777246209742
0,928976189347766
1,15202513280418
1,02960675561617
0,968871650171804
0,981893332865513
1,23098595783225
0,947110158431057
1,09571814852346
0,977781196788882
0,997866285873483
1,05125577475184
1,11804442488905
0,953402197827589
0,952932045816701
0,768469144992313
0,91248785217143
1,14025824555446
1,39285448668922
1,7469182033569
1,32176971739739
1,28381830090217
5
0,772207702435414
0,838842161792544
1,45359562839774
3,12198407945179
1,04521706314657
1,39548278658948
0,97452927491766
0,878893232712061
0,915808612406239
1,46423556741878
1,10693695301394
0,687907664327742
0,861234863869675
1,24387883202388
2,4277401864289
1,08377108891997
1,02421577151482
2,17248212548478
0,833705636939213
5
5
1,19522960323319
0,969794318883469
0,937598293353658
