3596
4000,36533379555
650,420452594757
1
2
2
0,0607507166805456
0,0503149196973614
0,0538761263891655
0,0499816905659873
0,0630029710429051
0,0523505754601494
0,0604459439887597
0,0453613884639325
0,0626842990824537
0,05011966125967
0,0597317041100538
0,0488078430981501
0,0548167016054981
0,0383065320035195
0,0585836305597399
0,048537244120604
0,0549180155698301
0,045562715523968
0,0640345687597666
0,0462158713276531
0,0492002167027135
0,0501789323901838
0,0512486414767025
0,047389465323596
0,0606682620289387
0,0472829807987317
0,0570729686837166
0,0455308536209713
0,051502114062883
0,0469481309660751
0,0543303341677564
0,0402369935785342
0,0630302800874736
0,0542003117657898
0,0522660966316527
0,0408575067020825
0,0606522297011224
0,0493178438285299
0,065777256698479
0,0507577874487572
0,0630462942274297
0,0520030682009984
0,0565743099270389
0,0413074586326609
0,0613347969812172
0,0549288531814105
0,0648825401829925
0,0398654946044463
0,0538945758071239
0,0448645300737804
0,056533882983745
0,0428365756239919
0,0685161848926644
0,0537848306698504
0,0568780105180343
0,051555749168628
0,061781494135594
0,0475622069342886
0,065163474593886
0,0432031849103758
0,0799049644213556
0,0607857476826831
0,05649116067049
0,0440204787955759
0,0568513423172613
0,0509087262462009
0,0596633064522876
0,0452360890324972
0,0510384159583077
0,0533326711503045
0,0514710178888817
0,0553521389145654
0,0698510391917749
0,0409063765461706
0,0564052736804302
0,0531082992970298
0,0643915915589162
0,0488977492018341
0,0488717709184953
0,0499246630878723
0,0628149597652589
0,0545328682995344
0,0586759809728131
0,0519671839606516
0,0596765428339794
0,059728555545454
0,0477130846894376
0,0499249350085806
0,0739252160784548
0,0608222689955207
0,0540300204803638
0,0451645656962773
0,0522781921548839
0,0425890436055639
0,0523431106496138
0,048190657380458
0,0559387309424789
0,0475430267475417
0,0462016933414658
0,0543243185873046
0,0509350223522376
0,0402983511980038
0,0955365006799078
0,0307371792470787
0,0988563735548229
0,0490456230514918
0,0534823195377426
0,0736051517014798
0,0644421843737883
0,0490714005131107
0,0526447101596307
0,0498294684890482
0,05022064057616
0,0486115438871539
0,039119149096778
0,0632738797368937
0,0743546942717744
0,0520143124511348
0,0538199458940281
0,0495908301949702
0,0358616452187273
0,0523521954745321
0,0824455330343814
0,0461012966077254
0,0559435811082053
0,0495982776748562
0,0418327196754794
0,0616245200913302
0,078038235974847
0,0532399378856054
0,0594647996549181
0,0508596826765512
0,0437544454804662
0,0431441049171563
0,0774640584969788
0,0503244480566635
0,0514934097519562
0,0226767400475473
0,0655445858644552
0,0914771132179369
0,0745924727685407
0,0535382520520177
0,0463773230059575
0,0352075456016374
0,0827720558322982
0,0528984501035478
0,0460070658459432
0,0616407187587326
0,0662331797747791
0,0485759538785259
0,0571362682814369
0,0415740126880422
0,0704733060128595
0,0602935169007665
0,0110650048169292
0,072345240542521
0,101378642026718
0,0445653755317126
0,115845160053765
0,048710767983745
0,0666985964918738
0,0459726571124476
0,0602925975760663
0,0415050293488105
0,0665894861505781
0,0344038721478771
0,058633138664844
0,0657325557288219
0,0562074068513299
0,0424511253037429
0,0734721047117317
0,048168356842107
0,0446482075010931
0,0978471892395038
0,0637684867938225
0,0332709317724822
0,0743870526851382
0,0643678478424178
0,0443061498330223
0,0471669231616376
0,0727476266654665
0,0457182685068646
0,0614325373275976
0,0443474057666145
0,0551455205906814
0,0661522519896098
0,0590898286009185
0,0506321695123716
0,0592010568682687
0,033147631578844
0,0552901366009533
0,0777529155981447
0,0802919589652168
0,0517618141549755
0,0552902481891429
0,011380330861018
0,0893971446829886
0,0731110043009595
0,0575182472026487
0,0505653771154877
0,0567747663871247
0,0476813829432432
0,0488721865702426
0,0517619686921355
0,0495883596931361
0,0275442851632417
0,101717143386999
0,0674326869182542
0,0625867083150674
0,0499480880974079
0,0640468911775135
0,0323800640388369
0,103789907853952
0,0686952851592467
0,0603420089466677
0,0524044501625412
0,0451520982405247
0,0558764445800291
0,0715213940920945
0,0500768491172452
0,0589602961526405
0,0560273466234491
0,0592924626480021
0,0486190556278711
0,0550505226254716
0,0495552329538141
0,0564429637882965
0,0479905659838326
0,0574960293423741
0,0500329633841686
0,0666554597851602
0,0484560226633272
0,0570733406209752
0,0543060283688183
0,0399313731983151
0,0480048807600899
0,071015858869052
0,0508901739663431
0,0606530381153999
0,0488207874718847
0,0592189466423142
0,0453340703989336
0,0533306520053173
0,0484854119949405
0,0570304225840722
0,0341465522216011
0,0899319803867002
0,059553022407702
0,0664124625616464
0,033652935936629
0,0697160218994714
0,0596060175316445
0,0694164567730676
0,047226733754393
0,0635274557636791
0,0439070480438347
0,0496635424655851
0,0798965659136111
0,0655752071515631
0,0378575245959351
0,0758859219986592
0,0579570694662861
0,0608699996735975
0,0429989683399603
0,0397892823398648
0,109819476525876
0,0645153958427853
0,0365205740352042
0,132684166785562
0,0660973176987178
0,0833406203814377
0,0462138195901538
0,0235699931040312
0,133727927990929
0,114565358488468
0,0541645690692934
0,0662552604069882
0,0709014628749052
0,0553392859887148
0,053935549236707
0,0612308612962812
0,0558417527172632
0,0734342156014679
0,0727813257790799
0,115684289572348
0,0374317998273558
0,0884149014096451
0,0785829949148605
0,0776753402794167
0,0560983313291619
0,0638734091168028
0,0554056518235937
0,072017828877229
0,0623014144054842
0,0786756585873349
0,0642374207314171
0,0604569712581225
0,0758238730681838
0,0765854173644614
0,0582806557945225
0,0736484818671425
0,0718761754370285
0,0733146487787055
0,0674614048694412
0,0617282999787575
0,0741955141431179
0,0661772252563006
0,0509547652291826
0,117433152059314
0,0698166501243912
0,0707234061950459
0,0968695196458533
0,0834302509602989
0,0764675763374358
0,0754617308285338
0,0735072060247757
0,0739036416800668
0,068229335664153
0,0690203693989572
0,0954598822194079
0,0883998039986895
0,0753235650960981
0,0794510587863682
0,0807423122328577
0,0840820481158102
0,0770040218131678
0,0854831110902687
0,0892819860129636
0,0948494741627014
0,0731758246092468
0,110111368367006
0,118161180736023
0,0732355751757101
0,104440544856943
0,123066266543541
0,0970172562388794
0,107524454123419
0,0975404281801356
0,113430963331447
0,10146157727949
0,11072094219992
0,0959747765513635
0,108352307293879
0,11814107294779
0,124904172475182
0,108151964526485
0,11618739623275
0,14699007712605
0,183341465621623
0,13642573778358
0,137733419357996
0,0984141986155314
0,163204863050428
0,149721195428399
0,155258974895073
0,158056481608363
0,141959617547944
0,15294109023182
0,148668659070607
0,148844132605691
0,152916260310435
0,160124011919575
0,157869132802581
0,160745807070745
0,165550724921261
0,172883961124241
0,167804517964795
0,169445719780701
0,224236470311325
0,190288902093308
0,182752188470001
0,182655703093906
0,178679890119828
0,198602987970803
0,21180092324741
0,222183379653941
0,216151851302768
0,200032831562228
0,247011275626134
0,20984149428533
0,218076526479188
0,201184336577391
0,220759543996805
0,211229617596954
0,231668107860716
0,21854860496322
0,233292003695237
0,222038701019915
0,242854920397235
0,230297655888883
0,239225905358331
0,222662606257134
0,260165576468382
0,245711744466294
0,258607804411948
0,232266417329513
0,26280876680164
0,261611214751435
0,297389235000441
0,256278922815307
0,268034460014839
0,261346227813332
0,268716496037871
0,2606454312827
0,277630054949613
0,279569790236794
0,277658345837401
0,29011699794867
0,292994605422749
0,296702036896409
0,307238429420743
0,274382419673431
0,31097927699797
0,289883283509978
0,294329469508441
0,305885320719646
0,313041149779499
0,285674531866656
0,343717287540319
0,318293011080533
0,325376303871779
0,325456963114923
0,318835253039502
0,309538647579116
0,326318582227256
0,317394260715469
0,330986074704265
0,325226507304421
0,322217629203105
0,326288875076004
0,340965670016271
0,331251107814229
0,347322114576894
0,330580897747515
0,349457505193405
0,336208941344318
0,360128214199452
0,324155749018187
0,349539107410629
0,337213579780087
0,367896082274565
0,354497602167066
0,368573143830724
0,360664426070873
0,373703453187479
0,357123259359797
0,386996306681073
0,376575102786609
0,374471508931898
0,371456587153454
0,405623558384746
0,370449642849523
0,397127158208857
0,378027881654593
0,390837588638791
0,383989789529765
0,398931141028191
0,385501785687793
0,41213306092815
0,398925854238082
0,409402081358153
0,38775706466934
0,441948847543109
0,406983652427453
0,419539232942131
0,424021337327489
0,419386953347826
0,425922949290773
0,450030631032561
0,420711090979353
0,449476995243848
0,42207256760513
0,426984367787884
0,419189563096975
0,435460340606162
0,447767855187849
0,455432251366766
0,436476893960391
0,46238123376005
0,459606724910128
0,487538562999125
0,45626374206782
0,471381776601105
0,454508217357443
0,49041178174069
0,469226402976743
0,478804911518978
0,457763410365665
0,478904080032943
0,465058505442838
0,491893259006694
0,45889639414287
0,495914737842917
0,491529852836369
0,522769826979565
0,478157038021491
0,512518799673322
0,505596256609492
0,520080503491283
0,486838305424133
0,534296765722714
0,533801880520414
0,530859492635126
0,493593404476537
0,525270745691654
0,536782821772256
0,543757344705147
0,523085968258956
0,557160440438341
0,520806358492835
0,561367273986447
0,535462787491109
0,548399699318176
0,549332316725949
0,54853731801595
0,550856053777361
0,578314364539731
0,558841414729473
0,582605458017354
0,541517025841124
0,558888730874078
0,561238367252452
0,585129018498981
0,557518286368827
0,592399932381364
0,55941305504218
0,595593058101119
0,560588128110505
0,611710150303999
0,583448409984431
0,586976484448998
0,570195511765818
0,615430485852419
0,60052828604197
0,616359713636992
0,596106337750302
0,62604278037487
0,629751559619804
0,645816953227039
0,605415679299467
0,654418317770181
0,623735739693432
0,617436782033189
0,614029442562288
0,624525130207188
0,638663267943411
0,635677467029404
0,637607908730659
0,683989269770688
0,626682299725968
0,654801922360841
0,638761504901626
0,691775287944216
0,663017895277255
0,680960955485804
0,635169063540263
0,682798247407896
0,630903610062745
0,675300502476949
0,658014196397415
0,697943089322636
0,697766893538449
0,700101916234056
0,669996147605554
0,718805040428228
0,691745291526175
0,725983615710641
0,699956441781296
0,686149669906711
0,660889890331178
0,722173719223739
0,696978243524226
0,75392206093961
0,740188394437433
0,735058451382394
0,715335769200683
0,735613288293271
0,721133293600374
0,740891745094713
0,731335254035758
0,76130095032618
0,740884081542085
0,774128632056158
0,755723130494502
0,749130797755245
0,753585106755064
0,774208358253497
0,738546199686184
0,797927923449089
0,756079761804717
0,770018431097865
0,762290997365021
0,758457666430185
0,796323259126393
0,813277888693459
0,764698787974345
0,781611389100309
0,81002140689343
0,841199519322947
0,77848706550685
0,816854915421225
0,798360511246412
0,82314623237832
0,805700792171618
0,802141648775074
0,824293932692944
0,857231619185005
0,815603926497459
0,865726052102106
0,791251969202855
0,857631277210091
0,841818763978009
0,826065246469436
0,802043108579848
0,864290561760637
0,829466415117537
0,870311339554641
0,836767911081371
0,843294309654798
0,838290063548813
0,857508531521876
0,85810595418078
0,869661694770603
0,836260419296631
0,88999197978961
0,892256314913169
0,932470181075289
0,921304400749805
0,891218209040308
0,878531911690995
0,915710712772034
0,88931201974063
0,903061749172669
0,872965017924051
0,93934851767905
0,923616503250658
0,907274547308619
0,872560585773712
0,921936904054032
0,933808212109745
0,932543096389811
0,862649047582684
0,929089308796249
0,923556895097406
0,941329813094778
0,886933554290592
0,943485197807949
0,919435410327051
0,967205339025192
0,934708176398565
0,939073122502089
0,951197709945594
0,945150695634859
0,921495565876151
0,98615517085721
0,934309122547858
0,973731819594099
0,966761967393565
0,94666218508006
0,936886245799102
0,998751399228814
0,970018421662878
0,970556984122523
0,954143438922543
0,974492227699056
0,957767624108957
0,979789836132406
0,946144996912771
0,966462581485249
0,9682760159879
0,984013017190633
0,993999987447077
0,984713404432917
0,963015354534436
0,997516350000731
0,963624318286024
0,96956098339916
0,961730515456795
0,992128867041055
0,979212205889629
1,00435765522019
1,01020649931941
0,986834425492107
0,954624381055557
1,00891710357781
0,994244235690347
1,00392049696249
1,01454194998837
1,00236359757433
0,968326269870873
0,976286634290153
0,98125592352804
1,0406770668345
1,00324888318262
1,0167127171997
0,992944817139004
1,02813548329668
0,997834283086629
1,03018892301218
1,0073712356107
1,00792370972851
0,995617353366721
1,02285863634058
1,01369821849262
1,00480965636428
0,99585238464506
1,02236701591174
0,97930294455678
1,01226934506575
0,993886969649856
1,05792213621569
1,00129012448539
1,00985345767454
0,996824137005597
1,02152171445258
0,988521379985632
1,04103098881063
1,02081157690391
1,02151656160363
1,04739679656886
1,01075428208152
0,997880525457458
0,998172454195317
1,00692492945376
1,04598104673267
1,00638194964412
1,00294449990258
0,976651672102526
1,02823732601208
1,01888498045661
1,00698185919827
1,00049918622783
1,02686840994553
1,01593028226011
1,05531064110651
1,0181487533476
0,986708501830364
0,981868803424212
1,02506463646247
0,97799944815596
1,01210349345528
1,00735895902888
1,0269653023193
1,00737232269766
0,994166413611318
1,0011097802196
1,02839122278868
1,00596712388727
1,00744390801273
1,0008571810987
1,02506198062953
1,00140423412213
1,0264149405729
1,00080708500622
1,01439418681904
1,02439072977942
1,04401903736978
0,998372588604
1,01554142087278
0,983657010035668
1,03887539403605
1,03657908801241
1,01668989512541
1,01195516969454
1,03514902987299
0,998217487969125
0,994142652262669
1,00982972415885
1,04448876767403
1,0044650561192
0,978034024481057
1,01551035515916
1,07822037146763
0,999151386807659
1,02711771840636
0,999591479138551
0,975180889907908
1,01146610504369
1,02969045886883
0,990466612933953
0,965880720688214
0,983849941600861
1,05243134548006
1,01738671257005
1,01700571897816
1,05291584175155
1,02444338072487
0,99808096322837
1,07486684956279
1,00263788742849
1,01492267658125
1,00633655216281
0,970767600829728
0,972269800936522
1,02134197985408
1,04505654423471
1,00973895462995
0,999657998705478
1,02570539207726
1,00810905325482
1,02583630834364
1,01360835740967
1,00344489070167
1,02595983630054
1,02917911283437
0,993398908403755
1,02514591592354
1,00712481549023
0,98894098356535
1,00109336685983
1,01760929542131
0,975406846749736
0,965990583028485
0,998332676672332
1,02381168982296
1,00580934126361
1,04068911713178
1,02227708343734
0,960847326342458
0,981618942891847
1,0097311051625
0,968384349047999
0,992846164525787
0,99898665698202
1,00183808126115
0,996109586251383
1,01493830930044
1,00385250626472
1,00423651006274
0,998880018895871
1,00261671885711
1,01813681539753
1,0171170728488
0,971919660139491
0,982991031055101
0,970716297796695
0,986517660109028
0,95443744276022
0,970623034928788
0,993806085648877
0,97999578232224
0,958721637605421
0,961529874728721
0,996628819178562
0,981918191173159
0,943790017417654
0,949949744970557
0,950242587550802
0,986002826976625
0,980786336078814
0,949279818470432
0,945391911730938
0,956346453132884
0,928018033911031
0,945892563639678
0,935893202011255
0,939840321857611
0,939261394807288
0,929454730085741
0,910576303785609
0,918403288079726
0,928034218186428
0,931257328697295
0,919942965142067
0,933135524255707
0,921896153032088
0,910523112347619
0,896038497883097
0,904045615440128
0,899421975750423
0,915445434508385
0,886418679135498
0,881320864403435
0,871505956748769
0,893389629632377
0,898958338176024
0,875481623335057
0,880730330461321
0,89469773886107
0,870835210681237
0,847038145767443
0,847309994486046
0,855249941372526
0,854043775216393
0,837250015857402
0,835296514893683
0,850745424835306
0,840884190346694
0,850088548256448
0,835785046567303
0,815402806085516
0,806088011578064
0,834311263901209
0,831166267215229
0,812688320765196
0,801531924185584
0,808830853502536
0,814614329516921
0,799204787617145
0,795992866849661
0,790896785190516
0,777199087599121
0,786420396136632
0,769379494206916
0,785725917375731
0,771796205964475
0,760063800127195
0,759035963925974
0,750776537775748
0,762019193881092
0,754305386752424
0,757401302008907
0,750411325537436
0,732927724571633
0,742796727969824
0,725621706647208
0,730121548679216
0,723097041106328
0,714158645709087
0,723683552340505
0,720864411392302
0,707939720696932
0,709650980927235
0,715843456250884
0,696524287726289
0,687330184735433
0,68402555317191
0,683200120101177
0,686545555253235
0,675935623978007
0,671784069826535
0,661434803461705
0,666017345694711
0,668458045396202
0,653349598480901
0,650407315831912
0,647451566995812
0,643921225215596
0,64338099598325
0,639559702797147
0,629699135928537
0,631426211142876
0,628859067678286
0,611523908128622
0,614507732970865
0,615326086874638
0,613554082854741
0,602837228995101
0,600378646956953
0,610254304163426
0,598843162772218
0,594800999491907
0,589668816610588
0,582729307998528
0,590588199795157
0,584587724673148
0,584754777160286
0,57599700754648
0,561984393283493
0,560621972703546
0,568374079684303
0,565628497540913
0,557572770009115
0,554619584832013
0,543251185831559
0,545469661548017
0,538735027226924
0,540069723435148
0,546142082384639
0,538083276675597
0,530145442069441
0,51763061535182
0,5142454696544
0,512240508929129
0,512880168578338
0,511311574653563
0,507439918393251
0,508162125746116
0,505049261722325
0,496305385218186
0,491779307273947
0,49219502963989
0,495208647147155
0,486768836628736
0,48224427118626
0,486881469641641
0,469634346896519
0,469306170597574
0,477321021398637
0,474485339121114
0,466920240620529
0,460464080533102
0,464344071625826
0,456340063395207
0,444592144508202
0,44856738816768
0,444372854439314
0,444519356572532
0,436515696257556
0,434712341384281
0,431450350688496
0,426497051665753
0,431132104243121
0,429870156822948
0,42252459181879
0,412991538584769
0,413094062666973
0,411434965909052
0,407321353786367
0,40515493015346
0,403423771378884
0,410140363666187
0,407603311095944
0,40462323441353
0,398681190584743
0,39034069837989
0,391372783506652
0,39487979775239
0,380476577769997
0,379669333565208
0,382250563753338
0,379667093553814
0,376171415487883
0,375841837023824
0,376923313488634
0,367438347565025
0,36207123202243
0,36612564535874
0,359871737705336
0,353507974786576
0,354195361477873
0,354305483100913
0,353378772160818
0,350538587797671
0,339697982543924
0,34235124550726
0,341471299048908
0,336301450018807
0,337522530064946
0,339507317521039
0,332805842121832
0,332883274425582
0,323670456640754
0,32143216381085
0,322173762148787
0,31956651130403
0,320453688065707
0,3195568653178
0,314860609277452
0,314302600339794
0,309986816685871
0,310238078258053
0,308352166829945
0,306785818119118
0,302931039987331
0,299221354438893
0,292861952268886
0,293472390650162
0,290415218498117
0,298644635224329
0,293789632474899
0,287042216011881
0,285823426741135
0,28564221352042
0,286014903106634
0,283664286314147
0,280264782009239
0,278674409310021
0,275631735464437
0,269216427782287
0,265394062721925
0,268680621005678
0,265637777069171
0,265540427477284
0,265085513350973
0,264708315505107
0,259151305309357
0,261602005306334
0,264612009618946
0,262797131472177
0,255791549852709
0,258354171036079
0,253774178396012
0,25182858517863
0,24980362831464
0,254669550179036
0,246601418665387
0,244935553617388
0,244922208981877
0,245752212062044
0,24063130442828
0,240454401880551
0,237864876130527
0,236401350935424
0,232665942002416
0,229661196761543
0,22696731949711
0,229451826043856
0,229426128427021
0,229908718075266
0,224664336719944
0,224017792259173
0,224673103812048
0,226290616229052
0,22043261463296
0,217113882006499
0,212767260479761
0,216279773595589
0,21175379090864
0,21500621384583
0,210411982614234
0,209843091657585
0,210687124585961
0,211008000635376
0,212773877925945
0,208217954684405
0,198939488163762
0,205051213957327
0,205305577779496
0,203994631690722
0,197365228061293
0,194165938416417
0,19701748670047
0,197236947840022
0,193895515202835
0,200479951168769
0,198338209918507
0,193143955998401
0,18837476927018
0,190995661934808
0,186904644892963
0,192915433960192
0,186521468400619
0,187833706650667
0,190294336652726
0,185961473623353
0,182756056073107
0,186858560349142
0,179900533564019
0,182947247618626
0,180932912716084
0,179561536290811
0,177096368470601
0,176898788450422
0,174970549564034
0,182039386517653
0,174548541253023
0,172415114204852
0,170003103962575
0,172946324139204
0,174500417223044
0,170978747333212
0,16976590213418
0,166254855136776
0,163071806596136
0,166804712719839
0,164991145359873
0,164846986738786
0,157836787745394
0,1594280538793
0,160034230954538
0,157276893542021
0,15708678029504
0,158616565441962
0,15562397338542
0,156029376468363
0,152518635342379
0,155198805668899
0,151557639228941
0,153133198708362
0,153205694358066
0,152431085348412
0,143782583946987
0,148476512730896
0,147616031518097
0,146696557747306
0,146288034319579
0,147901117303125
0,14513807630198
0,146973573741951
0,145713722959898
0,143157442079934
0,141992028516658
0,144914300520611
0,139978040912846
0,141429661197808
0,139870256035766
0,140040539216745
0,135954356050039
0,13955137609999
0,135555475212769
0,136468922953454
0,134572917000106
0,135926787650069
0,13512182881419
0,132686587587244
0,132727623719228
0,136938355650686
0,133934445075953
0,136417325627076
0,13335621220166
0,1319431018019
0,132217004678605
0,132770142031747
0,12632069717228
0,12999135916723
0,12998588494007
0,126875621635825
0,125443526141706
0,127562798421437
0,125346208046898
0,124775958983615
0,125296170520251
0,128853611627256
0,122885428885608
0,125379222024222
0,124008049417342
0,120425236081369
0,12021795288962
0,123178259436594
0,118141825914414
0,118295762236164
0,118419944535097
0,118343074110815
0,11699020042688
0,116238661392656
0,109805809769961
0,116482360716337
0,115268663008199
0,111170808515355
0,110681103054858
0,112630271695405
0,10736133200156
0,109111700231148
0,108417474484195
0,112304025570766
0,107392002977369
0,112033418405938
0,107932747496247
0,108617502973703
0,107012136494562
0,110367612976045
0,107694532542892
0,108777434911898
0,107032902160029
0,107598149649223
0,105342111288798
0,106525032052458
0,104935047321793
0,105545334459857
0,101319974575447
0,104084133781907
0,100215320399296
0,102219690085587
0,1046267335741
0,108300414574795
0,10232003483768
0,100127324347799
0,101848652622622
0,105759192752757
0,102095739154241
0,0983072775988031
0,0965496960489977
0,0993560380921918
0,0987916865758139
0,0989705856587753
0,0987024891254472
0,0969789284472061
0,0971985450667172
0,0981310677946986
0,0946228271042473
0,0965821091949293
0,0917241588164746
0,0954060633621581
0,0938814373350104
0,0961163009467791
0,0932352021432036
0,0944081221039706
0,0950760747463496
0,0945621253976621
0,0897789259896894
0,0915950130048506
0,0872152457270618
0,0929958137559912
0,0873497232769219
0,0902780183403471
0,0899552483252947
0,0913600788879389
0,0897655182336248
0,0944730391296728
0,0920343521145741
0,091458487642458
0,0863346202639778
0,0859274400825103
0,0861459534165358
0,0889670466678711
0,0863767841257288
0,0870252198081969
0,0864014672462903
0,0895774801359823
0,0874770646584648
0,0860684230646561
0,0843633810211246
0,0864268863362647
0,084356173075374
0,0877824836882608
0,0837563941665086
0,0852950778832199
0,0836345942671433
0,0885530548580401
0,0826411545911027
0,0853499355206258
0,0838932155473011
0,0875400959346495
0,0832839626554651
0,0841823148665675
0,0823977569079516
0,0864136226253329
0,0809781227759936
0,0821601254769055
0,0771001947656846
0,0815028398568232
0,0818061869578931
0,0825100847118787
0,0781093806445205
0,0843716219335451
0,0816276505927814
0,082142235195963
0,0779960563939182
0,0828235276158075
0,0816987854820397
0,0780813717059237
0,0812289439832798
0,0802571507686057
0,0781477393704237
0,0805881851914657
0,0788794822050103
0,0823010845534498
0,0801405288325684
0,0813976831663439
0,0796058021381111
0,0813495839893183
0,0730620820744189
0,0790939759932197
0,0752934688442091
0,0768963167402091
0,0750692769153622
0,0782966099261116
0,0762661241785539
0,079506266965041
0,0764814748594197
0,0757179053216397
0,0719439984652396
0,0775928269047963
0,0740614182898413
0,0789312504794769
0,0730058058640693
0,0736078784968307
0,0732716058968399
0,0795027241115872
0,0745598941241748
0,0766536632420301
0,0738405965398894
0,0748487729488827
0,0728818950930231
0,0753845789092525
0,0739606601685485
0,0741354286748788
0,0730942219575435
0,0749079803348596
0,0719951724956078
0,0730068652273193
0,0699122339283855
0,0727899543731069
0,0706326244221185
0,0744327781076124
0,0711357497721863
0,0719387028292119
0,0717410238904328
0,0769680443108832
0,072378263271711
0,0720880781448019
0,0722561309521134
0,0741645368191704
0,0706673928744843
0,0728524132049351
0,0708697638728957
0,0721534724636096
0,0719377537853725
0,0714213873534326
0,06869028867095
0,0729887665940535
0,0669733411118585
0,0724204366000613
0,0687629928313536
0,0709709636358164
0,0662487912645382
0,0694423244700262
0,0647662770499375
0,0712233613575403
0,0701530409199027
0,0709591048956492
0,0715848920151038
0,0702107779920811
0,0682744674619336
0,069441030270097
0,0632612676652136
0,0681854012557503
0,0636087123193823
0,0671306748338127
0,0669829862279852
0,070867119360488
0,0662330722345135
0,0666316771355945
0,0715153251452854
0,0692381840063344
0,0656587666340757
0,0689472930131544
0,0672835155521733
0,0705887383554655
0,0654947966288799
0,0699623892539884
0,0689286767877343
0,0669411112869205
0,0611167194311563
0,0712166702302339
0,0666723420812149
0,0674853008825906
0,0659174923701954
0,0693583772118852
0,0653764617154602
0,0650628493303651
0,0637168955394189
0,0664020819554415
0,0627432391214817
0,0696093229598184
0,0674933163333375
0,0703635311827585
0,0672525208881379
0,0697132854370775
0,0652802446147315
0,0685624466597639
0,0646597965275864
0,065643419670136
0,0608069582178859
0,067677494402821
0,0650784625775766
0,0649808455750474
0,0625204219974375
0,067408702870166
0,0613751472705447
0,0655905156446026
0,0625541282523523
0,0665349129169878
0,06312754699864
0,0645243030822825
0,0627504750832559
0,063978062898232
0,0628483165351385
0,0643600085335996
0,0622227669745269
0,0653881952144166
0,063788365297929
0,0685337204189084
0,0632496022832643
0,0648160411274586
0,0611080085590942
0,0656115020474231
0,0644752692305944
0,0663813950601425
0,0604646261575975
0,064136177922136
0,0629772688023931
0,0660918182729393
0,0632076810727629
0,0655028924819378
0,0639207174990491
0,0639903459015018
0,0630456585687333
0,0668560259069669
0,062609382051583
0,065304207025256
0,0625482333446245
0,0668633703411302
0,0629963877677053
0,066786919902446
0,0615758837801431
0,0635669759987485
0,0625393371831209
0,0633241615516005
0,05953976135343
0,0646877989371973
0,0614557082659364
0,0652921524574906
0,063018664728133
0,0653737599070046
0,0662111693403882
0,0644563544749697
0,0605480304990661
0,0668588824585756
0,0621205228862509
0,0679358085444767
0,0640194428270374
0,0648125878794656
0,0610745445778013
0,0649403143798509
0,0615970483328789
0,0653318644231197
0,0621098039712919
0,0637171008276205
0,0610830940397209
0,0665721137348564
0,0602966958694764
0,0643489995107893
0,0613577441372761
0,0649917138188203
0,0639261167646718
0,0636416797632687
0,0601650674275227
0,0660680304815535
0,0592432164477346
0,0612302271051246
0,0592713587640082
0,0618407434221835
0,0608512561882104
0,0652328378382081
0,0618809020404943
0,0626277073041294
0,0628090636197512
0,063884390041095
0,0612225781307959
0,062648174803311
0,0607425039374932
0,0654166550806671
0,0606626535030634
0,0637478261955712
0,0607826999374819
0,0634933859908075
0,0603962781495879
0,0631794135258523
0,0599055870341098
0,0643566257786272
0,0639630725969442
0,0629903771150882
0,0595868073904506
0,0648615434011783
0,0610669474852588
0,0631090195111557
0,0613074426478673
0,0658939508227088
0,0630293936849004
0,0634607297642497
0,0607211373854993
0,0654737299484366
0,0626159295953023
0,0660750038017332
0,0615201063607337
0,0648283585603291
0,0638244582079009
0,0677883398736153
0,0635068906012676
0,063078570895198
0,0595401579472677
0,0658073750476603
0,0630472681247145
0,0668698722448148
0,0604682400960415
0,0656244301755585
0,0615348214562581
0,0660839942134618
0,0608944823674796
0,0622511247089549
0,0599989770651084
0,062679414023854
0,0630168153450598
0,0653145238309346
0,0634119851748491
0,0663990297978798
0,0618321840601017
0,0673895423725954
0,0609718650946038
0,0650930138274214
0,0611376450150641
0,0629002307094875
0,0607227524400667
0,0638057216575258
0,0613536358341535
0,0657662454448051
0,0627359808877664
0,0649831824217515
0,0620226446938228
0,0642454136851681
0,0616952379701174
0,0649993092200721
0,0605082283467612
0,0660244080256027
0,0618454077762475
0,0652121464651402
0,0612384600990615
0,0654259055184286
0,0633131580434264
0,0678344646551429
0,0629292691003621
0,0662447171472016
0,0636847788166174
0,0666461147813665
0,0628720347872214
0,0664879242816771
0,061750362252837
0,0638632244289426
0,0613482468553711
0,0651253258472062
0,063764186068766
0,0666679321942903
0,0656982608940111
0,0665682556573871
0,0644431356589806
0,0654399449355968
0,0624633179161762
0,0679120390543533
0,0618491230085339
0,0658797900726997
0,0643011201952384
0,0669654757599297
0,0613344515799098
0,065548089168507
0,064179455823786
0,0643097054486648
0,0625484416316666
0,068119121741529
0,0641157485413539
0,0673798790268745
0,0647362660116374
0,0660822638920217
0,0625011256287538
0,0660806641182064
0,0633107518668007
0,0660519482815732
0,063469339677242
0,0660941049423898
0,0632881994800224
0,0670176385548648
0,0629427254578617
0,0656732090841522
0,0644448354346815
0,0672140056450014
0,0638254940504057
0,0675611744525837
0,0613201222099809
0,0655549135368808
0,0636437129814594
0,066476389462857
0,0654887753298466
0,0658716879153939
0,0654008899331847
0,0685710915759111
0,0655431115644219
0,0686476230610658
0,0651947202874586
0,0660068256364747
0,0641085477571864
0,0686115543234403
0,0617832678943769
0,0669781385433803
0,0637179827937042
0,0680946229635568
0,0628085046104135
0,0657948552847787
0,0648093569136159
0,0699231820967848
0,0664941686964651
0,0711292622368943
0,0646695558556047
0,067975025998482
0,0650393564098839
0,0694667721675451
0,0650452980379988
0,0688356139836922
0,0674463904205829
0,0680970366088376
0,066387333920842
0,0700131017426175
0,0655043792846337
0,0681138147679723
0,0664644567459654
0,0705931586241214
0,0652135918448054
0,0697243010820826
0,0681871501260851
0,0688077460071607
0,0663788973795642
0,0706751007999351
0,0655003954908213
0,0689941089573406
0,065716964411681
0,0681434629070686
0,065875975213323
0,0702429147998139
0,0662632917976323
0,0722177214560685
0,0679421787236155
0,070259839108723
0,0657643576085805
0,071789751805954
0,0656765470790426
0,0703833876963397
0,0661362055997269
0,0687586297753718
0,0650884146448344
0,0685427075372747
0,0684347042415672
0,0714203215633426
0,0650409467053988
0,0690981733578534
0,066638386411944
0,0716238879942515
0,0686041452208504
0,0732863791750085
0,0663013863894099
0,0704914415290117
0,0662700819031524
0,071894142783516
0,0672113497650467
0,0729193026011862
0,067789283723558
0,0735649345922751
0,0693743481826621
0,0733195173035093
0,0678588559066607
0,0712003962472963
0,0675345127057014
0,0728383180953793
0,0706970350210032
0,0740844204750861
0,0672671469789017
0,0726523444450284
0,068534074138408
0,0744359178914161
0,0666332011173069
0,0756229128378299
0,0706549920079945
0,0771025300484252
0,0689671290042277
0,0726561968491457
0,0668290999317789
0,0750997193046884
0,0673940784339121
0,0731423804925105
0,0710239555395899
0,0785066747336216
0,0714591956227445
0,073677679633536
0,0589641709548828
0,0709107151961237
0,0725419644459641
0,0765595838706985
0,0627335951929805
0,0752486345101956
0,0708091360033887
0,0737945133803687
0,0692634864738522
0,0794010479448393
0,0670177972865076
0,0791800912974921
0,0630752017445317
0,0846001586743034
0,0634686303126306
0,0760074068728605
0,0695322398599081
0,0781805668791735
0,0704900290424336
0,0797139559661872
0,0641100444377104
0,0791409475554164
0,0643778384336341
0,0760365479669356
0,0572921283788528
0,0790927112073066
0,0631483083797859
0,0809712221354251
0,0561984767189899
0,0811559594853904
0,0578407565893913
0,0801435327731903
0,0566648959752286
0,091811394914227
0,0646485613725917
0,0984440713348525
0,0568369008680489
0,0944927125108423
0,0489223523201786
0,0901271357997322
0,0575877406305783
0,108577676748707
0,0523655941114825
0,101011848781978
0,0485072546159126
0,109292631539186
0,0572119772701502
0,103844349535703
0,051462108877062
0,102724671447062
0,0664542149279852
0,0942433890198283
0,0672776612291684
0,0906688687471253
0,0828414469553689
0,0732246930349705
0,0875957149665525
0,0722468950167942
0,0884750011439218
0,0661843326551663
0,0935649370362174
0,067232993665928
0,0914430110834716
0,0733465325701681
0,081656553502557
0,0770144323128228
0,077716011194811
0,0825454365959352
0,0754688601465923
0,0803817868081586
0,0782786409729278
0,0817603058485198
0,0812939620119169
0,0780964042644591
0,0802506280755319
0,0800474993344191
0,079555709475255
0,0810942134353786
0,0806282631382925
0,079636961982938
0,0800235411212247
0,0833712070530407
0,0807530527743992
0,08085860105419
0,0819102448553534
0,0813853280648562
0,0811860494493098
0,0805333117624857
0,080683568789621
0,0810939563376423
0,0801932134519679
0,0813988337630637
0,0818293334807297
0,0834077796587064
0,0807894277253405
0,083289571567628
0,0820602395576433
0,0844551851330355
0,0832256297334664
0,0821816736029218
0,0842395921362203
0,0846405222845611
0,0846150625618942
0,0849190271134141
0,0820594063451619
0,0852523315814502
0,0826859570870732
0,0841094854914099
0,0832144051619503
0,0849711086006048
0,0820540480097206
0,0853335426153992
0,0840113211155063
0,085810739483666
0,0849418873605391
0,0866760286445429
0,0856951204766266
0,0870167976059549
0,0858161190041866
0,0865913529594725
0,0860013888319188
0,0863658239809551
0,0865380987275937
0,0854763307953337
0,0876075668457225
0,0885073164747696
0,0856417590075919
0,087102498493246
0,085934091683087
0,085306223315565
0,0846826708550534
0,086998018881594
0,0858070070987076
0,0889299824455392
0,0883300770638807
0,089283028822327
0,0865158813826157
0,0875945745184625
0,0866452465018007
0,0902721169491225
0,0858645688139885
0,0904062998981052
0,088607720068489
0,090287009035841
0,0902680936525147
0,0910728078626395
0,0883947890687709
0,0912155139480786
0,0900577927034593
0,0905954571764421
0,0898484053424257
0,0905145062456921
0,0901008865329339
0,0910612707724106
0,0907366145024959
0,0943603973651401
0,0883216658763219
0,0918759512510732
0,0903926002330576
0,0940957726177449
0,0907152037444275
0,0948154655747762
0,0926079546971305
0,092956430477906
0,0932689694738844
0,0932219143799474
0,0927117937628204
0,0971180675197178
0,0914542454994613
0,0960261555329094
0,09429033436411
0,0961047567120166
0,0924661420793556
0,0956078202008464
0,0948662249118894
0,0956641328194442
0,0942257874275719
0,0977562892962239
0,0952647936990338
0,0956667936775479
0,0961117357676255
0,097278129283144
0,0947013414497078
0,0964744898280439
0,0930336254841054
0,0970726827953892
0,0955549266355268
0,0970448103278817
0,0962918273364938
0,0962356845428893
0,0952528035046599
0,0987001649086346
0,0950527525710614
0,100763670210763
0,096771076106345
0,0982585297188086
0,0965282530881079
0,10030600722376
0,0954278729140444
0,0998762865424307
0,0991667936899139
0,0988892328992725
0,0990261842760253
0,101731915593015
0,100432888878469
0,098361292358123
0,0975420233430097
0,102671393427058
0,0963687659343656
0,100901554719089
0,0971731772210277
0,100833294717744
0,100272584618056
0,0993516704996888
0,101415069054874
0,103813573419057
0,101991211837301
0,101641070416396
0,0984818204227603
0,10138706898486
0,0994324182469832
0,104704557087724
0,101188708161621
0,100053790090344
0,101405831590055
0,102593416378244
0,101986361807517
0,101735139879669
0,100372877189606
0,10270453437143
0,100106996918782
0,104388590556295
0,10029688525098
0,103645649118624
0,101299430191173
0,105231465933916
0,100203693550287
0,104516182473302
0,100101171996165
0,10383083304778
0,102638567218288
0,105344991312985
0,102208308177234
0,103032171468319
0,1036962910383
0,106784120928037
0,100639675923578
0,106314287329091
0,102795624643159
0,103578864361046
0,102350651413533
0,105158772572128
0,100905950070384
0,10408516700458
0,101858512402995
0,104883571926093
0,100947828499021
0,105970244682654
0,102256738897489
0,105702094776974
0,101093422429997
0,104260738832918
0,103427870027555
0,103537339553624
0,103170144950195
0,103283535635936
0,103902749382052
0,107355227555018
0,104573467854686
0,104618834914289
0,104000341652294
0,106253871998267
0,10273328606985
0,105168553931877
0,101948079168087
0,104696954240434
0,0997107869953189
0,104034145998935
0,102614979923412
0,103801144767986
0,101555651460763
0,10207544097937
0,103320391444696
0,104726482818881
0,102572572419953
0,104070108822803
0,102309827756648
0,10537484000305
0,102812253813356
0,10514913610037
0,101017741528171
0,10495366882345
0,104089210812662
0,104469103796647
0,10334279246001
0,103458085249272
0,102262778759918
0,103536851577807
0,103225688460101
0,103456678204123
0,101633261226629
0,102480584652548
0,097793401179006
0,102657922350883
0,100547035370477
0,1013642837236
0,0979613585094334
0,102734220959121
0,100100753212056
0,100766866924665
0,102762752198449
0,101075337696068
0,0981499267141415
0,101701798076737
0,0972247869319823
0,101139798084322
0,0992964388591062
0,102651534829293
0,0993013644272041
0,100269683705571
0,0980106092057705
0,0991523065623121
0,0991967821662266
0,100718120861147
0,0973333074469328
0,102431161734704
0,0988574733092109
0,0980751909616482
0,0960763738443911
0,103333855215278
0,0981940962273408
0,0980057916718929
0,097480238188512
0,0974809974003329
0,0962873668192525
0,096839726116931
0,0948542085763605
0,0991225630858803
0,0986297075038315
0,0975361142276082
0,0943570860577679
0,10022731629973
0,0944363847949905
0,0962174884730722
0,0934365251620659
0,0980593142742978
0,0966268015918368
0,097206045385498
0,0916513748086584
0,0957155766224919
0,0951376498562765
0,0973574446764631
0,0938512459042622
0,0960263969289367
0,0947144953111665
0,0951200474484807
0,0915311314845649
0,0948317355544651
0,0916615980837241
0,0935916609862263
0,0917992992453555
0,0950498807507285
0,0913705282664606
0,0924086111824973
0,0901186825612729
0,0932503856062982
0,0912932420318304
0,0927372654925328
0,0905321676647282
0,0914806718500333
0,0904533694256727
0,0908615907925543
0,0884939220270329
0,0910519605011837
0,0922055056007032
0,0908130953131455
0,0898700990648224
0,0890420129490005
0,088482770317519
0,0897004934950609
0,0857605494382391
0,0900756163462766
0,0861283409684383
0,0874669215297026
0,0869220122325054
0,0876177633502957
0,0841500629676026
0,0877624938442623
0,0856567443854639
0,0874091572756163
0,085763101149724
0,0868877919565122
0,0845983798665725
0,0840246177598597
0,0841763636566046
0,0863435341420793
0,0831724877604437
0,0863780715239437
0,0855763138809297
0,0852579105514372
0,0829376646039546
0,0836122303161368
0,082502812797609
0,0884319584936395
0,0808882049500821
0,0868618862106416
0,0822772486839845
0,0888896263014412
0,080512291548781
0,0864093278988885
0,0798584085481711
0,0819475325639215
0,0792896945788118
0,0834486662508397
0,0790969504711863
0,0834346881685031
0,0804422774995965
0,0827930953163015
0,076834724722377
0,0793982318407632
0,0790602986253067
0,0833161657322223
0,0769714725216537
0,0810994739657841
0,076352708890167
0,0811949029556445
0,0768217982092626
0,0810054129556727
0,075853943046403
0,0854710737681941
0,0770136450119463
0,0803537973406078
0,0765291043606915
0,0792434732423574
0,0762609612173289
0,0770876384643667
0,0745869339360673
0,0779949347667945
0,0746532871512823
0,0778688067470045
0,0747257635028662
0,0787753643337919
0,07618512123414
0,0792813068602522
0,0725398988832643
0,075705173554877
0,074280786621142
0,0757884640462349
0,0699086662615533
0,0742495546767742
0,0746042683460746
0,0747186384628138
0,071833714880158
0,0778786593544886
0,0715492734787058
0,0723884946084467
0,0866918523959987
0,072446816107568
0,0762948202254352
0,0712703656453835
0,0731699976624904
0,0714260110609839
0,0721349925183473
0,0733233854385512
0,0715916108202584
0,072386152909985
0,0732118330547013
0,0716111181668245
0,0721731303739229
0,0692314565975271
0,071416520483323
0,0700045671169657
0,071791003835042
0,0722013597895569
0,0701028191448776
0,0687991856772528
0,0704666075072918
0,0759689692195273
0,0716836337988551
0,0693833503999008
0,07318261556529
0,0615107885416471
0,0823584772869597
0,0743444117595002
0,068086523155578
0,0741964104046327
0,0661449356536906
0,0699878476386043
0,0670225621245524
0,0711126543398138
0,0664240407098496
0,0755269748951311
0,0633510277326959
0,0742965841326304
0,0665969384465274
0,0711363450619083
0,0652627694963044
0,0685945198029321
0,0662448601680063
0,0701872509852245
0,0672088261400993
0,067350368997432
0,0681939392018599
0,0690843631954754
0,0689813553347142
0,0676081953219004
0,0597298453046704
0,0723159086133018
0,0657748988623997
0,0694322550424043
0,0643436276349935
0,0689395577162437
0,0576177364889243
0,0856341013704221
0,0593269886162481
0,0716450118902438
0,0616061230655172
0,0692711367432252
0,0657191602032124
0,0653549254389894
0,0632087310410751
0,0703012916874598
0,0630230420126348
0,0698270982614166
0,0633770776223107
0,0695018669052063
0,0658650672376014
0,06516002639644
0,0640313060101094
0,0682968105658618
0,0659134627707586
0,0642356806767327
0,0683009798603185
0,0608755227421589
0,0645687517137805
0,0830811355983898
0,0666210111226332
0,0744020680332099
0,0643113358603691
0,0722681562359245
0,0599469744568927
0,0696523239013309
0,0591989016587294
0,0735014035022294
0,0582316591739139
0,070968701941405
0,0612601950517424
0,0709419500546371
0,0612992021937377
0,0704419683665463
0,0590044341279874
0,0706072511637692
0,0600632958138926
0,0712496966482407
0,0578150757365461
0,074009661713933
0,0552304907436548
0,0762922242071392
0,0617301553739027
0,0775775019742665
0,0494838706169984
0,0806730220430726
0,0873604921804654
0,0611171210626678
0,0748135308309238
0,0592920226679615
0,0703726695038209
0,0640578229653932
0,0652289315945018
0,0694762673079461
0,0663976352235621
0,0673940120292658
0,0664186719762029
0,0676451575614684
0,0687095638089483
0,0624584288501674
0,0573074680373258
0,0868734604635767
0,0645504595304318
0,0702763465446605
0,0673270574974352
0,0577058904977025
0,0841385835451559
0,0631242077871159
0,0714988041561675
0,0700359849699404
0,0674339928768047
0,0709982849197047
0,0673585078032818
0,0665070642737033
0,0656704253773391
0,074858911274452
0,0639065165731048
0,0744306583862774
0,0644562392805417
0,0744267730379787
0,0662975632881112
0,0754169976458719
0,0781714735591867
0,0681067536580187
0,0716278036430689
0,0722689217322773
0,0673387501112248
0,0729382860946884
0,0682668305288821
0,0723830488682467
0,0700168300775722
0,0859254001069568
0,0636360114396428
0,0797651266161255
0,0770832289755486
0,07056082747121
0,0740150876862923
0,0734382887742989
0,0773200264808823
0,0738598225452848
0,0582895334097368
0,111422573590795
0,0598693290408566
0,100997263124844
0,0631865659892886
0,0847307685464487
0,0649189037726898
0,0865150163600556
0,0609691278524034
0,0926672180474787
0,0679358553677864
0,0797612470881382
0,0718592666237355
0,0817786043369528
0,0861429532490826
0,0800900632991515
0,0840175664595343
0,0793626680849302
0,0766952772114319
0,0839875915106522
0,0894250504102956
0,0618253976488857
0,0980725197162473
0,0998373754007566
0,0909679009377735
0,0964574353761539
0,0660710854301412
0,121872088268658
0,081474486118667
0,090776014138065
0,0825244392979361
0,0871357071326749
0,0890634824467429
0,0724167118270199
0,105908100037112
0,0957446608633236
0,0824914844458869
0,101660177326378
0,073214026526801
0,106413036559258
0,0973172411927396
0,0981566618767724
0,0864377832266004
0,105461856433393
0,0773422886519749
0,119411275885548
0,112112624802424
0,0902835361940751
0,124755110061194
0,0986945558167582
0,113367844199728
0,101231674621217
0,107640232324837
0,102554020538911
0,119031318166545
0,109224642905765
0,103973970863535
0,104073057898525
0,140495851923095
0,100886274619126
0,124811316776977
0,111343927699246
0,103469344435533
0,120364209793609
0,150731523319849
0,137208278531316
0,127308224719438
0,114016174547524
0,140768269976688
0,126775059435611
0,124526414631374
0,129028848679519
0,128051421170013
0,133223961109585
0,127381185804585
0,149510597528463
0,143018724798886
0,137192409682389
0,14486257958453
0,133679322482028
0,149715955245297
0,15221793625059
0,193697669212403
0,144580177359896
0,198982415567031
0,172219674446246
0,164285588954374
0,166177096031052
0,163843744239666
0,180060828081198
0,170192764012383
0,177596969794042
0,169313700279923
0,18978830740664
0,199608320881589
0,168650905788518
0,218216756664398
0,181387800361083
0,21152994077228
0,13694807193166
0,350661485264149
0,222229214118323
0,222810122813105
0,228713660866466
0,181409720118569
0,299683295838152
0,229482437947369
0,237874906812312
0,240480724457738
0,241614141797401
0,241540591136503
0,255970061573134
0,255161039886832
0,269597914200174
0,270636137579431
0,261674835814381
0,260797144401214
0,320840700617434
0,300691831086015
0,31554030549007
0,280325981226717
0,312644912616658
0,311781333045444
0,309518284011478
0,307013662553261
0,325349251742058
0,275061734054025
0,389833626486466
0,320695205698933
0,352661640805127
0,321138177306329
0,388450228344385
0,322361325136796
0,382989158201191
0,392609948102477
0,366448528649022
0,383168119907961
0,370172284702388
0,39394444285761
0,371542887326913
0,419109853237576
0,411782570370423
0,399559884161929
0,419551175071741
0,411681059866483
0,422530548589067
0,413544584188457
0,443043790538315
0,414887302536219
0,457367709817688
0,415193624736237
0,526242125214856
0,482480479994215
0,452073022251954
0,47417027469965
0,440418418188756
0,49465809808151
0,473461787869681
0,473346839031796
0,509546120128267
0,471326548404731
0,497355899410668
0,481629429713547
0,496557132624866
0,473146822055922
0,509658585402199
0,478731645677421
0,51612981927083
0,494748819692555
0,466435028893101
0,570726579604088
0,494171678616401
0,491576599086403
0,485527148398676
0,498644766222495
0,48789290804335
0,492161795805156
0,471399580518649
0,521476114052104
0,473897672841052
0,48723902205375
0,464129213163144
0,469310777587768
0,492819286982786
0,454445987746339
0,465834197216429
0,440163038551747
0,450826283387381
0,436628763605847
0,408640024236327
0,493009370315347
0,425429632682491
0,428582611274553
0,410724850293427
0,406210391116274
0,410437633668647
0,397373812099594
0,392515308226053
0,393830539640337
0,376638197357465
0,384677327374849
0,36549372422346
0,366735204270903
0,359996682905493
0,357743118584066
0,355512917960061
0,342919415877199
0,343548569846545
0,33120856719274
0,335613008319606
0,323408154168207
0,321704456440052
0,316188425998874
0,317437357963601
0,31700777953524
0,300988626275234
0,300586847539022
0,297222984159973
0,293597377097715
0,297211417827395
0,28682672530295
0,289425265159709
0,276634954221491
0,285626912327108
0,276186112647849
0,272210237675754
0,268522430870573
0,278691271118138
0,261835734065836
0,271470554800047
0,250154814314269
0,271199355783957
0,234825696974972
0,279577667347282
0,284597909415727
0,242570775911846
0,2619461419342
0,234532507081876
0,25878709351551
0,222403276852188
0,260698271761163
0,258772081499854
0,23535835565007
0,241411092859589
0,233475980441454
0,226463167899727
0,249144085582278
0,217370767506088
0,242456636813442
0,212524418119465
0,225583888888513
0,291380265447441
0,200970573790141
0,306249362079574
0,227738876690641
0,234453716759937
0,193911520510583
0,267581470813208
0,20718750017948
0,230827815946343
0,204329148043441
0,240706309270904
0,231007718494814
0,205425889749284
0,217874987336656
0,207643358913537
0,211690947162737
0,232585553287262
0,207750517662843
0,195239021862394
0,24600150175775
0,203986122848614
0,230098625308383
0,23763138703321
0,229314159074042
0,203544209328776
0,20565105510542
0,209366831012402
0,174218067993745
0,250167096329442
0,20407835370777
0,204924853884836
0,204757157348647
0,185808256665803
0,204028784491321
0,191722833272301
0,218901919917713
0,175640733164865
0,233333175621551
0,182860438557201
0,196827777259885
0,198580745813095
0,195292776533413
0,229010988201628
0,19626745869777
0,189677835326373
0,183032841524223
0,231689195767762
0,181545055347563
0,20210683990694
0,182175614649742
0,172900936358079
0,208355571331725
0,185620913818497
0,178674301657876
0,204289217348916
0,172713105868917
0,221947042124263
0,196224842134215
0,219283059640108
0,193737826039476
0,171256094822123
0,181567481779118
0,17486845514408
0,183172147551473
0,168693690402964
0,174411179213918
0,199974222454304
0,144356728528053
0,222675103910672
0,175605304766293
0,173298079223766
0,176886596466774
0,17196162873726
0,16776062138489
0,183268305362356
0,187742872165332
0,193298927882509
0,164273433715308
0,198003947588484
0,161706577332341
0,179228068173222
0,159300638099831
0,17917316350445
0,160758582379421
0,181083700941847
0,167684522970132
0,172117645256409
0,163269919048133
0,179567610580139
0,150362116313169
0,209329750932597
0,146058058476555
0,194536803301776
0,169210028404377
0,201121546919505
0,189156882756285
0,166138866297645
0,17579366118295
0,166901016772718
0,16889020639572
0,175628035291741
0,150483992902924
0,205749896095246
0,162786937604149
0,179758654174963
0,16349679602921
0,178959587567783
0,159056317289762
0,184664710368521
0,176827116137759
0,166425339334002
0,223822241378402
0,165323302335436
0,186565903513524
0,162563620977514
0,177459609047949
0,174766454663813
0,165392774041685
0,175051365928988
0,155503831177976
0,185326423563117
0,170394450243689
0,167436614668226
0,170152615512901
0,167552620286003
0,169097869801976
0,167083126092767
0,165253733602728
0,171379770178481
0,160268128105367
0,179238022080504
0,136257672363392
0,210384303399167
0,182160540008794
0,166492882826867
0,173979717935851
0,158891686713267
0,177008909222828
0,161964062262263
0,172113821942808
0,173487430046636
0,166441911938571
0,173312583086415
0,162883907561423
0,173568796590007
0,164156114950593
0,188168137804449
0,162016231700432
0,17011400410076
0,169223030706132
0,14335757896404
0,220192102501521
0,159933042064571
0,185800956526136
0,16148582020314
0,174483738298235
0,162488749747632
0,168136652205106
0,163464612954149
0,172296546966418
0,164158611505723
0,16881083274412
0,167714738899069
0,162232586837299
0,171634802003328
0,15946754635351
0,178173056793107
0,17060856146988
0,165250962362493
0,166294465553756
0,165694417681956
0,163429482230033
0,169510294557856
0,185178736534864
0,160074809880703
0,175271353918531
0,166949297814902
0,17338655965251
0,176050440830927
0,164230166682965
0,165867361093638
0,166164597969892
0,162564639218963
0,171972543050064
0,153977977754695
0,188711609365786
0,164333139544306
0,168634620653368
0,160974177830509
0,165804619843252
0,159201011943196
0,168214762780936
0,161547430578755
0,170331098111965
0,164028831126
0,165797046592083
0,163180691810889
0,161507436578261
0,172950934358882
0,168224562522988
0,170371161156194
0,165736102526234
0,16174598155487
0,169553565939225
0,158324088770443
0,172493873301597
0,162308271770438
0,164605101065999
0,15687360062867
0,171988573061248
0,149016296825789
0,180681661723344
0,166786036066308
0,168096919766261
0,172843404578952
0,157368173584711
0,167451272393208
0,157210442300042
0,1616775452519
0,158269877057899
0,165279298800582
0,159237887548229
0,163028378040724
0,159857651306974
0,161435154857572
0,157383955010078
0,161956104407946
0,16172395944305
0,160898204857699
0,160161091764486
0,158966397260738
0,161633507327897
0,156269132716118
0,159111599248653
0,159560364808415
0,163755446773208
0,172217473349218
0,164767406484493
0,16510920607408
0,156046536637764
0,167873119301456
0,153229382843507
0,164251402449908
0,15679650881908
0,160756057322417
0,157118175913446
0,159063584888317
0,159649729030747
0,159431291105977
0,155284624605313
0,161170824447903
0,156760227228608
0,15843950994465
0,156880135343964
0,15924917571305
0,157945395610953
0,15811574431377
0,160258680363716
0,161982352636491
0,164253839164538
0,156542447629915
0,16156926149987
0,157353169639982
0,159458720150304
0,155019862646501
0,160937717684525
0,160328431584573
0,156767549050933
0,160022531198497
0,159615863691298
0,158348469409253
0,157743339346873
0,15973681778491
0,157707432285401
0,158176591839102
0,159034744871034
0,158234424590199
0,155139254921782
0,156299990424415
0,15702131839826
0,154785775835579
0,154822851451378
0,15628919568233
0,157925557434824
0,155934127148569
0,154317391191472
0,156759353633849
0,154723693394057
0,155781819541941
0,154154134218414
0,155687401920357
0,158315536691558
0,156012989103702
0,156429046420604
0,156413491755518
0,153820159667672
0,153221499937851
0,157381976468961
0,156697003232412
0,156202481130024
0,155045589603355
0,153631367487242
0,153552906693905
0,154296214914254
0,156416517381018
0,156565598768479
0,154836864235962
0,156851062452558
0,156371954142722
0,156285761833688
0,154392131245861
0,156025272391612
0,154367835934795
0,156144530077897
0,157225516724861
0,154661737159639
0,156269278973676
0,15552757567602
0,156555597550702
0,155602226953441
0,154468253490078
0,154909204457256
0,156133467347416
0,154520409401325
0,155937174704706
0,154295369745117
0,154575096502878
0,155647489940595
0,155535009667736
0,156473925636986
0,156926293248405
0,155004680718767
0,1548181193756
0,156371612617327
0,155551551776963
0,154493208727369
0,154479822068344
0,154169849786479
0,15657995437755
0,155121580374241
0,154334390717358
0,154781598504415
0,154639808189034
0,153819354147441
0,153924832640454
0,154623618892383
0,154424297608527
0,15346090238573
0,15275524611489
0,151738521475625
0,153577747788214
0,152979717013477
0,15352511383249
0,154024073396972
0,153045138928063
0,152929927811544
0,153881403916915
0,154269089399987
0,1536361223505
0,153383416368004
0,154282010917767
0,152767896684327
0,154269799770019
0,152847511122932
0,152394362691633
0,151458151942383
0,150703555041188
0,151128045127649
0,152213913921342
0,151861438980766
0,151954188093039
0,150530772499201
0,149982436115227
0,15047799756903
0,150506031331429
0,151141240567226
0,151073830071436
0,150570964316877
0,150931985674975
0,150323028988379
0,149325422106037
0,150342951848343
0,150536546753225
0,1493757218075
0,149545099161121
0,148325229505438
0,148768309258769
0,149689734724781
0,14969322039354
0,149209602893185
0,148912895127659
0,148216622267148
0,148471862070572
0,149025037238916
0,149704445461103
0,148780548592634
0,148720727664989
0,146867988201914
0,146316396555875
0,147757193346836
0,148558949871856
0,149650275646077
0,146481242832648
0,148490171027077
0,147991633770744
0,146785412691425
0,149945696931773
0,148440998983991
0,147914342795481
0,14919795462685
0,14787099083519
0,149901173708665
0,150413684783129
0,149504480664578
0,149659827354022
0,151724896210054
0,153446498667391
0,153042694806396
0,152887492134443
0,153632998645275
0,15457211625911
0,154951177436289
0,15524228176844
0,15811065676727
0,158096078359191
0,158988250404892
0,15997892704226
0,158818298150721
0,159992890806852
0,160714816759427
0,160936849975068
0,161285616582653
0,161497601840727
0,160603036031649
0,163200102310845
0,162296048534255
0,16112763300436
0,160838327309459
0,160929226882033
0,161602289074143
0,160212779804042
0,161819281473709
0,161157867910467
0,160687638915374
0,160444007830408
0,158295768430357
0,159380228360541
0,160351282060479
0,158984985183694
0,158193379226104
0,157975915266064
0,160325244401912
0,158724673294688
0,158108205360383
0,159007726744908
0,160240216139934
0,159367876262401
0,160233243596412
0,160111000766421
0,160443232845405
0,161594202506606
0,162475772308571
0,161718893947565
0,162685450253557
0,162803801490578
0,164024830369258
0,164789028170608
0,166532101867836
0,168669285186595
0,16955676611913
0,168487387872305
0,169171120662521
0,169767769151294
0,170211348865215
0,168152771722952
0,16874874346249
0,169986173560181
0,169297787800647
0,16884958641983
0,167752239756941
0,167808137531303
0,167164766608827
0,166385999675636
0,166621719200779
0,166662211276914
0,165871046059861
0,165859797193832
0,164988774940234
0,165899931951041
0,17088893952539
0,171054962669243
0,168518501768257
0,171291777660552
0,171842689290561
0,172487970198086
0,17452079658907
0,173616194498798
0,17349539362194
0,173930388913476
0,176605047323042
0,177542976537471
0,178700731859929
0,179977373965884
0,17903242943099
0,179988102715737
0,181364491231671
0,184183920034162
0,18252056403268
0,182819801955174
0,186120796153567
0,186158239036939
0,188589120570629
0,189270782398715
0,191000936054512
0,191197674482981
0,190664474320872
0,193245583228779
0,194033313323541
0,19411778191687
0,195018436944331
0,19763135768376
0,196431296157133
0,195760103775799
0,195936703476087
0,195487146639309
0,195877088411134
0,196162761270132
0,191609170708887
0,189464320482582
0,189379783998728
0,189186156491855
0,187361767951564
0,185834786028389
0,187502250390275
0,187486975119703
0,187674700828861
0,187407017341557
0,188543857416557
0,18682732106371
0,185879410269344
0,187304063363695
0,186671947801115
0,188912572357236
0,187709918078792
0,187360527920691
0,188651571241563
0,191500755941229
0,189700785665631
0,191255569133364
0,190081150679062
0,190083502767036
0,192888378980811
0,193423486904274
0,191831009466678
0,192930374514971
0,194814787988572
0,194573298476761
0,194750740180158
0,194753739881936
0,193964502027733
0,194148468113443
0,194144324080162
0,194282542153642
0,194026146811835
0,193489102674094
0,192712915471984
0,193481074303832
0,192947348370848
0,194746660641823
0,195690306256732
0,191513686657025
0,190005715089308
0,191855271386133
0,189949110279688
0,190641471790835
0,191610502627363
0,189518309473472
0,187755864330443
0,189556295049766
0,188812885388462
0,188432415353519
0,187266646919178
0,183967886060227
0,182551030471525
0,182480451516233
0,180060373674804
0,178427348755163
0,179088763067746
0,177657777194955
0,174637235245386
0,174299782061749
0,176296895092726
0,176147799371768
0,172128056289708
0,174634070662865
0,177698426344503
0,175965536247394
0,174940929322458
0,17442451130409
0,178757684950269
0,177603247723878
0,179010119051996
0,17745088442656
0,176081878946701
0,177138528618022
0,180662772389024
0,180619827489019
0,179621907629245
0,178527542089842
0,17801561917273
0,179026523292245
0,18277778340916
0,180578230388188
0,181363296544961
0,180378620637495
0,179343883293094
0,178204424688374
0,179592931919463
0,182009116881784
0,1810057893494
0,180997379521784
0,181661343745613
0,182152702733415
0,178119527582175
0,179108521964455
0,180387466222105
0,181799553988571
0,182418262043173
0,182587643684008
0,181443073430131
0,180364148846456
0,179729216263884
0,180678210827934
0,183314562696607
0,183591599146344
0,183967858405577
0,184663145916792
0,185143398707264
0,183125998039056
0,183641425827995
0,184640026426692
0,185652829082663
0,185466311649605
0,18749216889733
0,189090013769813
0,190350161798525
0,193370143418502
0,194376711118006
0,193941555952343
0,192638291982928
0,191642510869081
0,192914903569994
0,194789808407739
0,196469372148452
0,197006847797772
0,196041790813986
0,199488674161505
0,200434363931928
0,200494221835145
0,202280731963988
0,204417181702724
0,205516207073435
0,206407036207035
0,205859129077554
0,204731080949621
0,209322075505725
0,207875909154521
0,211078242020516
0,208844953987928
0,211688806495056
0,212451126299514
0,216297098868605
0,216843832423524
0,214617813961091
0,217864160440123
0,216469568029664
0,216993710652153
0,222652220251599
0,221714235550075
0,223727571487032
0,223980732306918
0,226684550134439
0,228633031699334
0,228713584405093
0,227455636667225
0,228721039992444
0,232551488901295
0,23516994427493
0,236546760001709
0,242589107675893
0,238585433521528
0,240694666791506
0,245623943529056
0,244427830874042
0,250043354739334
0,248933697788068
0,242515729697463
0,249443978113377
0,253685094935848
0,252724866476091
0,25652625173284
0,25902330703013
0,25830433116324
0,261752590232799
0,264609405958535
0,264664051004807
0,264056966022127
0,267159524329155
0,271057402235752
0,272917965958298
0,277830681698726
0,277522558701584
0,281432571110226
0,283987563877375
0,278367109350585
0,283598944431228
0,28644991220562
0,290615777663935
0,294273684662845
0,291432641082886
0,283172469435047
0,292220085082366
0,30074771650765
0,298174619015638
0,305072892833286
0,304921678921249
0,302109131666097
0,307188679622556
0,311523408444742
0,307977496719549
0,308396483381246
0,318710696210668
0,319418150455063
0,32474673765094
0,321275864335709
0,326365354523488
0,326691320748467
0,324994329351141
0,3282040812359
0,32960451881207
0,333224858438852
0,339158413793822
0,346028082162837
0,341877272324528
0,349331843700327
0,357747054146116
0,351386739413113
0,350593760012859
0,357940219959332
0,356279268132506
0,358469336405599
0,357940757559487
0,361859552082358
0,359825147921269
0,362466568849204
0,372400890598177
0,377894366135232
0,375164557786337
0,384198893968869
0,382070289202335
0,376967948876967
0,384260537293419
0,387480342734488
0,393198781634494
0,39094860768226
0,395203962850513
0,39644298679805
0,405085096558818
0,405436149251556
0,404321103764523
0,413289156660926
0,414943160861857
0,399313053423103
0,420368238738949
0,419017040382213
0,431021542666307
0,428824078854901
0,427569613615638
0,425421959861204
0,425361341752594
0,4343577511207
0,430488178532445
0,432688389927513
0,44004305285028
0,450325572696791
0,454036864159994
0,457571015368138
0,455713027087557
0,463816644839107
0,45513873175693
0,454824549202661
0,468247366738214
0,465688330718412
0,47014792887631
0,484779913111274
0,46931446459021
0,462880200360795
0,479596523187185
0,498439684324055
0,490983408620679
0,503671029759348
0,48960695529714
0,48460696438066
0,49955885344716
0,498168686874787
0,498931201964208
0,498466242911922
0,50113444884117
0,516330631634255
0,521661315320016
0,524007707701122
0,530481461686994
0,534952896808072
0,528885663653732
0,526060047206947
0,524361079858741
0,547078373073826
0,53159476674468
0,533604322092294
0,545022752264628
0,554104621077426
0,527785954986999
0,551236224371761
0,569553317902582
0,558712556918002
0,561889995515307
0,560703585853065
0,557201622935173
0,578414822020341
0,571475410549763
0,578616938325006
0,589646018780862
0,58956555049579
0,59187877906292
0,591883689836415
0,596716870293528
0,594881191189555
0,609208417228142
0,632755061136848
0,594742663288423
0,596327105661747
0,603043263903059
0,616888849648783
0,592177854716517
0,612545320623942
0,615503950685466
0,640412159838102
0,632305408379687
0,629369909356136
0,624833720478854
0,63458165363769
0,642277820857529
0,648840456837959
0,637462136060287
0,664430618950924
0,672660199578412
0,654253919242805
0,639945063072026
0,6653727183381
0,655368271806988
0,669232245197184
0,695401352425592
0,665993749655622
0,691896269546127
0,673286684896435
0,650617038128722
0,691547459901566
0,690368499934338
0,700948589572174
0,722633835398277
0,704333360246217
0,684667444813527
0,763198545745648
0,714025988503915
0,738317555406707
0,672923000249736
0,706378967501371
0,742324835816555
0,72421669554024
0,70792258958916
0,707410129785956
0,72333050703735
0,731961868787183
0,746567464655669
0,742205890738744
0,710174291825802
0,795130157095894
0,7751635717722
0,74798040017091
0,693570674814515
0,765695313816064
0,767947229040677
0,779638166690576
0,783201028231984
0,795847766366217
0,757399653888861
0,77474717269986
0,766355534918818
0,826079167014702
0,749211574288264
0,741693252875907
0,844361038097713
0,848938103466572
0,76191393132204
0,887780236528307
0,836844059230154
0,76635827208373
0,837900805092463
0,894096537637294
0,72780096895883
0,744227365523799
0,751912958924307
0,791124791067985
0,799858425677814
0,854716426433753
0,928130051661572
0,825242879821137
0,799945996626313
0,915422559065355
0,819750427821995
0,757492197014355
0,838853719892865
0,921497491242552
0,835558106024908
0,808993411366462
0,799604196223116
0,878836845392385
0,883308925298863
0,883799741821796
0,772626799412137
0,87197138798748
0,852078670664127
0,88359872705708
0,789234057166937
0,972443444746348
1,0138868291162
0,940741465899295
0,883119488944752
1,41895043534473
0,975175746878164
0,990532617578361
0,867447649666484
0,831131901949252
0,870241051691229
1,03356299017921
0,942309175040993
1,07371870121156
0,972029003190641
1,1194779401364
0,87551230819409
0,985649069166409
0,933837467061575
1,03017655556721
0,797539490537452
1,00026878970798
0,770017658550486
1,22046008141156
0,599389624821157
0,647392120626751
1,13480771410689
2,50255731012707
0,864582763253003
1,49899265524007
1,62599627360331
1,05425984756703
1,21956711582089
1,04934204215359
0,743974778539972
1,32430649556036
1,00903417324862
0,888358061507697
0,574077182547102
0,731214879310285
1,14398143441911
1,50457665666709
1,26661594714032
0,952731844186379
