3596
4000,36533379555
650,420452594757
1
2
2
0,020037240777175
0,0259975799842216
0,0146084797951809
0,0194895957938418
0,0122843884946262
0,0258951000351418
0,0121153407036115
0,0164648132616032
0,0155766378483138
0,0165856066466694
0,0145676526776111
0,0241402351901856
0,0129676012710828
0,0272170545844029
0,0192601575343292
0,0254667187073018
0,0172216181772406
0,0180974458154817
0,018737173573649
0,0254405778822716
0,0154797124028034
0,0226420687777037
0,0120339547263407
0,020540224752431
0,0157036693836928
0,0270061653538064
0,0193039816497961
0,0204187239453353
0,0229977421834808
0,0200844469963108
0,0210921109352339
0,0284954838759066
0,0196957597829604
0,024140590381163
0,0109819040499571
0,0194453821231051
0,0224094376496302
0,0233242956533772
0,0161823396947411
0,0236293012699587
0,0208506063719141
0,0215001588827677
0,0151618356007625
0,02064440256767
0,0170193150988892
0,0190549569089323
0,0186739408668333
0,0222696997812933
0,0112310253168325
0,0231871152642366
0,0117586860845699
0,0292546917518635
0,0144756943351761
0,0241730805984379
0,0212862553536464
0,0235505281004812
0,0150941194295554
0,0227548235592758
0,0182263671432543
0,0261019201643448
0,0152769982350117
0,0206455717700083
0,0168788296661581
0,0234013185804004
0,0172270639022817
0,0251788247048445
0,0188806222488287
0,0175861492688881
0,0224295403285247
0,018095967914869
0,0243411301484287
0,0247403484290932
0,0175255249408596
0,0228057616828649
0,0171537232855157
0,0203070410998197
0,0204438944172596
0,027137065397393
0,0224240765793876
0,0216012606054115
0,0234435437645131
0,0265665497210991
0,0196787271559007
0,0177862845916607
0,0182684566483294
0,0221963877813894
0,0221879325761357
0,0149470672851436
0,0229332426095502
0,0162528394222592
0,0250983252982428
0,0241191569502221
0,023591688800263
0,0181856432243073
0,0211169212740512
0,0240940219992766
0,0231013714997347
0,00972076910359355
0,0231270469444999
0,0204986677088432
0,0272118031876751
0,0165856189472022
0,0143567072668185
0,041209601415799
-0,000465789743054765
0,0349408034833389
0,0115037764610936
0,029597949178233
0,0267664354779078
0,0164732405408651
0,0165986330780948
0,0210250716012101
0,0202606493221132
0,0150024296739646
0,039436026444884
0,0181868289523938
0,0193475246075628
0,0140987192611589
0,0204544690204806
0,0131147109229192
0,0311861257035599
0,0202969180538908
0,0262341650942695
0,00903187693458572
0,0154533006277591
0,0264433861351964
0,0165987265329647
0,0268336973496443
0,0207491940806523
0,0138684745920959
0,0228567835711762
0,0192791807960526
0,0210925811729977
0,0244258867176193
0,0199053851462449
0,0336108529006713
0,0151002728690679
0,0293762551728567
0,0175273546179161
0,0174278945263171
0,0169081437499078
0,0142741639869487
0,0219856159012252
0,0241138128901567
0,0274875343673486
0,0266227984071803
0,0244093055717309
0,0136891746449069
0,020880696320008
0,0190323511443231
0,0210283562725967
0,0288263109119168
0,0232034916220481
0,0176850304037973
0,0374490587981114
0,0112692096445204
0,0261817259613344
0,0258921290855414
0,00477602797958811
0,0336725205140754
0,0102350980939355
0,0264944324568354
0,0106480215654224
0,0323615548247465
0,00457517529875166
0,0366022768032696
0,0201817948849249
0,0300698346849198
0,0132276495298944
0,0254067665632108
0,0245890833317642
0,0264239938010107
0,0281553392447516
0,0175837090249212
0,0241505054446639
0,0198944151199905
0,0251189359959279
0,0276113206853828
0,0242767834695845
0,0231638189294143
0,0145441966291241
0,0335602075560409
0,017628448130666
0,027135343119322
0,0198253370386329
0,0211641004489446
0,0124829625494092
0,0277784192826139
0,0209179681450931
0,0294996683605701
0,0242400763397206
0,0177007331153627
0,0189378362965293
0,0287811894864971
0,0129190492067335
0,0430326744771165
0,00887486567839505
0,0330773406986691
0,0178130255089041
0,0261990731555138
0,0172286870664042
0,0232622403708621
0,0269302506290039
0,0231458534916265
0,0136168928807536
0,0389246954531431
0,00654190222871202
0,0318580515885553
0,0120179350596981
0,0315188406026638
0,0197316594075955
0,0452460190255824
0,00243014422386798
0,0371356485852725
0,0231553569265417
0,0220583592980006
0,0245489343184673
0,0267339005173408
0,0227807395666314
0,0220742026986316
0,0225940406615906
0,0335992756739059
0,0236635766057448
0,0266808176893471
0,0196309217368877
0,0291985484067103
0,030596552897211
0,029511333516729
0,0205285913373601
0,0255075348943088
0,0169360885140569
0,0340436871612868
0,0267011682904921
0,025769216001548
0,0239480845709915
0,0306861826580642
0,0271115033064599
0,0359827626946018
0,0224091096247601
0,0320681514331377
0,0235715094955548
0,0329256423100236
0,0225003334244955
0,0286013063155323
0,016593764482235
0,0384585122685465
0,0118473285901382
0,0483499970723156
0,00910782541434006
0,046206224020836
0,0198387761063526
0,0345543991229404
0,0205782832724142
0,0380146005860847
0,0161255584859047
0,0380112592477087
0,0274539079866782
0,0299659416583257
0,0312346577215175
0,0396951759789867
0,0238458504981761
0,0298315532592216
0,0299411675268442
0,0295722492520048
0,0459450233399857
0,0183989317606335
0,034781555278522
0,0500032874928999
0,0101367333138654
0,045713883020978
0,0198069770517766
0,0371905785969582
0,0417850274811598
0,00927647324313089
0,0337263275396869
0,0374061075018047
0,0374333598616185
0,0283409406737075
0,0417057868803438
0,0293869052080341
0,039331349528699
0,0349504684721992
0,0348266029632047
0,0756830292593189
0,00957091980201382
0,0566146693336041
0,0245808787474798
0,0459266295428797
0,0260101412810601
0,0467069738940819
0,0322987578989361
0,0521349492048356
0,0348557977506405
0,048909842211608
0,0380754371031351
0,039641544278594
0,0507841674067628
0,0333556172535664
0,0397695509888067
0,0475311338750909
0,0480557536123765
0,0437001193453817
0,0517795156653238
0,0417397624359782
0,0518180856777586
0,0486267336097994
0,0515074559325612
0,0555707203482539
0,0444992750238181
0,0536853690893214
0,0509571106839499
0,0441654965098444
0,0529718882188191
0,0569109706205547
0,0626799861809259
0,0546369830877538
0,0597332385712872
0,057868798713
0,0595880314180689
0,0595339428294631
0,0688446460586351
0,0540970902052186
0,0634103561798632
0,0641893745220215
0,0644174606190419
0,0743897389061246
0,0673137903600729
0,071970623053154
0,0723731094560861
0,0943870688282161
0,0900960352317092
0,0716568471323701
0,09807005532672
0,0823396826437721
0,0848203144318297
0,093523224863118
0,0870460883097098
0,100194539607159
0,0899714461951617
0,103825748475901
0,101747290837988
0,0984952325435659
0,114203077900098
0,114862770518
0,108900296468928
0,120882875654593
0,139590036352738
0,134587301545276
0,108494943655239
0,132630358780803
0,120787813075343
0,148551677848137
0,132943578628548
0,141060540706746
0,145571092677699
0,140298714633235
0,161134297526148
0,151946872016903
0,159570606558285
0,153573483106763
0,170154985212101
0,168250963917181
0,175733677631438
0,166790623430094
0,192476933705431
0,183582276893809
0,197131656809326
0,200646764113812
0,198101496827979
0,190283429405087
0,204794653403935
0,197372017011135
0,220880416847906
0,216718395602527
0,251463727041395
0,218805257048868
0,216432090928492
0,236304756542314
0,232233287295794
0,249308402005703
0,229393163138873
0,247459365169136
0,23885779279998
0,254108757760296
0,251124897133313
0,263664482031775
0,264346307554643
0,269953500019413
0,267818106785073
0,273106398144967
0,265011646727296
0,293747677757299
0,275822718101208
0,287785430386044
0,282129006013191
0,306359970742432
0,320149534823453
0,329945002170169
0,322346545300658
0,31100766921315
0,305432925361179
0,314795446004412
0,318644602814581
0,311511480212121
0,325636928031315
0,329013286422223
0,336774554890189
0,328420184760473
0,33219630964232
0,333266728276517
0,341468101342
0,341441480526661
0,334483890501049
0,361148924018178
0,367572827431751
0,352810762047778
0,353430666969017
0,364587831724398
0,381184378607542
0,360592343004658
0,383416698239819
0,372530936237052
0,382634587933755
0,369608202689081
0,380025475304938
0,374369017457042
0,403353590421026
0,386865282304127
0,393472344347315
0,394762297605114
0,411327169033537
0,394117117291295
0,4220909556079
0,412279290970247
0,408060395248889
0,409123647938241
0,419020262881527
0,420143931833406
0,413265755242869
0,433844452621139
0,46879739563055
0,446775893920781
0,459558060408903
0,41643865796696
0,447423276598662
0,429659114885086
0,447130098951297
0,462781393064976
0,440805906845298
0,462132699548541
0,478744461302413
0,458754975238075
0,478083975521047
0,459189153187227
0,489611373497399
0,493492929582359
0,510865100954142
0,48442450205271
0,484518342977683
0,480932569595737
0,50116074828096
0,508511462707945
0,547340255180299
0,519336896686698
0,579241000440052
0,518225569420962
0,523645480219741
0,518550439529932
0,535451984465666
0,503304898110183
0,540856414298084
0,541529029306781
0,556265523041081
0,533121740910018
0,544489659168598
0,567486927916436
0,573295955020167
0,545756999855315
0,597528093865612
0,557476497262191
0,572549123356237
0,552145881226468
0,592771789608578
0,556410414764761
0,592343655787182
0,594870721555033
0,604677062762229
0,590886968505352
0,604264549120218
0,579585594217739
0,618580051446878
0,608341742894734
0,634426204321258
0,638446976079508
0,633262034429734
0,614668902295624
0,650869310073969
0,625953708214246
0,643439223557385
0,629627710659317
0,64738575788655
0,61624792275711
0,658012988376796
0,63859682838339
0,674549950143403
0,633017359591287
0,686605800000387
0,665471090888551
0,689193518180577
0,660459411955318
0,716789075300808
0,687311174657692
0,695287087906637
0,672916676861196
0,724809838040083
0,690002829264656
0,692934152287498
0,698970405133039
0,758346085930438
0,711738016859964
0,75224218556493
0,726336183791804
0,769037615887438
0,724294200466764
0,746585305219675
0,718079875719799
0,767486879420332
0,712367023680603
0,761248767611225
0,738589472114957
0,756548789924203
0,722430653549769
0,757614702446409
0,734831381793162
0,764691626373307
0,742636835299981
0,819723557648893
0,749754577835747
0,802407464253284
0,80606913804862
0,872730496620096
0,764069868725937
0,813697095465361
0,803387614402033
0,819432372706457
0,796618222626286
0,824961725234099
0,831800391328323
0,807063097227436
0,803148545413347
0,808859975682238
0,807291546838358
0,857267221661837
0,835434012950348
0,819119418635162
0,805048339107957
0,870608174251699
0,780524464258976
0,900372724582747
0,898588444856871
0,863048999873274
0,837771429237124
0,929798993482555
0,848824862970375
0,935208248417358
0,859099149402734
0,915894020031381
0,881445331497851
0,926541071270877
0,860255027739546
0,994783740474471
0,881463317684033
0,986033559732725
0,894668337161696
0,945854128313216
0,893308592929562
0,993517583517297
0,910300268400045
0,946920352105839
0,941593325993438
0,975649509619838
0,967012514952576
1,06048098158301
0,926705490428202
1,00747709999344
0,949650447743565
0,960157579273933
0,950263348249895
1,10683107979295
1,00570398946094
1,04813018469941
0,940862065008061
1,0608445858383
0,989962787091212
1,06996195828389
1,02838996432489
1,02994914281208
1,0477918195436
1,02270597285578
0,96000120074174
1,02039151183398
1,01418659522407
0,99909841707474
1,04586763813017
1,12187388459048
1,05325865161086
1,09990072332497
1,03058050897245
1,08083295766243
1,06949380451872
1,07061449469952
1,11366722991235
1,05038909791002
1,0378912932916
1,08440348186452
1,04198129306709
1,13292851058149
1,03364729821901
1,19668595144667
1,11057528963282
1,1393372127317
1,04394843850948
1,20476755357504
1,13382850598162
1,21252620719227
1,10537640940652
1,27980124853854
1,08452672894809
1,05681176419008
1,10303620346567
1,17249185270784
1,12745062491327
1,27748978370962
1,11305171478677
1,19906804541367
1,14209471215894
1,18944030914593
1,15025248830651
1,28509563403514
1,0897040351024
1,17131234188449
1,20713342096788
1,23493403107345
1,116590108945
1,23475882199013
1,16774935912099
1,2496606542159
1,15267886328444
1,15472571313949
1,1431096310571
1,24596810606628
1,18441941828401
1,27727866277353
1,20870495095804
1,2375606159191
1,18784505180548
1,36857921415037
1,24215104145287
1,22712496706762
1,1536300573843
1,32550050657397
1,26029447612983
1,35436297875868
1,16282020716943
1,27108213192811
1,21826696393174
1,26504616040151
1,19499290472991
1,30090115070842
1,17599977208794
1,34013501716463
1,16883211903254
1,27858047411473
1,24257985764522
1,29800576551526
1,22947615122141
1,26587492227769
1,23743363799933
1,32829381887404
1,28844497073202
1,36235326928423
1,26355708717282
1,30821319878032
1,28600495272274
1,30287528530688
1,21870027057473
1,30171048712663
1,26857855644146
1,41512945899686
1,17982452088528
1,36157026091991
1,25865591
1,28639155477817
1,15706136922592
1,22431176933181
1,23674123688472
1,30370552670517
1,24273200809768
1,30716391933224
1,27906717633717
1,30929732853661
1,2209211520272
1,29385440698841
1,23567748879916
1,30590865131735
1,26179512618244
1,32733920892896
1,27195468094961
1,47064967005375
1,37261099813342
1,27236685189548
1,28444426037643
1,30748545198277
1,2291203309058
1,34790146329903
1,23257542471457
1,36960248363877
1,34802214722442
1,30232935615829
1,22383798736514
1,3131400192706
1,19951562166744
1,35795951271055
1,28989517491074
1,3673561172114
1,23138046246118
1,38362486860856
1,28333103360126
1,28471501677665
1,20332244537604
1,29427699679607
1,25263022026362
1,44865300103372
1,29827954629195
1,42247897732517
1,19405578093451
1,31005849423121
1,26954125002111
1,31148030388844
1,22631261304292
1,25510752288563
1,25434782661356
1,32711885229485
1,24433839697298
1,33087162009232
1,24164861184503
1,34978741945008
1,26038805872712
1,3325484147445
1,19118034772162
1,28558069628522
1,25854204048096
1,33173591406935
1,24133675521518
1,40076249010304
1,36690402524318
1,29766746844773
1,30785061640539
1,31591536778938
1,25523854175926
1,27425980280167
1,21969237615476
1,36594104551443
1,23486360588027
1,29550943728296
1,27447516265848
1,39227054423823
1,28772923718516
1,25607141693759
1,22863119238926
1,3818272180785
1,21581481051084
1,25630913387133
1,25455839484719
1,35846555052071
1,25748698086087
1,35822847321855
1,23523034168761
1,28867303490417
1,24528848322245
1,3223027833785
1,23551850601982
1,37696609691718
1,23359980327088
1,31259767330689
1,23113632924801
1,30618071699035
1,28904565637514
1,31619858092842
1,19785179609373
1,33752207109423
1,28732731560682
1,29688484025798
1,27427670784765
1,29000769541478
1,22078463764043
1,30862547169457
1,22633964694614
1,28263888234362
1,22694976667342
1,31339529212379
1,23099833704561
1,28454453887133
1,21642724501285
1,32563085291133
1,26339689568196
1,31148134936187
1,19725511574209
1,34139649389779
1,21750513476107
1,25836744941215
1,24569179457687
1,27201265873457
1,22680379624745
1,3218823234156
1,30118858996569
1,32923300767844
1,22747824986591
1,31872394628331
1,21138463575145
1,26836504466722
1,22460183033998
1,23291571429606
1,32755047579779
1,25253095060482
1,2149322141921
1,28567451365379
1,18423510412265
1,26904871541842
1,1921684104904
1,20916161138305
1,22088837153258
1,23033514957438
1,20349512136164
1,24798486857436
1,20404118368397
1,19559436212837
1,12978241584996
1,23811159355156
1,13369943647495
1,24235777099445
1,18504919390259
1,19169024519448
1,23603293257693
1,32847979611789
1,20287684844313
1,20802028988441
1,2523321634535
1,20467444599567
1,22737521977618
1,16318661198079
1,17855685188062
1,19324708789239
1,21626760588252
1,21648498006273
1,14140300016787
1,20054158049856
1,17576396714885
1,2050331174955
1,09503551809387
1,17005076838804
1,14934753515861
1,13405133014789
1,07186477459782
1,17111614106979
1,09200657201845
1,10871640353464
1,13376985028952
1,19519905539213
1,07104026954318
1,13304151063424
1,13130466311275
1,09704453814735
1,04967847491697
1,09376975075122
1,08566612097546
1,06388591975894
1,03815849012542
1,07640064756897
1,08087103962622
1,08234709468396
1,05397184023339
1,09814769683571
1,03978989963335
1,06988400128046
1,03306483990513
1,02105804835627
1,02025393179056
1,02931187224894
1,03871246710714
1,02974821960925
0,995768331245055
1,035805461256
0,990632486551033
0,989150733328333
1,00451089870603
1,01207384438334
0,948641684077683
0,982003516050552
0,951653452646798
0,989850041252982
0,918487337646524
1,01059668354398
0,912521233863267
0,93406636064583
0,92483966378342
0,943303844313606
0,904009556940192
0,939147557367112
0,906137368412407
0,922985756163962
0,923880061020112
0,917930607057015
0,868307918940509
0,946259290175841
0,893177172498604
0,889767275935215
0,868121044346621
0,900075866773648
0,859358474081065
0,857241628749687
0,855004376454536
0,873595574056565
0,826891140069378
0,861159749737777
0,824055303208934
0,833968560455693
0,826178701333902
0,829533137987655
0,817496613046161
0,838311584860771
0,807780503476433
0,825546443094239
0,797161830228316
0,773800534374888
0,774931057366244
0,786302942195469
0,77369377497277
0,793769934643296
0,760276912261445
0,772951569086013
0,756932037979985
0,754972826268305
0,751712371828793
0,750043649913246
0,745481170686592
0,736682321231152
0,721980560706507
0,745466042520054
0,715185055748142
0,735663751956267
0,698753976164208
0,707464352622068
0,697189332131192
0,734523382634431
0,6774627833868
0,687478236266502
0,671867901302597
0,702015163707252
0,662105686217811
0,680693472270826
0,659306265746196
0,675150628599292
0,643292743285784
0,678909887485707
0,641013391191835
0,644438992142311
0,644056321454319
0,653557313806128
0,633188298959336
0,639805055690339
0,618317864535797
0,624087327360656
0,617820114391567
0,608421879678232
0,608473532436751
0,608948538705727
0,60443085349048
0,599203753958812
0,589417089683045
0,597151166167523
0,574384398145078
0,600020078929968
0,579412971108259
0,578362875867934
0,562177572059916
0,564488091278958
0,559191475074669
0,556963761439745
0,550834512095748
0,554615986909692
0,546549804592118
0,550018276052894
0,532420613909948
0,535203571680344
0,524095095515537
0,526569538626178
0,511493082804897
0,528689163146629
0,515380466752994
0,513686519764039
0,508888983091228
0,510886823195552
0,500364103676004
0,500676397277535
0,485313282036208
0,502543043053
0,482290861165381
0,489700381166524
0,466520679767914
0,480379678174377
0,478421146586935
0,483353843781901
0,4688144746093
0,472498092516744
0,472523339288589
0,459850501056318
0,44838534498693
0,45442310113265
0,443282216832976
0,45315123844302
0,434074732263084
0,437775952108256
0,429967221241095
0,435443203436934
0,431801566521009
0,435128412464948
0,420088167982441
0,428479992999258
0,41346751282789
0,418302651387027
0,408368107908618
0,411027365111141
0,411205416415892
0,404153613030315
0,391227914291924
0,40170988780577
0,389860270231959
0,40307448895554
0,386456353557161
0,388841678512303
0,376220670553919
0,378678024160505
0,373048824297871
0,381259021106074
0,369815446945933
0,370206849860304
0,36788094216346
0,369219022268785
0,357003145083622
0,364705787943621
0,361395200727434
0,353712111407649
0,350299369772828
0,353011592171887
0,341741576036913
0,346738706021508
0,343336086159933
0,344064838145959
0,327113037274329
0,336642792129427
0,331439284431678
0,326556580752962
0,322412558566966
0,334092292456375
0,324564298393397
0,32203784411506
0,317886023417113
0,321850387728328
0,313156535198027
0,311309581656738
0,309364019228703
0,310150342089968
0,298382180923926
0,302101974292142
0,304759460827642
0,3055508500719
0,293960684456169
0,299769270774123
0,293785741445593
0,293353392861157
0,291268466298526
0,291028473949291
0,277592295261298
0,285446025535315
0,276192502998422
0,281915341246993
0,277327106783031
0,279410661870575
0,270638040971073
0,26867313630723
0,265356398301344
0,268921009192897
0,260286381861194
0,265912306766637
0,259788028087049
0,266900248420324
0,264777952247016
0,260811992612021
0,253815217379538
0,258827023343953
0,251710032493316
0,254210421292773
0,248115584958599
0,254675115771466
0,245162757365872
0,247221024018463
0,240880949811066
0,24192730993342
0,236328475888839
0,239785001137502
0,239247891332928
0,235290091874559
0,231925449477675
0,23780770417003
0,222491437174767
0,229882144692582
0,226939121829914
0,231828504014177
0,222230475458902
0,225805608267775
0,215857857107942
0,225357674436461
0,214733344926639
0,223793873167567
0,217276939087054
0,215997165680353
0,212832224222941
0,21413105703827
0,209615484588855
0,209487232263693
0,208406695221227
0,209165759270137
0,20497708565412
0,212372113142974
0,202058237480891
0,210618936472952
0,20069972350498
0,204378294329984
0,196221898392632
0,198203358004297
0,194601509010759
0,203322706938255
0,197774341126275
0,190285049485885
0,188662686770803
0,194186998666934
0,188568974677271
0,191281727166587
0,185612052864112
0,182160594921936
0,184267467427254
0,183427137952883
0,180754899169397
0,180449585915598
0,176137021811508
0,18491502907779
0,178638524091848
0,175410949699237
0,17576423524124
0,174906989933165
0,168482882420532
0,169053477237257
0,169461721894697
0,171020436319642
0,163691398756241
0,168631192902403
0,165529885789973
0,169269145854199
0,169510490688667
0,162765650076764
0,158901045787757
0,166627139868473
0,159534832877912
0,162218221145935
0,164734888429357
0,160827048317266
0,156296931872027
0,159248087185656
0,151804783231375
0,157388150191363
0,150567938066141
0,157082188983649
0,151380230830673
0,15389899531337
0,148876251116753
0,1513249206652
0,148934031008967
0,149179278540143
0,149174789309165
0,143644838849126
0,14533102769049
0,147387764034358
0,146185824185352
0,146286337409214
0,143782294637938
0,148316609859638
0,139474072778066
0,142763378005602
0,140348595651463
0,136906532232867
0,137137084685384
0,138829939701906
0,137713542639448
0,136433972470795
0,130112125696689
0,132587586185486
0,135063552167241
0,137527862327614
0,13165868665365
0,132265135767476
0,12922452175701
0,1303627565757
0,130909402147283
0,1272407674495
0,12331329230984
0,128742826759034
0,125641818054516
0,128015984211749
0,127495691677609
0,123882734307893
0,120945600458951
0,125465496569204
0,12014209382879
0,120240230293992
0,121252112394843
0,118947460245508
0,11832135712819
0,116042966565778
0,114642697665302
0,117076152998301
0,112572685914664
0,120675703617934
0,114945299678237
0,1110797241715
0,109377005936967
0,113289310661117
0,112647601818497
0,113523478436828
0,107562673077669
0,109247289433333
0,11078403299336
0,108521407314541
0,106078210529682
0,109324342457635
0,104974608834291
0,105384355240975
0,105904175027166
0,109518460956017
0,104285056551803
0,1079406220793
0,102318063356959
0,103949975867118
0,0995420690461246
0,101004098512818
0,101500203587004
0,10712914069662
0,104369735652241
0,0985320795639695
0,0965751344708939
0,0986390747221286
0,0978034829704959
0,101678175601451
0,0956750130578355
0,0996714802723711
0,0962170443079512
0,0964313650499928
0,0952891585813472
0,0964714710459597
0,0928300401380384
0,0989596131097367
0,0938502462755645
0,0948899958974836
0,0938158448757058
0,0969071403185177
0,0891632175812068
0,092080600915113
0,0940233134757581
0,0914283009658588
0,0918465197149326
0,0926407210740268
0,0897235208524988
0,0925538726795024
0,0864877668655876
0,0873879417211631
0,0877298560950059
0,091302101388892
0,0858395787883657
0,0882274112072911
0,0898424827150349
0,0884229336102293
0,0848034144173378
0,0873619692476899
0,0805398351618961
0,082890274704006
0,0884903430031428
0,0825561844743144
0,0812374849731663
0,086688035554686
0,0854518017515951
0,0858209691454948
0,0804239852317401
0,0843625153656774
0,0825804981895674
0,085200664574022
0,0793916491499853
0,0820666113261527
0,0798098259156738
0,0821192571410706
0,0780587068179614
0,0771618570150138
0,0751657895995232
0,0787061124597685
0,0741807300321439
0,0805331429585897
0,0796121415251503
0,0810502898183056
0,0786441056085952
0,077506523347681
0,0776748401247687
0,0789968041350938
0,0739078961431448
0,0795495248474727
0,0750040640264971
0,0766562863537514
0,0751782796884736
0,0734507850802399
0,0716851897375566
0,0727943326582198
0,0763626246035412
0,0778622652985674
0,0708013115508959
0,07023333013838
0,0725915829351305
0,0775285070372638
0,0727937046018991
0,0760066540698074
0,0734089813156211
0,0745033208894702
0,0702340318965613
0,0730157242839573
0,0702380339222328
0,0708197145059534
0,0706308394344576
0,0723139017963739
0,0704228686622078
0,0738506458121512
0,0694762825287632
0,0728902150057665
0,0728542346020786
0,0736545779772703
0,0700175398422016
0,0695108425432407
0,0686395302409656
0,0686756576279972
0,0649098113084391
0,0687134521539308
0,0694116277401721
0,0682745114410047
0,0660764632813751
0,0690345538763146
0,06878365794867
0,0706590980046638
0,0661201206723963
0,0707109737243442
0,0704855298926574
0,0675875501689109
0,0655301844016603
0,0671919735169614
0,0670990729457255
0,0701653138440858
0,0654189612402315
0,0671232563359684
0,0628457282573505
0,0657509531992439
0,0646340902795492
0,0647203492208984
0,0653652891564201
0,0711723217384273
0,065573495929111
0,063868887646031
0,0624942203423631
0,0678555847050294
0,0657407673104569
0,0626171956060223
0,0632284710567189
0,0681418505592086
0,0645047959935954
0,0701168486875137
0,0656155453805983
0,0662965832563337
0,0644357947401544
0,0658526570526017
0,0633767758421114
0,0637695629832133
0,0618745349264988
0,0625939431183576
0,0615481525514799
0,0623373218405742
0,0633068162948187
0,0647915031354414
0,0612449218099477
0,060692737203307
0,0584255386676647
0,0603135838887819
0,0624920920838092
0,0652385984704533
0,0631486715634855
0,0613447850996971
0,0598968191254966
0,062920789136177
0,0584865661272016
0,0632205479964343
0,059313198424256
0,0626039558028793
0,0605069092718114
0,0634937049741914
0,0612931989243268
0,0622111023902431
0,0598631363778014
0,0596304567138576
0,0582796018379775
0,0617797102926756
0,0581079621970276
0,0589397423691065
0,0575662516158454
0,059996946247927
0,0576469688204885
0,0605611147934621
0,0551881227890914
0,0588109273144894
0,0605619445482987
0,0614156102377114
0,0571881364230841
0,0564546441044601
0,057342030521779
0,0591330850709087
0,0578967854627626
0,0585651263796801
0,0573547899454128
0,0604313985032625
0,0582990776953749
0,0586540589180929
0,0598227720446103
0,0588956318099134
0,0561490320161874
0,0584714662938615
0,0587993989855585
0,0590435827201434
0,0545809506448264
0,0589658674853649
0,0594321870334891
0,0584076201100917
0,0577804008515657
0,0583090156847516
0,0557557208467782
0,0588403617829726
0,0533149435825811
0,0561549822391293
0,0566213968354707
0,0593738601824783
0,0562974604531173
0,0556648646649666
0,0510172821938454
0,0550617438905334
0,0531527929040567
0,0588761035576852
0,0584604278582854
0,0555505748869117
0,056348085604369
0,0564124496886451
0,0553789587542098
0,0586001999102107
0,0560308542286564
0,0557180835043191
0,0560664412297824
0,0561844123372852
0,0539188398233786
0,0555078890733041
0,0529051415384001
0,0570988212729289
0,0530735265935206
0,0548443950002318
0,0572892576292431
0,0580250154239844
0,0573035013832436
0,0561913898714515
0,0538561328578408
0,0559899142768719
0,0544459088703773
0,0553879044613995
0,0523519754507539
0,0554103714947716
0,0573601840274923
0,0578382976617169
0,0551697842613961
0,0587530561255245
0,0578153638607507
0,0537841490144846
0,0552253663705924
0,059080600132666
0,0532214252481349
0,0574492265690804
0,0563309066309576
0,0573755366544662
0,0562723407443766
0,0561070663808163
0,0541912195746238
0,0547015818361595
0,0528219689034125
0,0579115161781899
0,0564563072008782
0,0567906177611921
0,0552899610417919
0,0569562406772613
0,0551832774273061
0,0561438221891397
0,0516136199595368
0,0569382913794571
0,0563106855448913
0,0544524619928017
0,0538780426283486
0,0552710741109736
0,0557343166843759
0,0574439779070704
0,0547745611233012
0,0542785297568614
0,0544580648066502
0,0561931716864167
0,0547984297021069
0,0550753857614948
0,0532904490429118
0,0575802443018703
0,053028415394333
0,0570711902998897
0,054132375410998
0,0558267041905323
0,0567440051438081
0,0551595980067511
0,0562541719295934
0,060834720962715
0,0564173345439852
0,0554725889887492
0,0545777343704422
0,0558470025044274
0,0561947443793842
0,0563682175992184
0,0530626460182144
0,0575160113422862
0,0579144885609278
0,0613749529120996
0,0538077586983905
0,0535587946377501
0,0548144407563172
0,0561075524079103
0,0546262256422124
0,0582657345019636
0,0557957514721524
0,0576487357301778
0,0571173150602955
0,0568581275316221
0,0551503590669009
0,0584006721504921
0,0565150057556055
0,0561390840331816
0,056864536886539
0,0589277969404656
0,056201927375443
0,0581268334816766
0,057159401495085
0,0580945703864962
0,0584486238333208
0,0576683660709024
0,0573244307724483
0,0580860703519885
0,0568873830654397
0,057204432278249
0,0557159833992856
0,0596203739438685
0,0547545443085324
0,0584313832329541
0,0580180186804784
0,0572147908805439
0,057260598711318
0,0587167963522378
0,0582631642804326
0,0592798110229493
0,0567344298533656
0,0562126483336505
0,0555110017491794
0,0578840900802385
0,0583181098323807
0,0589842437035078
0,0558709500679477
0,0586369161582194
0,0564283536773881
0,0589930823053195
0,0558310329206559
0,0566571303378214
0,061124156758646
0,0611994868181215
0,0555254494195051
0,0579366526685623
0,0583786804582274
0,0596133229717162
0,0582972441065809
0,0602235703490748
0,0591263951623529
0,0617361494156861
0,0599027761189192
0,0597994538580017
0,056591488797406
0,0604016548056198
0,0577860646624336
0,0603625997017431
0,0609511157935312
0,0594802651247841
0,0581470638716472
0,0606401847852266
0,0581751682859215
0,0608786372945088
0,0584248514464615
0,0608312390679463
0,0608114919277201
0,0599904249950044
0,0589433320560676
0,0611015950783578
0,059406763519061
0,0611951103444039
0,058806675124295
0,0621259882043007
0,0600756744845569
0,0614384237754341
0,0592322771073042
0,0618372708988811
0,062467936265658
0,06101194991684
0,0599485571739219
0,0591577282004755
0,059847408324098
0,0621081385348064
0,0608278372317711
0,0610706334984862
0,0584391100916011
0,0616155651911418
0,0604624639664918
0,0637957712420069
0,061769065043524
0,060674601765755
0,0611154863493981
0,0617894987484505
0,0614658593472171
0,0620961365641672
0,0569961468359081
0,0596892839299106
0,0609059013032479
0,0638687295203094
0,0653063154585887
0,0631808508964687
0,0623067660680735
0,064315938804329
0,0627216516199557
0,06354872925317
0,0619064266676645
0,0616962556664
0,0627585424390011
0,0635248563183221
0,0634690440791377
0,0629628816808365
0,0617696209262948
0,0630226577446685
0,0612594270163509
0,0663315183654699
0,0628995940923764
0,0624074025725163
0,0637167485868667
0,0631370543817935
0,0631167043336447
0,06244829311356
0,0614994655673591
0,0653775741645324
0,0644169506190709
0,0629685414530316
0,0640721965595962
0,0667292800538957
0,0663833997654526
0,0651757462045386
0,0625995973307427
0,0660758540171224
0,0638867482250582
0,0651477962733161
0,0635983287415199
0,067197010759942
0,0665349875221759
0,0655254319870463
0,0659611009303701
0,065565385453169
0,0646269297101439
0,067638990421928
0,064322299372444
0,0651743518003036
0,0657851762246397
0,0659590076468587
0,0634938487108657
0,0658324043378788
0,0656069234018191
0,0665773790338228
0,0663792229278122
0,0678046194605122
0,0653657567594077
0,0658212750381802
0,0642174323937107
0,0669180651451785
0,0685171984544137
0,067571838236714
0,067815807755364
0,0694830030033838
0,0673377569068601
0,068473154263052
0,0675428288530382
0,0698454742493922
0,0668996322428298
0,0700903132058388
0,0682325268092524
0,0683725216612318
0,0676918157250736
0,0697306378964042
0,0707110395307991
0,0694199900131216
0,0695201393042253
0,0706019611485889
0,0677281256396168
0,0683264565077531
0,0676371866930241
0,0703760160168395
0,069732883682574
0,0699214545795213
0,069432335556696
0,0711297384617868
0,0706941278183877
0,0718810856218425
0,0684002494342714
0,0716322599170569
0,0709680252366636
0,0750902866039786
0,0713781797890379
0,0744956295593317
0,0736560576644106
0,0724147684178927
0,0689811684156415
0,0732143841726943
0,0757140281377603
0,0803995071080074
0,0759711201051326
0,074047044295891
0,070622984958055
0,0765061170702955
0,0738000306929804
0,0729740016799261
0,0770087354433664
0,0765514613310462
0,0753634358873149
0,0761060980105145
0,0720956569527583
0,0780588249616496
0,069336899187259
0,0752351933180698
0,07454485519201
0,0747610802147402
0,0753354092053237
0,0753330840645767
0,0734733516333608
0,0782888954866364
0,0782039370271173
0,0765582372411862
0,0755996058840219
0,0815173460514063
0,0768608320918773
0,0819880960598964
0,0780264539901766
0,0827992152843867
0,0719483170496147
0,0812429033201097
0,074204699618145
0,0808324900643344
0,0697680902545802
0,0819911009830872
0,0664438455756879
0,0855293079440189
0,0696508571035542
0,0936376899558306
0,0666954812281723
0,0901634957240318
0,0623457094880274
0,0937100212117968
0,0682040243466409
0,100929503807623
0,0590269960774112
0,0991189313400471
0,0608298013896145
0,103498832821971
0,0566914141623562
0,0944933727577273
0,0631147552496437
0,0965753260407537
0,0628024664210886
0,0920019967686238
0,0741820108664774
0,0853511461296858
0,0791584394295457
0,0797694964594366
0,0847075940407284
0,0762998892621995
0,0847693037885409
0,0765124822004472
0,0862863923320164
0,0781402590333251
0,0849869314398647
0,0797954592943978
0,0800462863739311
0,0861051204691744
0,082457307472225
0,0844541368725231
0,081012807284787
0,0838639372949802
0,0833750295301069
0,0827232211585115
0,0827287116065951
0,0817499337274883
0,0816658224047967
0,0823630247386818
0,083747447564248
0,0862672508216753
0,0839420983406409
0,0871373435576737
0,0863131217020542
0,0842006817979249
0,0840335326706233
0,0850807511141842
0,0830739275560693
0,0865728416240637
0,086240942076143
0,0849710092438978
0,0860572681067247
0,087080796379135
0,0870116323205365
0,0856471157658016
0,0871677108594248
0,0883649032419229
0,0875732222306288
0,0872959856799234
0,0847435247119258
0,0878469782204613
0,0875213604286932
0,0886945605059717
0,0882314301645811
0,089002042593254
0,0907395264136131
0,0897508368795908
0,0897486211331865
0,0910016021191521
0,0889490367862118
0,0910414012656918
0,0904601445375915
0,0901488686014693
0,092477330908105
0,092121414917951
0,0894668923446929
0,0894212112044346
0,0900612470433499
0,0963755663484917
0,0937711758720038
0,0923582694338145
0,0909196112796947
0,0936408780848871
0,093377848374428
0,0915998364965916
0,0920971556669853
0,0935377960430606
0,0943777138415469
0,0919411049717937
0,0926919794609733
0,0963711692777787
0,0944060712271466
0,0931303359533053
0,0954227049551845
0,0954842446365732
0,0946157698562155
0,0969914867311923
0,095675591861888
0,0959001120900827
0,0953288553911452
0,0973863471091082
0,0960433805739845
0,0960523462748812
0,0955687657498628
0,0996045649567375
0,0990075011716311
0,0965772054326061
0,0965790625929248
0,0973220532036583
0,0994020789809622
0,0991065515441593
0,0987745124603207
0,0978941004911296
0,100123393194888
0,102152923116122
0,0997602475654038
0,0978640265498051
0,0978413575629217
0,0998740542727025
0,100404377155969
0,0998543710793373
0,101463725981853
0,101959246577402
0,101838942905427
0,103114458360481
0,103705526825809
0,100381852447066
0,102069045913025
0,103567302544858
0,10452200477438
0,105423708338367
0,103072998352388
0,103429942746096
0,105122296577772
0,104372881879573
0,105526565237461
0,105605239126301
0,105129278118023
0,106198766787547
0,106038982076528
0,103928840441509
0,104621236018951
0,106544514157101
0,109060231786717
0,106578809453911
0,107209924046939
0,105907638646468
0,106992481450969
0,1109235009365
0,107832481258158
0,107101311775004
0,108550274829741
0,106914100200261
0,108638764079753
0,109430169168112
0,108933224364482
0,108996688135218
0,109225537176285
0,110526097021023
0,10944218024235
0,111223932668405
0,108997924536055
0,109338931457304
0,11038767658256
0,108750234195114
0,110425823126833
0,111889208735818
0,112369855477857
0,112282302443167
0,111689265683129
0,11095991959126
0,109543218972905
0,111080233202944
0,110102969738215
0,115777974236497
0,115381456239286
0,113525482446198
0,112314657365588
0,115462494910983
0,112017018825393
0,113064253794568
0,1151576869783
0,114910177400365
0,113797290700787
0,114105619879959
0,11308351763392
0,113731875045903
0,116695733319841
0,1148460191188
0,115674548670414
0,114276988735754
0,118256096965322
0,120411311735146
0,115201414532528
0,113159014004385
0,115346954692395
0,115085254583015
0,114932375926007
0,116632670439857
0,116239207361717
0,118768634444613
0,116176949343317
0,11461746221768
0,118296171094451
0,117277711638148
0,117576725451272
0,117650421077391
0,117467558560856
0,118329871549461
0,118154854476281
0,116821556356063
0,114814151138366
0,118022139142127
0,118662696215629
0,116557592412572
0,116553513150499
0,116291298472107
0,117810722384576
0,116658013167073
0,117415838061085
0,117122684305422
0,116255435668533
0,115474444317827
0,117220925977684
0,119479164728139
0,116099209062176
0,119613062037359
0,117223155865659
0,116430805643797
0,115955102120546
0,117868234385516
0,116658970121984
0,117282070994802
0,117218048297922
0,119578351560901
0,116678785708382
0,118037994405005
0,11655120048669
0,11333348819024
0,116229934081316
0,116728081937677
0,113240278036167
0,116304535614339
0,117713807636373
0,115911522213645
0,115887543872162
0,11824136095775
0,119645938946868
0,116281935813838
0,117006637155438
0,116242906326658
0,117718637856744
0,118103221930183
0,11797973838302
0,116394083497292
0,117631446374972
0,118091945383089
0,115722365547805
0,114426979691501
0,11609233699812
0,116888907404465
0,116992303160418
0,115677411280752
0,116721080939499
0,115212610229594
0,116435279101539
0,114390048500679
0,115892653813946
0,118296865799622
0,114465634958132
0,114388997611376
0,113128794899982
0,111585381783696
0,115100763236626
0,114201363199306
0,113196794438522
0,115241916310025
0,11042605099994
0,111711468991692
0,112463045644351
0,11100931709795
0,11056085958034
0,112751692105573
0,110759027616469
0,113604482357102
0,112556799218656
0,114673478243914
0,110705034930002
0,112116701484844
0,113135059923724
0,111830168840453
0,110595860888253
0,109039572317185
0,1108297219797
0,112755736645845
0,1081986375254
0,110308711717619
0,110744364742055
0,109854795306623
0,109954924335959
0,109557638224069
0,110431702548989
0,109394814995805
0,110144832601776
0,107376344037459
0,106410772116464
0,107872173671145
0,108909720325563
0,109083743491603
0,106908028366146
0,106812018297031
0,108721841290768
0,107427626344225
0,106588371112077
0,107751468928445
0,106785273005712
0,105368101755987
0,106794197392032
0,105104268493241
0,105564224578068
0,104926925125508
0,105074633136671
0,102006115365351
0,10431040405858
0,103419577668858
0,104214633544964
0,103032945551146
0,100884996620005
0,101255155828703
0,104599887762548
0,103282053060695
0,102231217026011
0,10101393025023
0,103553190164728
0,0998523368116807
0,102826430409219
0,0982670809691682
0,101442198470062
0,0994477034997988
0,101978080422632
0,0992875710448413
0,0969798450223026
0,100034563906873
0,0997897550787631
0,0982479509331616
0,0995173334623337
0,0966896966112345
0,0950431403096515
0,100457905202615
0,100473828230581
0,0966457719988151
0,0983566534231486
0,0956687964805064
0,095591557762445
0,0961958286982387
0,095717872284019
0,0960008714787577
0,0966870411869652
0,0945416094993139
0,0949087271145997
0,0932932106466203
0,0949629398913055
0,0978934849754998
0,0936386020143498
0,0933849967855249
0,0920259760285789
0,0933838794005901
0,0923709655667871
0,0944413840555252
0,0928804971573515
0,0942527645679533
0,0904206139765177
0,0920684014317648
0,0926685902079122
0,0904010205801864
0,0904451319895329
0,089870979238953
0,0893977210620934
0,0882451874183902
0,0888559104062047
0,0905239044597032
0,087625743598415
0,0884174898929945
0,0898919337619938
0,090305176793527
0,0872414384234675
0,0893314740761734
0,0862009058161137
0,089529011196043
0,0865681671769788
0,0874123015566013
0,0865196956851573
0,0889124289417066
0,0855750366535149
0,0850741867673033
0,0858360757774684
0,0882852379765422
0,0864880548421479
0,0864335978942066
0,0863362316210358
0,0855406598703536
0,0842848884446523
0,087397323306402
0,085714184786125
0,0836369744714477
0,0824837444467168
0,0856143569272313
0,0823040172656422
0,0814372599946034
0,0841964330020186
0,0826487042515783
0,0827372923112284
0,0838507460792967
0,0832630578367839
0,080249745096203
0,0878610508641661
0,0792648203894474
0,08441250557002
0,0815094156314257
0,0826491873448112
0,0793276193923773
0,0816827207604915
0,0797890927866192
0,0813568358870189
0,078452521334664
0,0815613354460789
0,0783721600784827
0,0791403920292561
0,0791687236169531
0,0796683246020129
0,0789255845061772
0,0809374604838923
0,0794358419553635
0,0808676125302142
0,0781915421706305
0,0798963239877765
0,0801978751107919
0,0820856277604458
0,0787765129526006
0,0789526347025368
0,0751414024089967
0,0862983274266288
0,0746638765288215
0,0789028752238995
0,0770152770466806
0,0778957245421985
0,0786181484511507
0,0762742837555026
0,0771011744984512
0,0768068354436637
0,0807847007587861
0,0754358081622177
0,0790854403577848
0,0757938661492108
0,0790941141421588
0,0748573280478836
0,0774410644755998
0,0769307711460516
0,078281158875818
0,075891357774827
0,0753983241150677
0,0751017080920454
0,0750474756311279
0,0749066633520694
0,074521891732093
0,0747257028315589
0,0783058471094182
0,0728116514084482
0,0748313227998724
0,0760056506885061
0,0756860215687612
0,0741351487104908
0,0817539816101975
0,0720989295778649
0,0791529762504294
0,0712999343735662
0,0758707885204247
0,0739664623474621
0,0724098939435707
0,0745247424728536
0,0744823985230229
0,0739392372303768
0,0747791474634996
0,0721464705738747
0,0749499034293945
0,0726437137778238
0,0729951677782832
0,0763816618953334
0,0735107901418641
0,0748418232155887
0,0736325471118101
0,0759238678076461
0,0736562968802701
0,0766168431067442
0,0778315152432015
0,0706261965804005
0,0805039918790382
0,0731130321442826
0,0744516840125519
0,0726743116007569
0,0738615085056526
0,0737175049281852
0,0781470937298892
0,0744245440509597
0,074738023497166
0,0700936385850723
0,0774196608768645
0,0755368498843648
0,0772234726613394
0,072745430824438
0,0749774363508319
0,069143697338447
0,0768357457843996
0,0718676879722462
0,0771898501331988
0,0728559795886117
0,0776011632674052
0,0740273184091237
0,0781987511327731
0,0723030849425531
0,0773194698660381
0,0821268237332821
0,0701331095467616
0,0794706155770964
0,07051055158398
0,0779544985102341
0,073470337001914
0,0765801767855952
0,0761571206772512
0,07791460374183
0,0734931802413095
0,0767348935194109
0,0741034047596639
0,0755526421561588
0,0769444732886301
0,0779045964959799
0,0843943020051233
0,0777763131237914
0,0774036482261056
0,0766616394715255
0,0764189057599275
0,0878442348249128
0,070252248066343
0,078447706738973
0,0777867342762476
0,0791271210153527
0,0767675085837433
0,0773552385916435
0,0763253005124336
0,0763546653335475
0,0794561484800252
0,079260091500243
0,0811549524069049
0,0781392489141629
0,0781029829914937
0,0780379815756471
0,0812261051589754
0,0816647934361241
0,0795211304422997
0,0824465922948926
0,0827402898344612
0,0807932615393412
0,0812314867611952
0,0799464554368063
0,0818356661122777
0,0829516086763572
0,0882659649144139
0,0809927758591358
0,0870668360619643
0,0820276930912255
0,0828946603442752
0,0841379536235835
0,0864792308409615
0,0857374985984109
0,0841126090607412
0,0829544147543333
0,0972645992414817
0,0787958133887447
0,0985587227530544
0,0802497380294902
0,0924493981495789
0,0825143879190335
0,0911643878584117
0,0821876253201351
0,0972924328363743
0,0881261968722635
0,0888863645389934
0,0867762399921572
0,0865309378620605
0,0986622785042079
0,0884019552330317
0,0967787184765258
0,0915052629051131
0,0913265856089831
0,0927533704803586
0,101359184020566
0,0899823994146428
0,100288629593286
0,0943874255403617
0,105179601651174
0,104919766469083
0,0947900369896034
0,103225691090677
0,0951809050175474
0,102021662738315
0,101244578912282
0,0993705180688034
0,102826923571965
0,0962395952001967
0,115636948443485
0,109321234059917
0,100806386170633
0,109250983961748
0,102877631459172
0,110551542814063
0,110021134443016
0,106093442032929
0,109020868754412
0,110544738515749
0,110482942135103
0,120487441244035
0,133014794452506
0,109304395181706
0,130094948661001
0,11044131469298
0,130173778871586
0,117996369549007
0,129231262837705
0,115937424546493
0,13440209601465
0,125665266206255
0,131753561041856
0,125450037650976
0,144333913660595
0,124638196906979
0,138997099597958
0,130539376572582
0,136014291537618
0,140010503236336
0,153231226257902
0,141438761821533
0,149520957233509
0,144418438950963
0,151735781493601
0,153514625471958
0,154355237053776
0,154318599748985
0,154564901830728
0,158477501832059
0,159323342491518
0,162103502899329
0,164820596933936
0,166085718747594
0,173133046052087
0,16773564451436
0,181804601982489
0,175193630113946
0,197821470635073
0,176331513388145
0,193523066976131
0,193153004151679
0,200999707625871
0,201094966855264
0,198714158610652
0,202736330485159
0,208803145486178
0,213023169769665
0,211762451431968
0,217212763361398
0,231368008231067
0,221121720852306
0,24185738598715
0,225087441315735
0,245157126833257
0,239493023692031
0,270542072965426
0,265683602851928
0,256968299462081
0,264850339065129
0,261620887774376
0,29248374199514
0,27588994679881
0,282875612615983
0,288735293596387
0,291882769871403
0,297967258412762
0,306473111815139
0,31381340020375
0,312213273713862
0,326586587471511
0,324675864620924
0,329512234193903
0,345980970015125
0,354293818785571
0,366989793415785
0,347586191679982
0,361735633513572
0,371304744531308
0,3791066519278
0,382969469873827
0,388404212130557
0,384140876176429
0,418986369304058
0,409028161971735
0,414084958383666
0,411200454824517
0,430639634378676
0,435349699556235
0,438000237068794
0,467658367503846
0,444894044344219
0,462017060857219
0,457660604796688
0,475224474662857
0,468592355906354
0,485076477676807
0,49394798992052
0,5064308549306
0,496914729958914
0,503692482167801
0,519064472747294
0,526330271684349
0,526359057382676
0,535284916416204
0,53211013886208
0,541046846584212
0,559204663672175
0,63699026942185
0,564084491665159
0,566764844341559
0,556189753446951
0,578666573726452
0,595201602865443
0,594558461019956
0,607650876538948
0,600793219523916
0,596135478616466
0,591883486837677
0,595502821959604
0,598742212606744
0,606218839010776
0,612213756475263
0,607152974992007
0,618652880286183
0,615386282855291
0,653067776239355
0,628105914459758
0,622148198405497
0,613487136971888
0,626654634852446
0,617655347100459
0,61179567544191
0,594034910903289
0,612851846191995
0,605840750626402
0,61294497523224
0,584431656127484
0,59229068960831
0,59220761200377
0,586592552281825
0,56511858326234
0,571928533885292
0,564681970684775
0,557130768181889
0,542980593211006
0,573640637467532
0,538346219988675
0,53429137769219
0,52328494652403
0,514330647974531
0,504700871671522
0,506876559708911
0,487875472573487
0,492563736866416
0,478356453834611
0,47938492042471
0,467898033738331
0,459782683901537
0,453456656401876
0,452997587594317
0,437099840761942
0,433314555210682
0,426183377342233
0,420893254785368
0,408566689409145
0,408473962299151
0,408633151256486
0,400127725063354
0,398001678023699
0,39115104191016
0,38397950615583
0,380101927551618
0,376113711819855
0,37171866095281
0,370188348455872
0,360944011413794
0,359744498509052
0,36319654640652
0,352193921582014
0,346241598280415
0,337512209753149
0,334689010433607
0,337504979724079
0,332881356462205
0,331076080776235
0,326033710180777
0,320269852683261
0,317479680490427
0,316613658547095
0,348118420384315
0,300655937703804
0,312363450978152
0,29749151795179
0,30562123683179
0,297892685750359
0,298207400481066
0,313034798654129
0,295938682371983
0,295939158173108
0,28800822500898
0,289459080647092
0,2889303288259
0,282025474750303
0,286621105360099
0,278883953060087
0,275243565149143
0,305803597556784
0,270295159309279
0,327394369139531
0,27447368055817
0,277982092213129
0,263001867129227
0,287508480082792
0,269072905594569
0,263805292808894
0,267538783611502
0,256413960334863
0,283419887037502
0,254164748362557
0,262085259493007
0,252246752595318
0,255653715111449
0,26805971443994
0,255893363732222
0,254536542461042
0,271049268078175
0,251525573159796
0,250257879273365
0,260243816896509
0,257823313266873
0,250078956809109
0,239967608522387
0,245640319118817
0,240234019653086
0,245332991989988
0,251959938773207
0,236993006749552
0,246291171106454
0,233869497699622
0,240669536021816
0,23194236137384
0,243348162343772
0,227559746585555
0,244873892533837
0,239227950039261
0,229782382798959
0,239509323180402
0,228872305179049
0,254305509395988
0,23651464488903
0,22932469340542
0,2231265121108
0,245870152365447
0,22187700149863
0,227468056856377
0,226584160006997
0,222614185486678
0,225929275812611
0,221678955798139
0,221818829426402
0,230289598082469
0,215730770974075
0,229595247716876
0,220033319550929
0,232099300366102
0,228892538656772
0,214484769830304
0,215187485457043
0,212498562080204
0,21528154787927
0,214704324777582
0,206844412823253
0,234820050508407
0,202316736309574
0,219773292739278
0,215377923603245
0,212100495350887
0,209357439001023
0,208250677011583
0,207789277938066
0,210229472535531
0,212596494640006
0,225167850546563
0,204995660130309
0,223360053948679
0,2073819564334
0,209053640671833
0,201921549118656
0,207470174543258
0,204637204557514
0,208961516027191
0,217822637780896
0,205099364733915
0,204783716310752
0,211850323275276
0,201211188537029
0,223854913957787
0,205852754173046
0,206833703336957
0,223208375403903
0,207018211720203
0,224913784116698
0,20088810243678
0,209355906552149
0,205356969578803
0,207155626808633
0,212017895408807
0,20575793874882
0,212842032773025
0,212273406401296
0,203781668511298
0,208557980540663
0,206760994613096
0,20913719993018
0,205464316133945
0,218568676641443
0,199038637577396
0,244147090908671
0,192814472821041
0,218314371683237
0,207625838457638
0,209714955896614
0,212384976191153
0,201885252062676
0,210431415449921
0,209702843362245
0,20827211786841
0,214433003408069
0,205377541375304
0,210764355784571
0,204730792363095
0,20723980297478
0,204007202578369
0,207342243675026
0,204252668749007
0,206851262862513
0,20633857426687
0,205479124461441
0,209682654073895
0,219300687483843
0,201104952554038
0,213903907031749
0,200594044910154
0,210212922810351
0,20168304445367
0,211675589541059
0,218347428255209
0,206091825782449
0,204020153326789
0,206948340659418
0,207410716464201
0,204995204070334
0,207582662531374
0,212977840960984
0,202025753466382
0,212268887673588
0,198095817989661
0,234147399628757
0,197806464235861
0,215597597262159
0,207006292248533
0,208177449933518
0,20594136263833
0,207497866276631
0,205303195743614
0,208864687665528
0,209837799102234
0,205164514335764
0,210118783190264
0,207018419100967
0,20768778515791
0,20255279620953
0,208110315816324
0,210174961587366
0,203450276664054
0,209026877932969
0,204661935368977
0,211438206421131
0,203142054093531
0,215054009172724
0,200713429196662
0,211428921156108
0,205915978263402
0,209590500239667
0,204713148760286
0,206775628627405
0,202099137515289
0,206663668213444
0,200607746334908
0,211185725118469
0,199641313114464
0,215539919837563
0,210969496436747
0,205447736749266
0,204861411391253
0,203697995763089
0,204060159132539
0,205278096554259
0,204685083487936
0,208400478329915
0,208294613868226
0,204167368838544
0,206184381834189
0,205391578012373
0,20659164748933
0,203944727460427
0,211423210172276
0,208343714873043
0,204146002687984
0,208631222443991
0,201860480667194
0,208253981290127
0,205171925990504
0,205600367567945
0,201436237502988
0,204059043556953
0,196694129875849
0,206055544071037
0,210536725788285
0,19849358330644
0,209343765356841
0,196741196888006
0,204534832068918
0,203735711142411
0,201726131223292
0,202744469402748
0,200552761375639
0,199524859480423
0,202716132610375
0,202282761693731
0,198281240074548
0,201472135254413
0,200930979668685
0,19864619987677
0,20179595214989
0,199439347585046
0,200927479126629
0,201827304490791
0,199362988550571
0,198479360464171
0,202066887832761
0,198647504273066
0,201903312411614
0,199751455932105
0,203985941530161
0,197432190902918
0,204043484705258
0,199910980400639
0,200471302880367
0,199518381374963
0,195449826348455
0,196246966918847
0,19838054987181
0,200425681544371
0,196762937493594
0,200287895447965
0,19910336567967
0,200638966664387
0,198988768152763
0,197975837070101
0,194818499588893
0,200222606075706
0,196065777270349
0,19857887837319
0,195915881449242
0,201416849147474
0,199571432319208
0,200487107894207
0,198088076687687
0,19977687038908
0,198717946869222
0,196126826299089
0,196558371260044
0,197314105410251
0,197624436563106
0,197961695873191
0,195570794839109
0,194262908812845
0,194280446208995
0,198648057475471
0,197447933627564
0,197228699953867
0,195940967539237
0,197047636761584
0,195601132158639
0,196028182145516
0,196996816274558
0,197172451819665
0,195248266209267
0,196611026115143
0,194508121954469
0,194899072452124
0,197435746116616
0,192944322569844
0,19523856799045
0,195884937982788
0,194707087773777
0,193768044650089
0,19369518062422
0,195438574703061
0,196136307144836
0,194133161845842
0,193055325438189
0,191728672073302
0,193140772561658
0,195574272144291
0,194037037737904
0,194272874383267
0,193570169659685
0,194595678736486
0,19473246158321
0,195919439978441
0,197695119072749
0,194153540468468
0,194926814295895
0,195724355833816
0,195489934200874
0,194646259239475
0,19508523316157
0,195949585218767
0,195695883666451
0,195050432433631
0,197130600747518
0,194090401323033
0,194156643663592
0,195831361412808
0,195608621237195
0,195869938161432
0,194561750820922
0,197047224927675
0,196599978131687
0,196717565077332
0,194161970854435
0,195796582454654
0,193152502101328
0,195262298004556
0,193784279336748
0,193990110223015
0,195517401753944
0,195786908357791
0,192815654217162
0,194089585704567
0,194960563672911
0,195667114675007
0,1935953843545
0,195362890774974
0,192143659587799
0,193138751679703
0,19383952636272
0,192791160981008
0,194994828884561
0,195447246362925
0,193355317239573
0,19314322695208
0,192260000411549
0,193734743412785
0,193426563752235
0,192646692009341
0,191023213869926
0,192378600457498
0,191528255920338
0,19407858677598
0,192205578797526
0,19137638572893
0,191486005923839
0,193362395956169
0,192236945129755
0,192122216864598
0,192739899748075
0,192176869550237
0,190460887303978
0,190467927751506
0,190081618565691
0,191351117142041
0,191507081860048
0,19048839812526
0,190902895887017
0,193219011619472
0,188363439176453
0,188992132436167
0,188755768507314
0,188234494017657
0,190030807895191
0,188546761767974
0,187347490856031
0,187811027966038
0,189304810630031
0,187735757777794
0,18642038621119
0,188675955810554
0,189805168147897
0,186157538856046
0,184906547630111
0,18588430040123
0,187988971400198
0,18927294668728
0,185224381638722
0,188175020118662
0,187002774879548
0,187154503111063
0,186813049701244
0,187004479230546
0,186828864544771
0,186064939040526
0,18544057233903
0,184139500529721
0,185437372637301
0,185521157807885
0,186950962600495
0,188315556406195
0,184948938701184
0,186888939954484
0,187822279804226
0,186948091517116
0,186236589648407
0,189155256700169
0,1875844387559
0,187170253466438
0,188185008991356
0,19027123475262
0,190383134413127
0,192513917185612
0,191965528546098
0,192183166706614
0,194753457592508
0,195871329597819
0,196357057488763
0,19772312001915
0,19812780477158
0,199468192401891
0,201028969417799
0,202061901382083
0,203314808704266
0,203844649967276
0,204181245059149
0,20837277714628
0,207927067027373
0,206013900785867
0,206208186292412
0,207427167695889
0,207781090367278
0,208159576659434
0,208086724798812
0,209373059276508
0,208741027262785
0,209192273623263
0,206334583066696
0,208293474390998
0,207725334120125
0,206222062095071
0,205057370327599
0,204916964072039
0,206677851664806
0,206601218047904
0,205022077316237
0,206092414855575
0,205317133487673
0,20515045483161
0,206794678641452
0,20573145875046
0,205544875499675
0,20728777756852
0,208821797557069
0,206783697142903
0,207620824657399
0,20895129882515
0,208074965439193
0,208060573514344
0,209095306488622
0,209472628629166
0,21122581696663
0,21149752587483
0,213926331665657
0,213956148808246
0,215227596491395
0,216300967963738
0,218363924877186
0,221136033162394
0,221367711949005
0,219654565702717
0,221271378202578
0,222113393431834
0,219148542567714
0,219823306316223
0,218465867563576
0,218468745601247
0,219828846717532
0,220645821660101
0,220463738337649
0,217606144103101
0,217976106162675
0,215163767078651
0,21499739180226
0,216579321297477
0,218637948400225
0,220231684001287
0,219469472255605
0,22074916455898
0,22398083849972
0,225072348507185
0,225488970455351
0,226422008487081
0,228747390079118
0,229491260561193
0,228152335027085
0,230191417651589
0,231491359343141
0,233687184686783
0,23531769115935
0,237407832777091
0,23525649109588
0,236293734222699
0,239969467783773
0,239859636308207
0,242300666051706
0,242755631916516
0,243690059804525
0,24782173731423
0,251261068097245
0,251651736541281
0,252130663965995
0,254247865416307
0,255330598099952
0,256691522562606
0,256955904780215
0,260573626816621
0,261878611031622
0,260933452723398
0,261652409113581
0,261508672241956
0,261985821703499
0,259085242974424
0,258101981546915
0,256257041899517
0,254629668243647
0,254875384034524
0,251588768774335
0,249999918695324
0,249794236456369
0,249246837828211
0,24802429491222
0,246166029499816
0,246960619592066
0,246757459424454
0,24655158248209
0,246357017201238
0,249454262467575
0,250348758389051
0,250040693463985
0,247450358262852
0,249733258808625
0,248717010482469
0,253255394055984
0,25426026448282
0,255190377210923
0,254969298218601
0,253856604781016
0,256135621144248
0,256745683233496
0,257558640341083
0,258050090033115
0,258111552874862
0,260536434496153
0,260234457544234
0,256354992099901
0,259966941254843
0,260532355461114
0,260222124618265
0,257665704062071
0,25795783181039
0,254640406060947
0,253012073754568
0,255757739001153
0,256330842733935
0,255736643574555
0,257130981915539
0,254644507087341
0,254986600213402
0,256349964648134
0,253669460387844
0,250103204837466
0,25119008348566
0,253505589657899
0,253876873766706
0,249414276525691
0,246421830022808
0,247059563275642
0,250016534021108
0,248200572538993
0,243598993422481
0,242477425843486
0,23921492975831
0,237951384208968
0,236052423752204
0,233158174781675
0,233118337410518
0,232088465046181
0,228340307435175
0,224269921347195
0,226058284459829
0,225720622919822
0,225955282403929
0,229159605483673
0,227162578705237
0,228278849850377
0,230028154773263
0,231014054453333
0,232399228437724
0,231565752917949
0,230751173327641
0,232237881093019
0,232980472971308
0,233182228848097
0,23360023780952
0,233841174130592
0,229463435835943
0,229241130066053
0,231476523782457
0,231366454083029
0,232253318601073
0,232586853181576
0,233679028467153
0,234229399242117
0,233515923335032
0,231319786556197
0,228930718198678
0,227569796438736
0,230027596276553
0,232946972241288
0,229702307071392
0,228848511176161
0,23231270291363
0,232182223319743
0,231941567775454
0,230947426883768
0,232145637081113
0,231615535202237
0,233402645020719
0,232258158306637
0,233682582580158
0,232000381489891
0,23304613450953
0,235982290612119
0,236921351215579
0,236833083787584
0,234850956228191
0,238885894179797
0,238256420043881
0,239264428475495
0,239626034892286
0,240656228583683
0,241182533621435
0,241710220536822
0,24633334741096
0,243388633878835
0,240341538329888
0,245271196564277
0,251477325803262
0,25197359916585
0,247159441576805
0,24921305055131
0,248920551009612
0,254256647786203
0,257715597610226
0,255516047582986
0,257970207379518
0,258025158631429
0,255971606425785
0,260461209629966
0,261647395713794
0,263250856817676
0,26516992980627
0,261493098678218
0,264968965268979
0,268920443834838
0,269126570769335
0,270758759477434
0,270765382735238
0,273508414830324
0,27280078700586
0,275949182020902
0,275036944657063
0,277975839255957
0,282149616201147
0,27978738493925
0,280865916230004
0,290036578197947
0,289802959235389
0,288662012296406
0,29062066622838
0,291537914045931
0,295231091527135
0,296760431149759
0,295314289564788
0,300533047982706
0,298595753634727
0,300593459175497
0,30636403528329
0,310097600343026
0,315003565910694
0,314776361110228
0,313248484883939
0,311734096769401
0,312875585380429
0,320502694710099
0,32042890207527
0,321549106068151
0,32499489719668
0,328237885468921
0,332293660899243
0,330894307804939
0,330026307119856
0,335826573306616
0,336654397646541
0,340851435341344
0,345570948010451
0,344503971579974
0,348586955052415
0,349261621002939
0,349628749861299
0,358182722037793
0,36200504820624
0,362809854060382
0,369056610400595
0,367965593906742
0,366241721548382
0,373426420697598
0,368645922952425
0,373057635257033
0,378606606792911
0,379026557350912
0,386097115703465
0,386258537224418
0,38451636555644
0,386423186432695
0,391611486885324
0,39791321501662
0,392073750184005
0,403617042726662
0,41118553075834
0,403704525678114
0,408365712187367
0,411783752141842
0,41431152659704
0,419215516448367
0,416848429119491
0,417380390126653
0,422148151558261
0,426395734512201
0,427246046554582
0,42957376882091
0,432947389340318
0,438486265597784
0,446275229309356
0,448739429878103
0,449011891987811
0,449858797712465
0,453521633451173
0,457919131321455
0,462793171170537
0,468376828941979
0,470249248930961
0,470772414113233
0,475532165069858
0,482037855517861
0,482893878923867
0,480222412082574
0,490494569276129
0,495218305148872
0,490596228287657
0,487075830555697
0,489661757249031
0,502448355890266
0,50845615524484
0,513481587294244
0,519416038187991
0,529879216320861
0,524737616899621
0,522632563615232
0,524115258313879
0,527978911826357
0,523319994724867
0,518743371104103
0,527735848827418
0,526643296640585
0,527297914811807
0,53955724126013
0,545077453115195
0,554094568438469
0,555368210184471
0,541008673744783
0,556978875972486
0,567528876129716
0,572388100178116
0,579572230653058
0,566385079804853
0,588865651532829
0,588586031975114
0,567952916304964
0,585434571723528
0,590000949938798
0,59283766026397
0,609726931993659
0,615825843120859
0,624356689471183
0,621985395153645
0,633881439121274
0,612745007721145
0,607952552762675
0,622444225288333
0,625819989509303
0,644432188349469
0,637633517259013
0,611041044568003
0,620962646418687
0,646014476602537
0,647921032630423
0,646335094936407
0,650484880191531
0,646360647812077
0,663587551068643
0,670047143991038
0,656209897268416
0,685815272597142
0,666911922720076
0,667878093298963
0,695084032991928
0,699283669629084
0,704592326490926
0,702172662120022
0,711899017930496
0,708758145722921
0,707877475792125
0,691101026323744
0,674725294072004
0,735091831010593
0,747260511411855
0,729132632157691
0,718607111087652
0,701027642891828
0,755213900157498
0,752056691548569
0,775788169046723
0,795395949325619
0,730228437554864
0,698175012722304
0,715000259440731
0,773441773167064
0,806829887032572
0,758400703741122
0,761036573287117
0,823295605202163
0,800776169794111
0,753414962505129
0,777787585402523
0,802568101464682
0,785895397786651
0,795463942727178
0,851223275760519
0,805083827699199
0,775232594289048
0,814147384919105
0,853791117574916
0,796641975201502
0,776627756897056
0,790373630566687
0,852972310671438
0,871283608520365
0,791916896322258
0,783550407751805
0,807861434350495
0,875543675068505
0,842547069985062
0,829862509510622
0,859348945069503
0,831959016809383
0,908910694674627
0,923538402952756
0,936667588432484
0,913447777328082
0,8366424614739
0,895207776192714
0,880430727084637
0,879458903546297
0,875365962906089
0,832138031805685
0,898482700078643
0,912424343272505
0,911418686385507
1,04958480039535
0,938921684043694
0,887182143492119
0,898455845666411
0,976865911117126
1,1537619873026
0,912734544893988
0,920195849767001
0,896813437021279
0,878906182792788
0,961403431428131
1,00593346451143
1,06943537248344
0,843710493142139
0,925019288240615
1,04702950728402
1,07996861611253
0,935387909083033
0,963358174653205
0,968911198760114
0,9620635069638
0,964534380508694
0,942272385230482
1,12644153299758
1,08098209751435
1,02238137858215
1,05364063619738
0,973241855256734
1,06880387366008
1,03461142980746
1,15995512206968
0,915625254506435
0,877429566224301
1,03472887005878
1,03561249868611
1,14756755401061
1,31389558231574
1,11590430188899
1,21141931390451
1,36946280259908
1,07476305218083
1,14992105837045
1,04978761563337
0,988297595892232
1,22604326754667
1,18461728227041
0,987363340481578
1,01915215181149
1,33034666681821
0,952690824285947
0,864849934742142
1,18439158317192
1,00843547801526
1,34423873527029
2,41439530978033
1,03138755649303
1,1569622363165
1,10469039265799
0,979438433007171
0,914950010640941
1,09072381232025
0,967268095719009
1,38146132517246
1,09089479510082
1,25621607392666
1,41495417084895
0,939214011415542
0,880631970514087
1,042851801713
0,881029256268646
1,03696883780916
1,18587718194772
5
5
1,08044289474579
1,84595722137868
1,3426872031138
1,06234820478362
1,40079058691204
1,30462495192098
5
5
1,19378703334352
1,74217092953764
1,26352092577748
5
1,50885912369067
1,28175496357828
5
5
1,37730085948841
1,37468012016918
1,94634556683985
5
5
