3596
4000,36533379555
650,420452594757
1
2
2
0,0222382539121373
0,0319713329387487
0,0169834941973983
0,0326373154101242
0,0151484908250535
0,035308081142686
0,00839534184980863
0,0266769801201398
0,0185490681224488
0,0277448366275488
0,00818580742045183
0,0219086446200889
0,0129082516336304
0,0353617677451568
0,0262610527293061
0,0337440337967863
0,0205241353885624
0,0280016952663619
0,0171802165824199
0,0368532507778009
0,0213181912956119
0,0365268741926736
0,0129125927682739
0,0228205617135292
0,0189223677982785
0,0281343364903093
0,0186359814960937
0,0345937759335258
0,0292072714262653
0,0288506887768046
0,0249813730592159
0,0417855452857314
0,0215142832963841
0,0388314259255948
0,0113199622449222
0,0307546009158062
0,0203059849763854
0,0348256395000749
0,02445803235175
0,034032629814623
0,0197027429756644
0,0385038967222484
0,0197871378397802
0,0301213343736312
0,0155985281881659
0,0302528627060853
0,0214870755871852
0,0340905073721922
0,0189534453541727
0,029177158169406
0,0169822240602246
0,042609004068378
0,0152134272363763
0,0381608894368722
0,0246125813951021
0,0293743081428253
0,0134841923376531
0,0338538897056721
0,0227042413150026
0,0390713797026837
0,0299057606716407
0,0369557009988617
0,0174077749118333
0,0322467278293415
0,0135707778744076
0,0281184231983376
0,0160163891489182
0,0303126188985454
0,0128597681368476
0,0268396049527627
0,0263227132978452
0,0309135860531511
0,0197862052639796
0,0331059452115764
0,0206509537096086
0,0362831789006878
0,0161472998114231
0,034559235122012
0,0183951113519013
0,032133129945103
0,0228258333473533
0,0371287425119221
0,0224966384396652
0,0282063875387403
0,0130989326237439
0,0258324403699694
0,0235922133112333
0,0279145909379024
0,0262986126147262
0,0275275095731127
0,0182099668886486
0,0314168829071372
0,0186465876380867
0,0286770118991045
0,0243219892819492
0,0347784173279873
0,0241390005700289
0,0261414746371325
0,0280375281317313
0,0305140678639471
0,0304446656966793
0,0169895624473229
0,0370886007704234
0,0364530630377711
0,0248333604530573
0,0406958072336106
0,00985061299071283
0,0585917624361489
0,013309581959991
0,0363826499898608
0,0196883496486028
0,0374094117678468
0,0237312594526957
0,0342837579717652
0,0219054677047236
0,0395330104243312
0,0287537613682206
0,0213568397480738
0,0155601444334289
0,0224111684373751
0,0256033254100703
0,0298391424758129
0,0319119145726245
0,0214967512208425
0,0244953866717332
0,0360193039075621
0,0223354672024124
0,0416844092709471
0,028319366519645
0,0214524692027939
0,0293878909203638
0,0263385382008682
0,0314610215159534
0,0227064845894891
0,0246595994292565
0,0319418266971545
0,0254429221831598
0,0439973751365277
0,0287656146450237
0,036503705579298
0,0150935965226388
0,0187906200550761
0,0270154518660006
0,0329255164751144
0,0347810865393128
0,0370402713954199
0,0246770630566597
0,0327928232973472
0,0309991318067212
0,0275633024642871
0,0235280369922914
0,0275816045124893
0,0252459167349029
0,0220853067273078
0,0370974347534518
0,0396267197483442
0,0507678866881052
0,0226181472949402
0,0272406629965713
0,0279355019306207
0,0266341206877744
0,0319886583911559
0,0178751286548989
0,0333302227562904
0,0114127495195292
0,0390133026864451
0,0172131768727405
0,0538864539511837
0,0182681949561908
0,0367850717016567
0,016836483094999
0,0402521643541441
0,0253281509126801
0,0266389470787825
0,0320726048624227
0,0355405749224501
0,0369881977489051
0,0321363445202121
0,0273647425106251
0,0238369716815875
0,0268719412996762
0,0367197136337422
0,020679137564144
0,032708748587251
0,0310243502217958
0,0358979346226666
0,0242631491559755
0,0279744961432826
0,0288807137817815
0,0387534309222684
0,0358364021997045
0,0239336601932968
0,0292627115404144
0,0347970156385656
0,0291033403648678
0,0446502906347409
0,0175148792006155
0,0436941739368911
0,0200637392138818
0,0359939755720664
0,0159908671153539
0,0256129698630538
0,0226772166150339
0,0273658730964518
0,0263978546106165
0,0401686527789966
0,0173902987684322
0,0298074167975581
0,0162478932745452
0,0368462296791741
0,0259129356764289
0,0537897848142061
0,011668060318213
0,0475254455363971
0,0189164901503042
0,0411248063258001
0,0310786167655371
0,0356574238339193
0,0305644894500892
0,0354696650299857
0,0240156917494648
0,0375061640701658
0,0258334081549394
0,0337937021869286
0,0210555313710971
0,0350105857515464
0,0360743941249458
0,0336018111982346
0,0284077729457143
0,0345262577397443
0,0217271432370264
0,0409708581877964
0,024446550531103
0,034530027790234
0,027918383959486
0,0411406541727588
0,0309375037972277
0,0319621953157906
0,0294465560325835
0,0379304884319366
0,0353223288400738
0,0401471055233972
0,0329346524585296
0,0310730468059352
0,0267630729400348
0,0440422536925774
0,0360049568944035
0,0443141725319971
0,0167799127932683
0,0508133570787033
0,025660475709134
0,0434115584703709
0,0203527258006945
0,0460679442460305
0,0214156169806622
0,0479817220558453
0,030386585989207
0,0481542743493418
0,0301667462000341
0,0487219847656202
0,0368147169599287
0,0362020432494388
0,0241429279366393
0,0462981349370747
0,0343444053517587
0,0452732891819504
0,042453739539844
0,0557541248573817
0,026190817453163
0,0527162857207464
0,0206842248323699
0,0581259194286242
0,0443733138068683
0,0435065180304175
0,0193466927755901
0,0421388708922294
0,0445669872815151
0,0461900513152325
0,0362695865699757
0,0412875247362427
0,0433036241206281
0,0399441231206708
0,0558320253855491
0,0711739594978107
0,0406834225926037
0,0607970146408159
0,0280351988175392
0,0639053615339984
0,0215113286906879
0,048051333846501
0,0286640677946965
0,0648576058035078
0,0364204295419766
0,0659761005124112
0,0344858066068846
0,0568241422498193
0,0447753380284109
0,0589518026385946
0,0439879767842085
0,0596517407329241
0,0446239473108333
0,0586194963480562
0,0478722869315772
0,0518667866275804
0,0529103929958008
0,0556227579045248
0,0533900184369645
0,0701048154041131
0,0516492989945775
0,0701735392143233
0,0511573700350795
0,0597133186249322
0,0522412735614437
0,0659478364838143
0,0610077678915446
0,0631304451280138
0,0534240432881115
0,0643789549606701
0,0620614624510527
0,0795817572208769
0,0711235749872098
0,0625796758004701
0,0667672474291967
0,0694993796139745
0,0647475870604129
0,0754314585190468
0,0693184898766853
0,0857473842166368
0,072096713792101
0,0984636589375324
0,0872737639622956
0,0906168737956932
0,097415778732658
0,094460298663296
0,0937010550093491
0,0909852474499621
0,090916924053996
0,0931711025761012
0,0948881502920298
0,106536060017343
0,0977201405193497
0,110185385488652
0,114293151603321
0,123398274083541
0,113740744420094
0,131297621962716
0,144483692346227
0,148652649329163
0,122395304995353
0,130698066192719
0,114267073554788
0,158252712583413
0,126681317006635
0,179320689604793
0,139266802544778
0,161146875995651
0,144772542058439
0,159820291401808
0,152725860267489
0,161409058971404
0,166054199258325
0,165139369615573
0,172678353611775
0,178984938787285
0,187914543898691
0,184196410157802
0,188936734273559
0,202573048269575
0,194934807559465
0,199046286618149
0,198101683736345
0,203675700476908
0,21728354358167
0,219456839957044
0,26246923173572
0,228428071665836
0,232004350199781
0,237160448405545
0,229171621383885
0,236730895559179
0,230603340577343
0,244213176926951
0,235667837456997
0,255240490110019
0,246279480319476
0,252859051177581
0,256178053925716
0,264797259943852
0,258411106173319
0,268827430677147
0,267703098492646
0,290099182497868
0,269228784065231
0,284456535448655
0,282978316134779
0,327122403139078
0,3073391506659
0,320241594481595
0,304018919978017
0,32059108721282
0,286921688332362
0,313860823915515
0,299801221623853
0,315670803905282
0,304256735811574
0,325400240512623
0,340472700113514
0,348419034831381
0,344596849187258
0,341494512802646
0,322796749327753
0,342113808495865
0,33855690216363
0,369204701795226
0,34406779884087
0,362275645269981
0,344045951625242
0,363052080689294
0,346606526913036
0,369482492740487
0,344282129892344
0,369355608812149
0,361564600488286
0,355487614764958
0,378240901743792
0,374799713874648
0,378824208155029
0,389027985546366
0,374391883808402
0,403749583113457
0,396379062770691
0,414257195007121
0,406180171632229
0,405784770919666
0,41138463880779
0,405287944691026
0,402877010830893
0,405147568841936
0,392790280592926
0,438986491400824
0,420343336409159
0,44719816368938
0,429098057286844
0,429898392582825
0,424947968007212
0,444337248761232
0,429886463090567
0,439890159260312
0,429514530756808
0,448211930779722
0,466044143533215
0,477261688214665
0,457721832207323
0,450577547603765
0,452654210596164
0,48021657822351
0,464295867092291
0,471528010507126
0,472118146729201
0,484965623813269
0,483710553889503
0,512565784266367
0,470983457524257
0,513460857666928
0,530620519729515
0,512962224731389
0,483599815217285
0,503360948382152
0,49530692578632
0,506734804931985
0,539135192784663
0,530686930937715
0,524362846207095
0,535908813443182
0,524532520240985
0,522894521313328
0,554444776515234
0,573109182722696
0,53746791870443
0,534546958847593
0,554841780705621
0,561817159624979
0,548385450872788
0,547498715603443
0,583093266584577
0,569028234768163
0,560929442969287
0,58268195003506
0,564893117590431
0,573040666245176
0,56313833045112
0,579943382098768
0,595345130862518
0,616581334167839
0,572628429637125
0,611351186511104
0,625333588055514
0,632465192554365
0,608407932276194
0,611927333008035
0,639796666793816
0,632339198652621
0,621584320939117
0,618875584448046
0,625192549327775
0,676598259138569
0,644878797198985
0,661714214802624
0,631258115278538
0,630167529994131
0,631798976184942
0,682080481841161
0,678643641063333
0,682741453879455
0,668583359253302
0,651211952968814
0,677294493753985
0,692271013920485
0,697217916328726
0,674905312106966
0,668948486278439
0,684438452805242
0,676791452847438
0,710517573275093
0,734668149683377
0,716905234611258
0,703460032745297
0,722906048118259
0,698349122333509
0,739998081337648
0,751690161745319
0,730597740347951
0,707451699422617
0,741705401727587
0,767090142595931
0,73376614953171
0,751872722734202
0,733556258256676
0,744457974469968
0,776963551843419
0,760806949573831
0,762852481393156
0,761911132933652
0,75964931891429
0,779652349518792
0,794313421513592
0,789296391791649
0,789939100753124
0,795509484879903
0,810969818206583
0,818306939925578
0,820673484837552
0,802166081972429
0,836800714876281
0,839989079262536
0,792873266476996
0,809694469192761
0,82187979626337
0,801299181341344
0,845097344145093
0,843542146927594
0,85109353186447
0,847911576139332
0,867100227211083
0,856961225251425
0,835557350025415
0,843613082740275
0,869088382940562
0,848845836035245
0,870730073912289
0,878637531347402
0,827215679263818
0,874181307815529
0,881866701969491
0,909248549954377
0,881882533286214
0,901427786935496
0,909977049885133
0,893812196661881
0,908921908962295
0,943818912652475
0,907201723935664
0,883510848380268
0,952223921082698
0,960285743601026
0,905459280552774
0,912358169025804
0,948165939658861
0,952321076533906
0,968126084299142
0,982016271486473
0,935578340158944
1,01013366037243
0,97526854142727
0,97441093319324
0,976064256526475
0,988860563458002
0,962764409824603
0,933336304388879
0,984935271917235
1,01850528185162
0,985366332254295
0,995324487762684
1,03849654079662
0,976533997202351
0,9480427996123
1,0584789035019
0,993212804978325
0,978311503259667
1,02666570686251
1,01728542401437
1,06161256038767
0,993469721937954
1,02292830122406
1,07319907759384
1,02829876382592
1,05497043887511
1,0680476695871
1,09033665780928
1,05370814199357
1,13725176027321
1,03661572314455
1,08658270423025
1,05173698038778
1,13682290800567
1,10158779808664
1,0556919434354
1,03754857280701
1,10141382286907
1,11086634248085
1,0804174715648
1,07317587212461
1,12253581390215
1,10022316726613
1,09709748235204
1,1057733135239
1,09616313731346
1,13377599639799
1,14216775300533
1,08314993830714
1,11235885320925
1,08592955841346
1,10288741531426
1,07728939728032
1,1586998478718
1,14985899371798
1,19440408895631
1,16040565285009
1,16390737754674
1,12492385834084
1,17420442672632
1,14878292693989
1,17124998535102
1,19111194257905
1,20953969574499
1,18975389477275
1,18728712909343
1,17604890320209
1,21117255804577
1,13194967061602
1,1482435021148
1,18069511653044
1,24658868676974
1,14790876970359
1,13094539548494
1,24930216902977
1,25192339152524
1,11962441183144
1,2463363924419
1,17981173943292
1,22400846486223
1,25784455823702
1,16221147172873
1,13871780116573
1,11473312929722
1,11905335472785
1,20248370080775
1,24533923192993
1,26077565225645
1,2015613219633
1,25725275866872
1,23854871657413
1,22146149476369
1,20685140879541
1,25814969391615
1,24831245810709
1,33513621083802
1,2323223645163
1,25538763370467
1,21294742590863
1,20789231502911
1,27905877855781
1,25080122812169
1,18420930505464
1,18304401703962
1,16138117580157
1,23515659865254
1,16860019664142
1,22634239855282
1,15767090788992
1,23989371536766
1,2395354556037
1,27851879289139
1,27748973077461
1,30260504382509
1,21815612277349
1,20271626555834
1,17856790348928
1,18973821036873
1,19196859136543
1,23612009197625
1,23746755357989
1,25377457982019
1,25403089943971
1,20136664784257
1,18332349536791
1,22683490639808
1,34819287925795
1,28941184979846
1,25359081695348
1,28937805894319
1,19626865167637
1,31515625944767
1,22969623792571
1,21379999562792
1,19954083404499
1,27253783844977
1,20195856297626
1,21887377523902
1,24559141109133
1,25861539565018
1,21797604531304
1,26069582385346
1,25906901824568
1,27107412614187
1,19785303564112
1,23114295786298
1,14975028506161
1,2305805692461
1,2926577490912
1,21662616183355
1,22838248330471
1,26070905038831
1,14718488904928
1,23935159300715
1,18922880500128
1,20188248140209
1,20020392706248
1,27893284952364
1,3049894753535
1,26627808099548
1,1732645084252
1,19265342506074
1,22647507141554
1,27440317375451
1,18151271648678
1,2389803716405
1,19237348018825
1,19977752518936
1,16837702911335
1,26008626393959
1,19441542448773
1,19500277766264
1,1997412295883
1,26195693323126
1,23333403634247
1,22911462497657
1,22003290154162
1,28264055426564
1,22143876076084
1,2403297830474
1,18177525705712
1,21702797081024
1,19665528018447
1,20962409688462
1,22315561367345
1,21962217600998
1,24208323188593
1,25110198522919
1,25290930054927
1,21489520201354
1,17485874342113
1,24587284961993
1,24274463681675
1,14638387002038
1,14929704603278
1,3389484939704
1,22594683468043
1,22409941263036
1,20658297247695
1,19194302616073
1,25629042058116
1,26873161760317
1,14308401726835
1,23191862141732
1,233505679508
1,30263988330133
1,25828365930742
1,19973550587911
1,17721040250994
1,19213938369316
1,26503437293372
1,26613751818264
1,27790997100173
1,2721914418763
1,14845786950316
1,21371889576329
1,20147121177139
1,20743591899062
1,16250870813311
1,18249580395242
1,17603885716668
1,24200561604974
1,22044371009004
1,19674265654012
1,22139383307607
1,25001177320586
1,19428654842416
1,26469363968778
1,18180636646117
1,20132993664858
1,1845828051144
1,23008729499559
1,20774491964287
1,20228356020329
1,22104033493518
1,19872273180926
1,15962534600069
1,1938557974738
1,1549394688792
1,22323336879601
1,15976207281566
1,1731856893095
1,16483609175996
1,1745656289455
1,17873988098148
1,18437517058636
1,20248165679876
1,17088288790324
1,15354599378784
1,18145426646186
1,12760138739365
1,16437287013291
1,11935835844387
1,21591941570941
1,11695421880183
1,10227202525501
1,15822319647837
1,14535964414257
1,12917628807259
1,17331114578888
1,14244406500462
1,18931122081462
1,08078804502144
1,09363446717431
1,08008489694327
1,13270686354605
1,13265396490392
1,13083335171823
1,10837411028288
1,10361207723337
1,10681992915691
1,10214959520362
1,02543387042264
1,1027165475041
1,11444702950712
1,0582105421421
1,02810797948263
1,07228356638796
1,05981070822142
1,05763670937082
1,07976193194997
1,08608888657068
1,06216815120462
1,04858008387939
1,07270614435457
1,09914687620855
0,989100866216528
1,05472574519756
1,04815928752308
1,06875890134964
1,00279756978976
1,01900582812923
1,01341856016957
1,02144637280728
0,988737956986153
0,999317067550476
0,982597567028604
1,0092832591801
0,983284296642914
1,00564839231086
0,998123443357757
1,00413264226234
0,962310193588376
0,944932478899374
0,9310440216319
0,986426378921211
0,945878445335829
0,968512252510515
0,936748035142639
0,90945047135156
0,93688832445945
0,964543076627164
0,91367961853439
0,932751521205346
0,891619480168461
0,913596679913968
0,880101953233839
0,875532368454255
0,887053150126529
0,879367076488599
0,888920568947194
0,875645054277998
0,865626284190591
0,871326902695211
0,86194366610992
0,873085369258398
0,827644952189713
0,845165354816554
0,844356876693323
0,839137927689598
0,815714129704281
0,825067957854544
0,802948772978246
0,804461174761793
0,793027844270715
0,827332839306088
0,820384307482052
0,80560799628688
0,795115992702403
0,790198997016275
0,765117589147046
0,764194620322457
0,770096945691646
0,768532123932202
0,765651915441827
0,76817472235137
0,738836263726024
0,758663261495709
0,724190453529234
0,738060987793889
0,732274273194009
0,752723667192448
0,728611189430774
0,732201669893166
0,712698481845416
0,718523050509886
0,705050596527172
0,706933540611899
0,685610365513645
0,697979604946089
0,685850848455079
0,677962735107927
0,674365992711121
0,688475038915817
0,664618545326072
0,673042196079097
0,664313610835355
0,672908724336522
0,642235819274107
0,651731599543022
0,642976256876692
0,638394151379697
0,637901368871429
0,6382130925743
0,615289363494161
0,62959034721388
0,622829154157077
0,63025682565474
0,61749645332942
0,613404332232904
0,60103739682271
0,617321259966032
0,593309823119308
0,601022669069746
0,58546607575762
0,589014745481901
0,57555280358807
0,577178114317658
0,573628364946283
0,574537340081393
0,569220460059083
0,573079786066728
0,555695004188724
0,557356170543907
0,539934059785815
0,554360927820057
0,552083268823766
0,551587539360503
0,53472260315606
0,53163196672973
0,535243094047558
0,528242199730522
0,514759507695812
0,522390637791175
0,518123634098172
0,519651816062781
0,506323553795838
0,500813769771957
0,494941729808181
0,502105131236179
0,485387234626791
0,506088234799524
0,492499005462423
0,47252440590078
0,478117234090652
0,483526494188363
0,471521689231447
0,472604036137234
0,45946337199703
0,458012127186786
0,457569254474618
0,452581909150254
0,460563119928511
0,459461289048208
0,44729130750907
0,452951551141604
0,441809395817265
0,442993473545873
0,43941254994714
0,442983040629818
0,423290023503092
0,425544690558781
0,414907350055842
0,421135120269574
0,418662896174525
0,410535154569866
0,419570941161598
0,414114115785635
0,405048278244316
0,399730736715201
0,398163843878187
0,395442394199051
0,390765173660453
0,393017529233447
0,392027163713215
0,390242746790929
0,383190455725218
0,385696162440564
0,369057140380473
0,385138489435966
0,368633977127529
0,368844348102969
0,363419403848093
0,375580184805835
0,358050759038068
0,36389306580102
0,368479682567468
0,359067060683843
0,350524730892626
0,353610191105149
0,349021697359729
0,348015140812983
0,339728914928616
0,336934096931118
0,340706417641206
0,341928960191471
0,326765726255978
0,338305823383335
0,330892038598401
0,329819200623581
0,326118665654082
0,322391861031331
0,321868093197087
0,328132340647708
0,315649252974746
0,315824271691566
0,315525091718545
0,311561204744096
0,306235052480908
0,30241931024308
0,300748988440233
0,307763139026051
0,304138056565279
0,298266772452807
0,287914708073271
0,29122631840945
0,285717930328395
0,291766257052575
0,284779384670982
0,28317730820241
0,279737694815052
0,286643193239157
0,272615141475864
0,282314279339753
0,274161297487543
0,274201275695875
0,273693863389055
0,275580316035633
0,266176754620918
0,261182759116668
0,262275325799595
0,262344595251844
0,256314628080941
0,26082219764136
0,255908874372258
0,263631111639048
0,256514691505156
0,256732823098146
0,249357587947115
0,251619274493502
0,251697664834685
0,247911727015853
0,240225870021518
0,236432741150201
0,244784011038256
0,242821360981316
0,233810939998751
0,235833666087264
0,237545036386531
0,236502797827852
0,233729065164533
0,232896413469647
0,22330981278264
0,228341710923947
0,22513001162299
0,229293525360964
0,233908261384001
0,232100505870066
0,214978904306218
0,216921498483545
0,220019445241751
0,221293749317724
0,213265193054976
0,223163707710367
0,211098449062692
0,214114806180496
0,211673380880179
0,210854573416242
0,206833215332038
0,206795481108704
0,207465564751161
0,205586031892981
0,20608361328458
0,206228304679253
0,200198821570159
0,205396901444962
0,196580464944229
0,194059588343349
0,189657795886518
0,194578089803816
0,191326334848127
0,198877300353428
0,191972394757668
0,191462078076117
0,190592258384136
0,193285409075351
0,183756731631617
0,188828983921099
0,180387070105931
0,185075928774591
0,181446348482593
0,181889339203865
0,175835426697073
0,176905684865877
0,1762468758264
0,180431559514539
0,173409350860508
0,180293095405256
0,172037593988692
0,173001434582004
0,167749805327201
0,167739766308673
0,167272663061022
0,1679435433387
0,164379767462435
0,171500153617973
0,165487169791015
0,17026472445834
0,164735011778734
0,167228880738434
0,160422403333495
0,166307177263857
0,157212612695003
0,162843411667731
0,153751406230351
0,162086159691078
0,151713754522269
0,15497516505123
0,150667693068134
0,155842052427545
0,152042139431542
0,154724652064042
0,146247086463907
0,150690184737597
0,148197362387247
0,155282697494948
0,145335794787493
0,150703822796693
0,142984671903102
0,149198742535911
0,140226614702789
0,147626739417945
0,145606001384345
0,142650707078537
0,141096637740944
0,143099483144506
0,13886166364885
0,140393926082012
0,143631667700276
0,140409176898046
0,139640831876679
0,138646725621336
0,134237513134718
0,135212478770786
0,12741518017016
0,134470428646063
0,130207614561092
0,135059645996073
0,129913593589045
0,133320977095194
0,12980751050873
0,132324157176369
0,131489719109223
0,128006647484795
0,125229329717038
0,130249554892857
0,120149734223937
0,126998160439957
0,119926043150435
0,122775310592229
0,118635229870506
0,125126205316319
0,115365574429242
0,121764317106481
0,118597435353856
0,121626729989356
0,123022533734395
0,119418861189855
0,113987183689053
0,116897629952716
0,112231830623639
0,118572858996445
0,114920645500208
0,113407968051285
0,110962032351667
0,113214336346493
0,112150289938986
0,110174976676217
0,107796005667757
0,112821528808664
0,107738525716079
0,112648878264502
0,103834389042878
0,110907387463453
0,107476068494234
0,107139315926992
0,103614914718738
0,107453046195057
0,103629242117209
0,106732310150174
0,100031928656592
0,10184017467814
0,100198651959415
0,104275938772342
0,0993590123395948
0,103826214235917
0,102221036956748
0,101073377396497
0,0987501353412026
0,1000082024334
0,0993619251740175
0,0991819250673623
0,0960269721073992
0,101605638183299
0,0968321756044739
0,0980640578296423
0,100291381351845
0,0987187521351275
0,0926793811815503
0,0991016811746731
0,0965222706452552
0,0982970927492713
0,0918584002060931
0,0979035448376478
0,0905345292634095
0,0912503995608538
0,0922784011086323
0,0945434908747263
0,0926996880169337
0,0915725917400436
0,0880822337998095
0,0910254821183738
0,0886910471838529
0,0879805945164231
0,0876809591484323
0,091773593488395
0,0874646663562092
0,0907909494939334
0,0856002287071995
0,0869643971333731
0,0856105101058693
0,0901118290359276
0,0890901314159624
0,0881491058180282
0,0837863759973179
0,0889969663499906
0,0850061064472991
0,0884650743497022
0,0859638807987081
0,0865030377845603
0,0830666219938567
0,084885904102231
0,0821602825893563
0,084253671438695
0,080330744374171
0,0808630193296967
0,0789419541920462
0,0877233490917347
0,083724516096207
0,0790501303076717
0,0769167355522102
0,0829535996626182
0,0797821259747741
0,0812159926372154
0,0779935188232534
0,0821013040006941
0,08074235627648
0,0782499779105207
0,0760616970284771
0,0769250390089265
0,0741388039643561
0,0787086934168307
0,0763516913514802
0,0801044344040789
0,0786870502052916
0,0800671405275181
0,0757743046751098
0,0795251989190874
0,0761375133976838
0,0799547858380872
0,071281935018249
0,0761022038624108
0,0750308967834962
0,0789623871729628
0,0726481798189771
0,0762552012810789
0,071915081643419
0,0745589074023237
0,0699550961621242
0,0763152903141899
0,0704203121417558
0,0770312089076012
0,0748013966531252
0,0744864847308582
0,0700290351234926
0,0734961109997846
0,0704411632624654
0,075536359632044
0,0712179719212557
0,074209046835303
0,0683860322165903
0,0720943362767001
0,0715479043747687
0,0703625326587983
0,0695036489827825
0,0693154100084643
0,0716383972248214
0,0680977208147995
0,0669682299186248
0,0709243625980378
0,0703483516158144
0,0717230970846952
0,0722478058037545
0,0734808679387876
0,0704686247478891
0,0704137106831998
0,0688042619910954
0,070296804263768
0,0672206188832496
0,0698996009609116
0,0635689676418041
0,0692268682177292
0,0617837767351566
0,0711178305711316
0,0680991087860848
0,0699150429818315
0,0666052612483746
0,0694884162383564
0,0667289804510105
0,0677829783383572
0,0651948156176174
0,0691841624340092
0,0650075332079712
0,0644409497177522
0,0640308355202468
0,0709702452201823
0,0635653273344617
0,0699059900450517
0,0655916743489933
0,0684552269238813
0,0647693817192741
0,0666145259684095
0,0661056290543386
0,0653334122062914
0,0624079255151816
0,0643239266822511
0,0612191287959416
0,0659226917430239
0,0628990324104423
0,0644578076913176
0,0641662946460075
0,0641039444760684
0,0597285649701557
0,0647330659725714
0,0645148443336979
0,0668223306770201
0,0633826616087075
0,0651396689570195
0,0619466118152762
0,0617654558190046
0,0569066717001423
0,0659653779987279
0,060505787431307
0,0635338787926867
0,0612145978287851
0,0658601945326882
0,0622295506452429
0,066809160738618
0,0620402344663439
0,0608851632757011
0,0624140599537414
0,0615970710326867
0,0590932724318406
0,0609119941525937
0,059128197985524
0,0616136579356743
0,0594348176969175
0,0636096211789919
0,0599181569905377
0,0608036529275878
0,0599948580384631
0,0647247427188674
0,0593469754306475
0,062738455281477
0,0614590420151692
0,0622120789679253
0,0582734818162589
0,0594543169798027
0,059548879823407
0,0592690595212018
0,0628017794809275
0,0602613546916161
0,0588108507784689
0,062020703567154
0,0594701113751748
0,0614194845137273
0,0578664910328375
0,0587278649965431
0,0585402217288116
0,0600658479176857
0,0582838469874477
0,0607624289634372
0,0559752709112402
0,0593115971911106
0,057384489102709
0,0593725471412047
0,0595244207302002
0,0581625358180633
0,058593773170929
0,0594511535566923
0,0558198815978318
0,0604519579400787
0,0543509544537737
0,0608215363148028
0,0552739482524837
0,061476962777832
0,059138947202627
0,058702245791335
0,0545667225510116
0,0577251873665271
0,0593673477289805
0,0618744911912559
0,0573971213763766
0,0564285775270234
0,0564288827214516
0,0573893606098832
0,0550489375246939
0,0580587925491347
0,0547665657667239
0,0576599076531295
0,0541281190618063
0,0576758646860742
0,0567277133250267
0,0605846568112
0,0590073207225313
0,0588162666827067
0,0570161032246055
0,0573471740241554
0,0555302873572627
0,0574738918597908
0,0552971362341508
0,0607897316302712
0,0578930200761517
0,0594857330269367
0,0550191882951975
0,0618656148853466
0,0597969416797253
0,0591660404984054
0,0581539685456023
0,0600414998112066
0,0549201802825201
0,060297505268281
0,0573683710757871
0,059736632810799
0,0537472172676967
0,056442899710446
0,0553877025126626
0,0582011228152984
0,0549097322189234
0,0608413038381885
0,058900128179096
0,0570454564875449
0,0559894120952837
0,059774800054872
0,0566596921030658
0,0601287199428699
0,0531205639279771
0,0574466974425378
0,0573974232186928
0,0562307810196964
0,0552793143927781
0,0563300964153545
0,0576747992727785
0,0601784531426168
0,0576736615554983
0,0557960257876175
0,0573856300344481
0,0587760317834287
0,057159085297305
0,0586406966592943
0,0565329966210789
0,0594442454415543
0,0531447099998594
0,0591455827303671
0,056821697625123
0,0574829011045435
0,056129031845252
0,0606509770267316
0,0583258285346503
0,0596319326107982
0,0550690161595851
0,058581544818658
0,057627492485738
0,0591070863622861
0,0555747387620994
0,0584733614287586
0,0555989931775432
0,0602176695906478
0,0570275666313012
0,0617334002330639
0,056298290302373
0,0569488136901674
0,0547318306871566
0,0590440162485938
0,0571554572788504
0,0605078558780514
0,0593862171409825
0,059700736790057
0,0570670505021804
0,0600310992983473
0,0577913863997276
0,0588575747911776
0,0559661780315176
0,0599448331543353
0,0555710059579815
0,0583429182335511
0,0573732760982337
0,0586112736626634
0,0561348021943294
0,0600515267280426
0,0587449049501856
0,0599249062910625
0,0596436414369924
0,0606533019996237
0,0574271371333369
0,0580897700961584
0,0566038612624062
0,0608097181439412
0,0576154915820168
0,0571529878285546
0,061130963974776
0,0600667771757318
0,0575083573889931
0,0598503492947643
0,0598220171134431
0,0616693511040769
0,0587741651917812
0,0601262135647107
0,0580609181526056
0,0601342997558634
0,0593232161775074
0,0586477790768541
0,0565880746728847
0,0616476686980392
0,058067484858732
0,0589040355694511
0,0576384055250463
0,0578774355147862
0,0567391441110663
0,0619412867354313
0,0591189681309163
0,0591306519928229
0,0616865048863686
0,0634818682124066
0,0600770280132759
0,0622702511586279
0,0571395230040583
0,0634543843635583
0,0617163038461352
0,0618126007153437
0,0588968117671927
0,061860244483172
0,0596829116634379
0,062723706520139
0,0606209460600596
0,0637818303136862
0,059128958829587
0,0610219294723164
0,0588495259138104
0,0621148433010189
0,0594056714373588
0,0618260250832116
0,0564444181269236
0,0620504669371862
0,0604594569393772
0,0623777176075299
0,0592275541367029
0,0624991148770209
0,0592545117113368
0,0626936863474626
0,0618842008925882
0,0637248004092486
0,0616209102566246
0,0624321808782376
0,0615484825359308
0,0608893369628512
0,0598311197062642
0,0626066642477998
0,0601714326735155
0,063442863537475
0,0605973458042769
0,0624335575568173
0,0602916624200887
0,0623849919393445
0,0616604324059162
0,0638038867923979
0,06309868636956
0,0631008983691064
0,0628321619513234
0,0632077455477308
0,0602524737749855
0,0629767474466628
0,0622624637847511
0,0614694042290305
0,0629697941255815
0,0656837042752184
0,0650427096247188
0,0656244570748264
0,0616505149600107
0,0646697316911996
0,0618501937739104
0,0654424990506252
0,0646087474531336
0,0639550551531686
0,0632654160880306
0,063787498377824
0,0628786712633616
0,0644604564466227
0,0643936775566653
0,0644341312461096
0,0652614029848533
0,0672300054876755
0,0642741897447901
0,0649836607728861
0,0643925378227267
0,0638169124856666
0,0652483162890998
0,0637983707244269
0,0627803744591075
0,0649350679566913
0,0631248995511202
0,067620143051058
0,0646464127204696
0,065668494852043
0,0652162605668295
0,0658631893805829
0,0659688117028436
0,0656443424698827
0,0656648355074063
0,0670385107212133
0,062827854074867
0,0668219811124055
0,0668459286090027
0,0669883516650955
0,068969657215487
0,0670325588358703
0,062919601610601
0,0695929005291484
0,0668742948384704
0,0647038899489958
0,0675032277998657
0,0673341424269037
0,0648104399190273
0,0643353235476923
0,0664501357899774
0,0678069272358234
0,069255909688338
0,069596739674775
0,0673992474771538
0,0669467247102379
0,0657656830142228
0,0692057079215292
0,0684880525991518
0,0681254625264133
0,0679285614945184
0,0699827315942221
0,0684034672000285
0,066904982929937
0,0672889623377596
0,0682905377087015
0,0659089761382217
0,0697572824262993
0,0685916597909523
0,0684518274464442
0,0693469430609502
0,0690394553454871
0,0702008006710888
0,0705837054374939
0,0700795282658701
0,0697630907671185
0,068131866712701
0,0707918056494851
0,0700922852094951
0,070638639191797
0,0698850539724055
0,0684582896815393
0,0730368776039739
0,0731438195182789
0,0722004777146945
0,0712166917051291
0,0721539711620802
0,0722228985350547
0,0761277826193599
0,0763729392655097
0,0728161190593432
0,0763864507483065
0,0734036762774846
0,0708861554350071
0,0703319984912377
0,069086573667475
0,0733023946711587
0,0784610717094389
0,0773088900678084
0,0720664073174365
0,0726559826115058
0,0707893202980832
0,0754045663878307
0,0702946590841836
0,0741265878363738
0,0727522689372585
0,0772004082414639
0,0747214806990361
0,0692779071700461
0,0718902656572659
0,0703004377575654
0,0736232674503845
0,0778713230714552
0,0743632321214386
0,0814101923994767
0,0741476252314402
0,0760618402027441
0,0725318346873809
0,0870581329282556
0,0746437082194976
0,082750171659586
0,0765927942358103
0,0805361178989767
0,0765634404971566
0,0863710955643958
0,0769215422584014
0,0782798797386716
0,0750922879222445
0,0820338375638266
0,0746113509245651
0,077912176926106
0,072047447033625
0,0696574020100979
0,0760869582286555
0,0787662628598715
0,0882520983360706
0,0749160444925696
0,0885987060135495
0,0636712081471099
0,0863010472662897
0,0700663630987668
0,101463414084154
0,0621139614095714
0,0966512689639469
0,0515051298352974
0,107892845895568
0,0472849884000149
0,105094462264348
0,0522582813701218
0,116535239849676
0,0473660296889995
0,107283921995632
0,0589025429141635
0,106752131560885
0,0630136843204663
0,0962652353012264
0,0737987052467927
0,0871166531583498
0,0818244520779226
0,0834880918472063
0,0834227054710908
0,0803542057609421
0,0816709355189082
0,0804641870029763
0,0795122656168162
0,0866635073719428
0,0800179387987994
0,0858014720729807
0,0769416659874742
0,0879188927400575
0,0805166848824114
0,0894274655655763
0,0822365795516549
0,0869641357022387
0,0789137395587447
0,0841405590733038
0,0804697397972567
0,0868569200091829
0,0808835832155939
0,0855407638209535
0,0830717220322523
0,0872336732474775
0,0832446732799641
0,088381973136497
0,0821481940710418
0,0878378914342454
0,0839517889701695
0,0882530557131268
0,0827823757480189
0,087166517191834
0,0857925745700832
0,0883859672930836
0,0847301519994629
0,0892372940056768
0,0852203033004758
0,0884596862820947
0,0833183223791679
0,0897655310562516
0,0857992296005168
0,0902195066820892
0,0875601125230274
0,0904943381065837
0,0874453925810329
0,0910658752846669
0,0871552820527462
0,0910037050108813
0,0869487828271803
0,0922668227766981
0,0871986430212522
0,090470972330464
0,0891953688923249
0,0926162949819905
0,0874787737187453
0,0924169176905817
0,0880239721118484
0,0943401349579755
0,0901750503000875
0,0930166075223357
0,0894175251107451
0,0937712119343549
0,0918090827100256
0,093745951124687
0,0894737042626636
0,095287843343305
0,0923723797398709
0,0913014134425493
0,0930703403508143
0,0957352125014707
0,0898731007272123
0,0927935129908855
0,0936216777395809
0,0977214505648118
0,0949272040768466
0,0987537045274997
0,0932590392245636
0,0980944797681165
0,092635858803017
0,0971872720706657
0,0952982455875891
0,0953833760265831
0,094312398569516
0,0990463454830248
0,0962204800823615
0,0957905528219604
0,0934855734417457
0,0977806018570884
0,0969964819837497
0,0997627637512342
0,0963718427879833
0,0975813428506864
0,0976246236775616
0,101097021302931
0,0997514835356709
0,100420197034621
0,0984537555128064
0,102284964452549
0,100277336818715
0,0996511009243547
0,0988177588370574
0,102515287899093
0,0996225255132147
0,103339936296124
0,100893199412487
0,0998924845202395
0,103167226713453
0,102274785384419
0,10217065848451
0,104667702453507
0,100947876171406
0,103536155440453
0,101999500657733
0,1042485280548
0,10152934599081
0,106218352227834
0,103554142336948
0,105232835987497
0,104199938793992
0,105798511873304
0,102784497916924
0,106051138037547
0,106407193691461
0,105322327569197
0,102872646006775
0,10517804800364
0,105388986891746
0,107451225257671
0,10439034480283
0,107290578097786
0,105803352371139
0,109019273658445
0,105723685241026
0,109000279471852
0,106455855421468
0,109013980137772
0,107486581774124
0,106986467055526
0,106757143480045
0,111694168278653
0,107490399601855
0,106467510541625
0,107404590047212
0,110498485930064
0,108945615568644
0,110299783772247
0,109027108079361
0,112761124044767
0,109785323066519
0,109676099030791
0,110975870139084
0,111311086996254
0,107164688517208
0,112915443939756
0,10983370756271
0,111691403972305
0,108720200576504
0,114364280024966
0,109938594615227
0,112905033749458
0,111632687309776
0,111207919996723
0,111608319907059
0,112531873970673
0,11042715640716
0,112191454054958
0,112811855745955
0,113297251602786
0,112284997964094
0,112663676363978
0,113908647339383
0,11636498928471
0,113527488838376
0,11474074253953
0,112914014456234
0,116192262961184
0,11367890346241
0,11746778611341
0,114656157248729
0,116418384600562
0,113995820231778
0,114719804998986
0,113606523812214
0,117313622719296
0,115267197637119
0,116375664347539
0,116301087968572
0,116639473873385
0,116315645894881
0,114814951528173
0,112077264969879
0,11773984160558
0,116222096582424
0,114841628593526
0,115271183676093
0,115731196177407
0,113804468809613
0,116516722891892
0,116889784085701
0,117146266070766
0,113669475705075
0,116678501041946
0,113947483939756
0,117648692830725
0,115060999615392
0,116310089550142
0,114974981800947
0,11762629257367
0,11528795938329
0,115842605865868
0,112299678059921
0,116104786343878
0,113596270084551
0,115018115336772
0,113783114776518
0,117300693162236
0,115237922922009
0,111927447007068
0,112227756116589
0,116753067918715
0,11165714041714
0,115372925943446
0,116708159443572
0,11725714752235
0,114042587100552
0,118088655377753
0,11654713996105
0,114114908537274
0,114143022291762
0,115083646737689
0,113978965093973
0,114507031522474
0,115787464745227
0,113227037266719
0,112667526651583
0,116408769260813
0,115365864903323
0,116326092650975
0,113196308774954
0,1143908055355
0,115555466416772
0,115099227664549
0,113021396775735
0,113299007049966
0,113446737400074
0,113825065345473
0,111572322838806
0,115650178468961
0,111469040639261
0,112832191168508
0,113115186780355
0,11133943714568
0,1116169844675
0,112792468714195
0,111698121698025
0,111284247271869
0,110021722492916
0,112371177519056
0,109693584581124
0,11154262345763
0,110260155776906
0,111901075781714
0,110333772753463
0,11175065007106
0,111340780189048
0,112185498041669
0,109022509742456
0,111635747356733
0,109131787226072
0,109567442206345
0,107045248061744
0,108217007974005
0,107798153706597
0,109165197718334
0,106596664144288
0,109205871070069
0,108310749600056
0,109668182647618
0,108542407512364
0,109467982611343
0,108185638172368
0,106506283553322
0,106452246822042
0,11074520707732
0,105536635646641
0,10769380281167
0,106520061309358
0,109233599631114
0,105799252632327
0,104526413812342
0,105423182832393
0,106524698814271
0,105669807858312
0,105730376860691
0,102841781333966
0,105409362353742
0,105920860356383
0,105433106114469
0,104525213359349
0,102362768009707
0,100489271071121
0,103677325486376
0,10142663442992
0,101714769699262
0,100895092027263
0,102129531448449
0,0985053863267045
0,0998980705748259
0,101569255131257
0,101866607498717
0,101618834022835
0,099886437554947
0,0996658653494259
0,100821427343303
0,10143251366181
0,097083572493564
0,0995510860201361
0,0983173814160187
0,100337139099641
0,0997586318852317
0,0964631676622942
0,0984645745322879
0,0996182750477878
0,0955561439626025
0,094868787077929
0,0977250915201897
0,0958756847517696
0,0980680649398208
0,0964814499426537
0,0936862670175354
0,0958761684690084
0,0948519806773789
0,0959519622295986
0,0960090875345115
0,0945730005062392
0,0947181327614875
0,094950987811021
0,0929892514368104
0,093947877224771
0,0921914562766031
0,0948510030915837
0,0983843119827236
0,0947457987166259
0,0928064053054181
0,0903637731447435
0,0936454007667514
0,090969357185613
0,0923388633906764
0,0898331961659634
0,0926050236316177
0,0882525392241081
0,0916746843813247
0,0909704782901927
0,0925014886594468
0,0887456629733736
0,0887023663544251
0,0886638746344341
0,0897524775246025
0,0900065473540021
0,0897532861384626
0,0866140283753223
0,0893644414991612
0,088216917556917
0,0883858750299727
0,0852775440566866
0,0896811821708554
0,0869359780321143
0,0909360439527858
0,0871021131089836
0,0890952699455586
0,0823667210792986
0,0888222037768641
0,0849916904373822
0,085874599654896
0,0840097263463505
0,0867067192465341
0,0834464538744338
0,0862867682381312
0,0852396442677266
0,0839142680037413
0,0816129125698661
0,0873435714786341
0,083846532414569
0,0843745106816343
0,0802423576738649
0,0843213228410873
0,0842407350174054
0,0844499624884139
0,0825724471565676
0,0843355139962803
0,0822873572324768
0,0854098137140751
0,0783370621475598
0,0814911583228449
0,0905075184651694
0,0797325304738906
0,0833439121433366
0,078082469020631
0,0824542501960868
0,0807960788607903
0,0822490552174202
0,0794266917835035
0,0834479076250481
0,0775375998299782
0,0787091953064298
0,0764645933573839
0,0796423779506577
0,0792246721715146
0,0807444059426876
0,077783516004923
0,0800280505070815
0,0786186624722438
0,078371321654626
0,0774638783419795
0,081264965071845
0,0800945296977797
0,0804999570241898
0,0776825624004415
0,0788006613727034
0,0731297683875534
0,0903604259912813
0,0747718718910672
0,0827779447945109
0,0767983045067187
0,079099891455903
0,0765942161488374
0,0775664708108379
0,0755012543624497
0,07672669690655
0,0796647897582168
0,0742839651678166
0,081508472367585
0,0734940584304351
0,0786930867655978
0,0737209148832107
0,0782603961673326
0,0757850517809366
0,0774328780914656
0,0749292191970369
0,0756208593830707
0,0738069546941785
0,0740152972147151
0,0747280613534006
0,0731419137012518
0,0765905645798325
0,0789146490958135
0,0735649908617833
0,074714070561948
0,0753273234258784
0,073549403075557
0,0739185113240519
0,0820881795506752
0,0690989556513654
0,0801712259383352
0,0677826201002814
0,0774788419036423
0,0721262016637236
0,0742311660543843
0,0730888862617215
0,0746582128202433
0,0720490252192233
0,0747758248225794
0,071725199345573
0,0746091269977095
0,0731613336322107
0,0745094286521609
0,0751463223056317
0,0741335648106861
0,0749655058810699
0,0720021591509157
0,0744001212751945
0,0707849419994991
0,0806681818930663
0,0799665295295388
0,0738349720679662
0,0830007255621703
0,0711208213256988
0,0727815937426947
0,072797903419679
0,0742027099565541
0,0718623008192872
0,0787045075417121
0,0709896488692018
0,0765349012550974
0,0695397767441784
0,07505316244145
0,070464744368783
0,0764796801986461
0,0689676254600454
0,0778572941920718
0,0678015479417672
0,0768720767505195
0,0666861558192864
0,0790656769933934
0,0668865169179641
0,0813136463770891
0,0713205837957863
0,0828371574971536
0,0663463773291418
0,0858140186852744
0,0770056772407107
0,0734275017714677
0,0813409684492987
0,0694278633680499
0,0788706577816626
0,0725165086441942
0,0758939581454398
0,0742099204148654
0,076893935123169
0,0739688473674274
0,0756662942084448
0,0731684798107036
0,0745547949625965
0,0732236831871166
0,0782588505578739
0,0902302765198457
0,0780697700837461
0,0822157793335315
0,0740821612279668
0,0759428252484834
0,0919092801216651
0,0722774072844627
0,0817101683664229
0,0743116992731515
0,0783292776722894
0,0753824257595451
0,0775838350026778
0,0752179721823163
0,0761403507290096
0,0795001020041027
0,078451121877412
0,0810314480472597
0,0748226259167243
0,0799719087652088
0,0749261052845014
0,0809512019002368
0,0813567298561683
0,0804994442534346
0,0849029975244222
0,0799409576031677
0,0822681640051002
0,0800941641594393
0,0777132959337759
0,079426096020241
0,0810807650689649
0,0885177333220971
0,0812123917947421
0,0887405583956473
0,081680718295278
0,0819896201579991
0,0844872542536513
0,0823715769196667
0,0869592213900767
0,0810428572688507
0,083121448637239
0,103157385449647
0,0770542168470743
0,10798088023524
0,0727448909480517
0,0952326586770485
0,0765125918656811
0,0967391889827012
0,0753280536794767
0,10471866518339
0,0844799271383343
0,095415315589744
0,0807686927781233
0,0931090762218667
0,0947516345818165
0,0895451028483973
0,0915979419171522
0,0923216061186776
0,0885817467070055
0,0930183168684884
0,0996226414994531
0,0876748986755301
0,107855566720942
0,0918890556489319
0,109700919506951
0,104186340205887
0,0903643473667966
0,109514446173399
0,0840866697384879
0,104281757465392
0,0955955157935791
0,0993808754055826
0,0998228635687863
0,0985838793512039
0,118770744294939
0,106798829050501
0,102021506057082
0,107995361765802
0,0984728515032153
0,117169174475112
0,107551397665399
0,110172978178242
0,104844288588766
0,111423923283751
0,103042302906132
0,126490775792116
0,117350462005835
0,114008636503804
0,13475452326039
0,108024647790169
0,132377600553003
0,116122121223392
0,126347113573742
0,115804346230454
0,134982242043753
0,124377600114644
0,127235313429902
0,122821361043418
0,14794958554035
0,1211287740681
0,144152238783844
0,125891030122876
0,137768042337536
0,136999533869477
0,155741729538164
0,140349222883463
0,151442085221782
0,140632954339078
0,152726333802388
0,143059957688296
0,153682472404989
0,148885168837983
0,153062821609201
0,15293996453145
0,152949173859585
0,162221899185194
0,161312720237763
0,162878706969639
0,167453476105966
0,163935959926347
0,181469048959835
0,176371433547582
0,209930383184363
0,166421920244963
0,20293159447683
0,171558709271877
0,19793546519137
0,194878925931693
0,195873344833803
0,200926128974222
0,202389803648654
0,20687814006503
0,204895725105962
0,22011901667232
0,224793980838609
0,215317503252507
0,250839086946593
0,214448634645344
0,246283717145454
0,225559570099742
0,293252291014536
0,217124810369261
0,266980020503187
0,253266456891406
0,259850187885643
0,297290020212773
0,254608121601355
0,284019281726523
0,274945286684027
0,284817499955736
0,288263033388168
0,30182912386196
0,306917968983968
0,310992941962131
0,323535477160378
0,315531066744965
0,323311215923958
0,343166530871227
0,364529993918429
0,361738580147463
0,338078916352367
0,361041908949927
0,360343014657448
0,366039801660086
0,369604293493306
0,377869075252306
0,37852527190614
0,422931463944957
0,385254121556092
0,410790372055891
0,390779371585075
0,432667678410503
0,410385049614373
0,443005457129144
0,438359412228296
0,432880064459092
0,451798949742381
0,442956831255665
0,463969487264931
0,454281852044054
0,48608717382549
0,474480544770331
0,488905350387962
0,489298720509567
0,486184003745632
0,497442711546141
0,509590092254823
0,51437130394137
0,511125808255027
0,527087029924397
0,532237240589475
0,582505236617104
0,569963428397751
0,536564529754825
0,561817451442305
0,549405395566565
0,577178060332522
0,562430995566734
0,600139599390724
0,603849486171434
0,581330503667969
0,586592112857422
0,580737513510289
0,591077570176772
0,587513713272997
0,602068318837785
0,584677948757852
0,599408405765534
0,600579609727485
0,600403687612156
0,664980505509441
0,593767639305721
0,612793463085329
0,585804211321947
0,594236332437458
0,585692839255686
0,60802467526617
0,576249153380318
0,614999100313025
0,58045654489395
0,60281481707294
0,568119237767645
0,574151686091753
0,597163565482049
0,579945649864186
0,553078346959859
0,553171572000701
0,538583152697428
0,541787295920499
0,518236602665154
0,571833541269985
0,530902363351931
0,519783702286207
0,50904041178817
0,507150999254685
0,494625444753483
0,490951427306736
0,475593064331022
0,483052958283398
0,454494245518523
0,466686778309286
0,450470404185955
0,448225939751322
0,436783849930212
0,436149913784276
0,42779688254455
0,421915394911176
0,419155370236216
0,414778625695811
0,40629073917273
0,400144917070407
0,390478370703435
0,393049827900319
0,38322991741252
0,377806631725331
0,374988101315844
0,369620307335748
0,362924127085128
0,355058304787123
0,357717572627728
0,350200692006583
0,348315148906306
0,34471629576892
0,334264648208456
0,334774731988779
0,333071487423953
0,330583868955936
0,330814934319067
0,320792188249622
0,32243865386579
0,313337984254861
0,319554169360556
0,305878121214934
0,319031368619753
0,330566500238727
0,29534202063112
0,31180190913749
0,283005378428397
0,307615114073143
0,280110786560343
0,306016337772318
0,305576819062162
0,285893542846217
0,285649012379461
0,280315919018865
0,278788278467064
0,293971708890789
0,266307198449566
0,279841086988778
0,26216073306348
0,278151910892526
0,308368305458015
0,267763927472143
0,345093396675761
0,268166296529815
0,271506746359312
0,25461683759876
0,29508159375055
0,252101213580937
0,265675555302086
0,251176257099807
0,254907063166632
0,27752695258348
0,248538571652998
0,255800434382987
0,241307164330655
0,251218660648049
0,264702381646191
0,253479006587545
0,251847372782669
0,272747861658422
0,239269199532624
0,254891389423935
0,262825972525517
0,267992356243527
0,239076444966354
0,236813886683958
0,237522180714205
0,23162461945194
0,253599468583771
0,240221685701825
0,233601711432474
0,240178144092972
0,221690918006548
0,237296348240699
0,226061657023705
0,247966310387791
0,211446710266757
0,254008820659174
0,224543742620945
0,229946257101327
0,237141527330365
0,226328450257314
0,257072412050379
0,230162579190162
0,223695594686256
0,216660051036813
0,253758447957044
0,215656421006086
0,231984494662254
0,222292329650141
0,209956768387096
0,229790354025878
0,215698781412836
0,210473678526299
0,233293349244134
0,216153026980726
0,230137390123985
0,229668843986877
0,24406965297432
0,224754711646709
0,204837557152088
0,211095634346722
0,204865063931025
0,21110744347539
0,205657531431279
0,205584855272976
0,238195150995767
0,189493470059409
0,228752605774559
0,203881418223641
0,205071290005016
0,20198017824331
0,204626113466129
0,199631030201529
0,207881282463324
0,209344837489416
0,220962193635856
0,194304656573765
0,227801009288348
0,19894454229789
0,208652733415251
0,197663317074741
0,208666432350569
0,197673648503169
0,210843452082288
0,20861760768902
0,203408525599879
0,198128311202904
0,204873557670904
0,194557751971583
0,230455947354652
0,185600839171413
0,212002951967935
0,217355176912286
0,199505312427467
0,22005283566607
0,195941906907599
0,208205033857434
0,197170270975238
0,202138380421057
0,204924391977473
0,195551587908361
0,223866848481936
0,200662440753957
0,203918362280112
0,198520089997885
0,202668496169508
0,199808250581053
0,205870256556047
0,215897785394154
0,197840940115243
0,259622942371461
0,184985126782028
0,224062822672637
0,195266953460612
0,207538855109074
0,203114432556575
0,199805812968275
0,202924720640279
0,19553329444612
0,209947599641395
0,212392686831787
0,200753277865745
0,20631989378497
0,194910077102894
0,203419870239284
0,198249058181364
0,202365487119407
0,199503336730888
0,199097364694128
0,205566182428737
0,195816452191638
0,220217044017555
0,219130911206726
0,191172379501808
0,214950751568842
0,192738459402332
0,212213507324902
0,195205870907372
0,209646557133869
0,21455662133413
0,20220039400287
0,204309443617954
0,203260716339752
0,202282520592035
0,197010825389712
0,209317814925206
0,207054739786525
0,199250392877218
0,209220462542968
0,189466193220295
0,257236513469736
0,185703795926609
0,215692005781388
0,196612409213568
0,206257974950139
0,197675595055861
0,205117827661985
0,199108836694227
0,203910184904177
0,200225610471566
0,201939201800538
0,205022621617996
0,19960988145663
0,204831010245733
0,19733912037887
0,207183230075602
0,208909058282137
0,199977954877753
0,206879335393967
0,200920853390619
0,203449118272684
0,198881467572396
0,219188893100115
0,197963139266896
0,211822816322194
0,197102129066689
0,211918755787693
0,204627753588336
0,203579047782205
0,194174695449909
0,206450835237551
0,191891213208984
0,207340566080012
0,187756408657318
0,218011158439909
0,201621898583248
0,202403743839983
0,196928997990224
0,203707212485575
0,199747106857202
0,201490114907007
0,198434188342308
0,205599158463564
0,198660758017073
0,202695898021735
0,205125614053998
0,202517468337012
0,201462109195734
0,200606795130088
0,214549238769332
0,204145434580257
0,198863617582655
0,204264330084263
0,195420095727387
0,205435869176924
0,19749766640789
0,201437037653503
0,195981660702329
0,203554677542028
0,193032026485542
0,206758864943377
0,20555009763687
0,194980770809454
0,208061033016075
0,195347583612248
0,20128486182345
0,197691514639294
0,198144939291572
0,197631023852249
0,199117439795365
0,19583492014284
0,196263398586982
0,195540667913042
0,194530022233388
0,199020299715944
0,195523584313619
0,194972371721289
0,194843335066051
0,197039348794408
0,19417415322812
0,196603819274876
0,192413423116532
0,195418781662658
0,194426238173452
0,192997452569097
0,20395449154658
0,197456858124885
0,203172749705022
0,192551155227997
0,202204012874773
0,194391272883053
0,197308665386032
0,193690421192586
0,191346862546865
0,197624621841033
0,195849760952587
0,193287842162425
0,191187144264863
0,196799127880526
0,193465093988266
0,194915064018849
0,192003729949254
0,193609137775844
0,19376291902845
0,191276346634291
0,188999481331138
0,197281508703341
0,192032787025657
0,198246180052775
0,193686004590569
0,196935701613413
0,191033815061642
0,193466478615229
0,193149282256538
0,192638364044455
0,196711216115011
0,19420761251376
0,194645385594491
0,189108322455544
0,191870219062845
0,191079419391852
0,188786425722471
0,192857707615513
0,190682435715261
0,192879586720974
0,192721617421235
0,191422840290938
0,191646700802708
0,192435609329714
0,191333533289482
0,191623893377323
0,189151916938001
0,19061967894605
0,189355673452669
0,19262335646689
0,191848174727725
0,191361416209557
0,188696771298632
0,190097871720353
0,190171878571364
0,189872157522618
0,192568810015972
0,192958769393689
0,188625677892131
0,192785327140627
0,190974548849508
0,188193737074675
0,187702743645665
0,189542045944943
0,190311312232707
0,189152297903308
0,188361959933732
0,190977447076471
0,189686025296913
0,191319128775724
0,190824678116867
0,190580933719547
0,190454270943561
0,191301628158147
0,18769572723708
0,190621244102683
0,190329616333356
0,190907704853385
0,191364193455766
0,191480740227982
0,189915373269806
0,190685884047627
0,190814221973096
0,18963066557067
0,189221163456882
0,190793897995389
0,189874022251143
0,191925993578603
0,190524166112631
0,191503847750067
0,188923411919239
0,190662355113819
0,190342334660889
0,190103827144234
0,189401221601803
0,191674192044355
0,189746928574477
0,190896109120497
0,18713008484367
0,189291325830819
0,188367435067859
0,190711877432291
0,189058677673913
0,188129534153851
0,188684891011125
0,190621869316035
0,18830529834414
0,188154703276981
0,188458196212735
0,190392452126361
0,189777579039573
0,188578441744952
0,188440085584123
0,188236627016567
0,187020598717306
0,189242891916638
0,188698774639054
0,188783004737656
0,187637481782472
0,1880697786227
0,187356466251781
0,187728481977429
0,184456591183578
0,189259304917634
0,187588642373998
0,187806415509901
0,187491384018262
0,187291135496016
0,184356647379378
0,185584998386345
0,186234946595358
0,187450871664849
0,186040515810722
0,185314170966347
0,18630613368498
0,185671534967543
0,183300368711909
0,184450544203682
0,182638049800571
0,184814233283704
0,18384363333403
0,185157702760367
0,183037278613324
0,185867732703527
0,185493094716796
0,183793109431125
0,182594358251333
0,184325383120002
0,185706208320244
0,183315445289279
0,18332856880415
0,184002784033551
0,183856958606421
0,183784745435839
0,181371680589343
0,184839520424141
0,182555912533982
0,184210620876429
0,182237608227625
0,182977466449503
0,181463529276032
0,181091317446405
0,181315833546287
0,18194701939678
0,181279607086356
0,182208457927936
0,180754683632953
0,181754129426677
0,180735680534338
0,184293728205577
0,182727842052392
0,182299074714568
0,18176514214358
0,183915421371534
0,18316744065099
0,18451015469854
0,184356533120734
0,186098495667499
0,186142500030663
0,189471695030122
0,189108263225566
0,190524640128963
0,19012047695332
0,191863996309979
0,193297936434473
0,194802141332433
0,19398782158146
0,194959011746362
0,196654618449806
0,197645326078778
0,198669306235076
0,198986530381907
0,199388079652284
0,202978415809961
0,202658237514435
0,203273508646274
0,201769175909812
0,202316488105246
0,204020191731847
0,206702825239461
0,203613329078516
0,205050772536962
0,203579553158167
0,204299621896765
0,202993420554397
0,203314356264465
0,203984823162823
0,202463470908268
0,202468746768437
0,201987100839637
0,203667456953654
0,203331228841285
0,20206912459513
0,200953828899143
0,200101069504845
0,201849564581143
0,20146030292063
0,201185692021688
0,201889472650291
0,202289549490751
0,201860246146369
0,202459635357389
0,202762837744821
0,204003759717798
0,203162627596356
0,203810739101625
0,206581108495858
0,205593805992694
0,204865585425364
0,208590517253328
0,208313905733433
0,2101564586294
0,209497415506414
0,212612760035889
0,214448510753097
0,21663458448514
0,214615973098143
0,215138827208516
0,216356245619531
0,215533973731237
0,215321203653977
0,21526991360982
0,21592929930489
0,215588388284572
0,215891067707884
0,215995172642503
0,213613691598152
0,21202405447834
0,212762146173062
0,21411355385736
0,211899494983199
0,210625562064114
0,213767769152023
0,214757399120478
0,217077379547242
0,217002312052296
0,217881096787448
0,220850455975237
0,220814251276723
0,222101573613695
0,223882475995859
0,226243752107711
0,226558049233039
0,226822566914999
0,225626838122652
0,227570227061668
0,230190437244047
0,23234732128696
0,233595501558656
0,232097558749556
0,234149625422079
0,237375300798143
0,236022439435635
0,239029147552658
0,240179490882149
0,242480654332781
0,244593523052456
0,24603398540044
0,248055580034205
0,250775278842444
0,250764907778962
0,254217107273537
0,25431234457336
0,255249678276872
0,253739383257217
0,255475282347831
0,253400983057551
0,257506468595629
0,253624715992947
0,254134632664364
0,252422265368813
0,254180487479946
0,251199921453507
0,251604907827299
0,244842032391148
0,24472398869882
0,24478757213016
0,245248494475936
0,245084188991442
0,242791017725492
0,242981308728621
0,243957725069257
0,24268106716554
0,243976356286945
0,244262510325699
0,245760476837293
0,242405715009596
0,243282136739308
0,24502947584458
0,245275568847991
0,247725303877055
0,245988449138946
0,246572504471772
0,25090804129548
0,251616595223466
0,250008800136529
0,254149703880676
0,253578745703289
0,253558185898198
0,253539973443739
0,256543065537884
0,256472761035257
0,254040049989813
0,257398084717585
0,25715564560815
0,255226087691228
0,25419492972011
0,254389562394178
0,253039819408449
0,254430359526271
0,255410122992543
0,250462943259322
0,250510782969247
0,252514608199832
0,253109330563917
0,250843077028504
0,249713248480545
0,249782375611818
0,245888213445567
0,24677060466324
0,248165106522428
0,24776826247447
0,24666937548455
0,245490076128651
0,245213040537602
0,24541504091468
0,242796981096531
0,239865234124169
0,239284928329199
0,238847643326277
0,235117550120315
0,230082435489924
0,229582322831257
0,230321481346205
0,225498482682462
0,223695700706943
0,222741857146531
0,223794579944402
0,220889852754047
0,223006441965447
0,224893118686443
0,222403114926429
0,226515317909073
0,223675733655045
0,223932276772983
0,226208744427456
0,225239591278355
0,225281346887286
0,226189647567675
0,22737231014328
0,226996258854954
0,225864297794179
0,226911828361452
0,228537644404295
0,230207411049428
0,225364694289328
0,226371138373834
0,228952270481556
0,226836981043079
0,22538935479529
0,226514532703453
0,226530587410786
0,224975860504832
0,227236109844129
0,227100009492753
0,227609753689989
0,226279884775382
0,224035640875595
0,225755882711816
0,225107569993988
0,222064919063836
0,225081519938082
0,226276586552838
0,226282936010303
0,223527127699276
0,225831371953007
0,226216528878524
0,226352122568688
0,22732192548703
0,227025310871593
0,228667823238634
0,228650237588085
0,232935102410259
0,232412842247595
0,227662687970641
0,23082454623049
0,232010226423961
0,232112481553658
0,236899902549979
0,236998014071602
0,236214592976728
0,237454350243255
0,23957923716277
0,235796338306161
0,237714178951625
0,242173988460652
0,240717266926409
0,240193760741059
0,24538573342859
0,244248090214219
0,247268947235195
0,246928316987814
0,246902799948786
0,247334852244577
0,249358083741864
0,247976765450619
0,251825277838068
0,252611031947676
0,2515632362342
0,254197260215245
0,254387298808793
0,256838530953105
0,265382671507478
0,264220118384545
0,265857624673514
0,265230725721191
0,269475233885269
0,267924619834883
0,26971481433173
0,26809380276279
0,269682189305122
0,274415856864533
0,273666521295531
0,275372598800257
0,280716138476473
0,276752770522542
0,283014241742685
0,281738524954573
0,27971634053628
0,28851975155849
0,289108131027701
0,292057457254302
0,293524209097809
0,292027194108852
0,295998431727537
0,294769912968331
0,297712650902236
0,300545846090008
0,299436176237642
0,306204648834436
0,301958737438632
0,302373598675077
0,314384139128678
0,316245794249058
0,31450537046775
0,310630172310581
0,318037104913173
0,318696766457959
0,324874958799184
0,325094415167832
0,323102876797554
0,325343007224595
0,333182591437504
0,334859112406637
0,33825548820361
0,337257337049107
0,343225748805892
0,342443277853018
0,347624569958485
0,353774926014121
0,349944810432927
0,352208856342716
0,355603201107397
0,357080343946399
0,362158550944482
0,36075998548564
0,364810129673296
0,362658038399564
0,371848027930881
0,375768819522656
0,374392572666048
0,371771507018748
0,373501844743521
0,381263847358012
0,38759548994764
0,379963839075199
0,386714508909427
0,391622450393302
0,400384224842508
0,398996737570248
0,399850258533035
0,39577831587511
0,402999050256624
0,408071100370424
0,410471508173463
0,411916697596159
0,416184212496101
0,417839892632238
0,420096831407157
0,426891755069371
0,425146399420433
0,424415951811299
0,431792913348886
0,430723126049954
0,433129202764929
0,436550454908822
0,440337686646581
0,437590634057461
0,450210068554836
0,450412225986483
0,454342114522173
0,463684394110979
0,460388662583669
0,456642718746381
0,461492848829494
0,476765161621098
0,484923281285609
0,483089576265009
0,475700002698695
0,470674921495621
0,489524764356282
0,494030704944429
0,494332354092665
0,490561664512981
0,500750977399944
0,4985413167909
0,494924029726504
0,49945422091509
0,503473053419788
0,514469862373893
0,517308260980039
0,512461273163672
0,514758298338901
0,515074245208303
0,520710046341387
0,53704295956389
0,539873402710081
0,539639746089066
0,541140632082391
0,548642911339602
0,555208453553926
0,545620242456887
0,55383313029691
0,550259137341645
0,57076883548833
0,580771924066639
0,573878019175017
0,586793226053927
0,582295926949795
0,565655992511184
0,579882611563379
0,595717800600006
0,586394345205017
0,580510187320644
0,597791069323955
0,601715894579775
0,609645011344407
0,600981279525394
0,615829689288147
0,592154526544403
0,604109985412817
0,61655829619949
0,606823097787532
0,613951319803064
0,626582793021652
0,622525951039188
0,62353647067909
0,62680665083698
0,655622428865683
0,661639327329503
0,648842561279841
0,637287842862802
0,678957902575362
0,674465795753183
0,663683997819781
0,675355124949968
0,657760622224051
0,665242913471228
0,670130337443136
0,667689991897051
0,685736486985812
0,681251296805961
0,677344052201874
0,6707648708943
0,684647470755486
0,671143375641669
0,694804352038738
0,696800774471703
0,739921079268013
0,743858813966492
0,720903375123103
0,726936566964887
0,75023413973432
0,734149388534304
0,761969646903594
0,754471064247285
0,741524170626116
0,732271345346165
0,710552971504918
0,736962551594094
0,762676706415488
0,7645966746683
0,768617494479098
0,764055981094841
0,782064380763139
0,740787897405693
0,761107320302137
0,81624086901777
0,818080065955982
0,777787649623374
0,809561877782099
0,787294061692115
0,779981293166846
0,80143108852795
0,759555391075891
0,814020855484531
0,814351658678491
0,736001219822487
0,784223407671231
0,819689934995555
0,790044130401546
0,809099268386231
0,879397487404223
0,854239826756937
0,913758352745805
0,83110697270914
0,762472064432334
0,828469241894111
0,860195735009502
0,885968514808341
0,868394276099272
0,844797681357169
0,853236801947195
0,889385131599491
0,864434011226673
0,850086359049651
0,923309635944671
0,820475240647907
0,905192509870811
0,926572618361217
0,842720849063338
0,884235672624155
0,932699355735682
0,947716542590144
1,03003836294234
0,956044863637032
0,92219667273932
0,902250050467008
0,897453888839677
0,934449443109159
0,998933719324128
1,01313975537893
0,829559910036534
0,855845065029479
0,978143494341751
0,943430391597725
0,959211177488087
0,9791107014174
0,927539849385511
0,951648356337915
0,896250860776279
0,902399028266571
1,00023321624236
0,985143819746156
0,974188920295159
0,953302722449595
0,919691773118917
0,932681587535584
0,994256950042296
0,959558077419208
0,887800983810068
0,985057353127469
1,10678354106022
1,05840153774903
1,09622095728108
1,02337736343866
0,973294091320283
0,991379013061042
0,997852283353067
1,03333753005971
1,08852152791348
1,06603112298384
1,15618718344449
0,948968070170573
1,04000247773784
1,09078951982514
1,03458555432434
1,10211527646751
1,04539649494551
1,13713021801899
1,1900681890584
1,38631155011826
1,10328458688243
0,843568654721653
1,01841287276609
1,23716870183324
1,19867103817288
1,31047127014726
1,12679920885251
1,1561764809689
0,965776839364474
0,919030382777239
0,940211370735096
1,048825808937
1,39811495341967
1,12667909602488
1,02708329383344
1,51034650940575
1,07092714672059
0,871684849566918
1,33610189945287
1,11061133291491
1,11780014408098
0,81431567200783
1,14320536185866
1,40283282897771
1,06043208036406
1,34810815179648
0,852907880359912
0,670871655900571
1,17856778633708
2,10113559881023
0,877411846393549
1,14196076778205
1,01999052237427
0,692396763190445
0,752775087297291
5
5
0,910969968516312
0,984589654067338
2,51635067383788
