3596
4000,36533379555
650,420452594757
1
2
2
0,0105470911678259
0,0186063836360434
0,0104842735879905
0,0210260034783177
0,0124167175421877
0,0198182082110286
0,0137313188977883
0,0139823850862712
0,0165537797613433
0,0136782938400362
0,00722289376105808
0,0174435025980659
0,0129337095342264
0,0234141259047635
0,0135263548267523
0,0221699967710354
0,0200551939899462
0,0183917984856402
0,0149225555834267
0,0162179351671316
0,0100134411881221
0,0202811066588041
0,0163840272209199
0,0163514136192576
0,0156431447610241
0,0207791386284185
0,0152566952017563
0,0194072057258153
0,0167969588701408
0,0184871885503525
0,0168939485256427
0,0236362272168052
0,0181913233235244
0,0184572450591503
0,00776091115653581
0,0146691303608839
0,0202576636532286
0,0196543052414454
0,0155920662338868
0,0202757902655021
0,018717018461164
0,0249140804368668
0,0187042975756726
0,0165119038473854
0,0174725195665068
0,0187672345034686
0,0176424771318953
0,0226002221306081
0,00962375228138917
0,0236437658290143
0,012823334928447
0,026686952711769
0,0166546398196805
0,0208757393287501
0,0231427796893675
0,0160864487292325
0,0107248517190207
0,0207045974638161
0,00980190842511164
0,0229731422974326
0,0199014995437875
0,0242347903127237
0,0118850585962183
0,0109668577861524
0,0200226641251919
0,0193985249251328
0,0179154232580658
0,0143637363985516
0,017648815034867
0,0188989267812631
0,0295228245777291
0,0265967267878574
0,0221777745752482
0,0153427513938392
0,0102767571348708
0,0179013110033496
0,0192816149685224
0,0222032076361859
0,0161513270454193
0,0149592955793741
0,0188350322277061
0,0213630976755584
0,0105629064293235
0,0196104514407938
0,0175886875257177
0,00841580032102481
0,0239507199511883
0,0103439561237111
0,0230926762950867
0,0193039979931314
0,0156530316173799
0,0151361769847105
0,0172764057424829
0,0155594137222509
0,0200683220232127
0,015600542791024
0,0126609708561633
0,00739575058293821
0,0238043635237077
0,0165680568012172
0,0219221688991583
0,0149770108594153
0,00818058832425426
0,0379481737224954
0,00375332737563162
0,0314543427664151
0,0154598551372076
0,021981248713386
0,0171022806283669
0,0109014850966568
0,0198439439143328
0,0227482101718731
0,0246796590138812
0,0135962455249495
0,0327197090574736
0,0168300543227793
0,0137915694446514
0,0143416018910706
0,0235685108624793
0,0107232354972358
0,0277171273002932
0,0102470461968175
0,0170167065191932
0,0171137157470113
0,0127281589864483
0,0248122458717341
0,0207527471706197
0,0172354634504138
0,0207769970998306
0,0185009654198817
0,0206977969969182
0,0149851135230864
0,0121461515762372
0,0218864793528954
0,0188384418826213
0,025464698970909
0,00987669598091559
0,0292089839717246
0,0251298918692291
0,0128031982493412
0,0155087084006698
0,0178831236193661
0,0264896082021857
0,025188113196961
0,0232485601811861
0,0137071255112437
0,0186599087544612
0,017805762741743
0,0174033820713647
0,0168722153416417
0,0168129596408092
0,0223393123408006
0,0194136129372532
0,00924968730122329
0,0365938620567259
0,0218124054959382
0,019045353184952
0,0313978436035475
0,00362928449600531
0,0336347975687338
0,00840258943874787
0,0289103690388247
0,00945108735332087
0,0245275027794658
0,00924815995245485
0,0344166834830471
0,0163333849699057
0,0300922980602691
0,01569322045648
0,0224126964219032
0,0119617845057848
0,0151188001621188
0,0293764497153579
0,019363910882935
0,0243257538793561
0,022390378984672
0,0200882583994669
0,0251205599141008
0,0155405136668157
0,0242533725622697
0,0134395416357004
0,0327645318286051
0,015686372380673
0,0244221412678306
0,0187687699270318
0,0222198196962632
0,0210537958251237
0,026621052953276
0,0214423212555395
0,0285274237277085
0,0171986373615994
0,0134121058472225
0,0129161269272879
0,0288853879362443
0,0112401056635967
0,044575916003292
0,0111024191736583
0,028826203231039
0,0172154539889193
0,0252885391169096
0,0140744682808036
0,0221852777375635
0,0186063156908832
0,0208428546043067
0,0168614712371408
0,030911486719656
0,00264941763716846
0,0219197902108316
0,00720593286338666
0,0277445153306878
0,0222721640915485
0,0411563765669544
0,00566241987584863
0,0325701000072333
0,020177939092971
0,0223467201945977
0,0299131573136848
0,0330027509579049
0,0173441121898155
0,0212790422167088
0,0179428692065674
0,0271678344961138
0,0211791136020008
0,0245827136725706
0,0200346295444452
0,0236251525591906
0,0234019333770879
0,0266150806737856
0,0168277397506931
0,0220111527607056
0,0246344734939083
0,0242192866029974
0,0185426398523296
0,0274088863774199
0,022138976620321
0,0272717463947666
0,0203243663609098
0,030972381991921
0,0173551563783612
0,0249399102988658
0,0241844098645203
0,0342505027426568
0,0216681519922849
0,0226686175919057
0,0199866578373011
0,0379835195205624
0,0051465200458322
0,0370735517014307
0,00952554460655447
0,0438111696816346
0,0244099990000582
0,0329410705306727
0,0211430270018745
0,0343642261808022
0,0199367751302056
0,0287225830773896
0,0270099320408972
0,0269686231032506
0,0266991306561591
0,0343955421162739
0,0240130000073208
0,0201398098033664
0,0258904369829816
0,0185194562630232
0,0459281977773455
0,0161837052386807
0,0313717601918482
0,0385047815375664
0,00586976059268403
0,0414348062941072
0,0197860349509152
0,0323167540574939
0,0428155895845989
0,00850657482498065
0,0214037519912595
0,0295283110476465
0,0346301769130263
0,0275135594681325
0,0360318148432089
0,0281196191406414
0,0373718389988384
0,0311439786465081
0,0282973900511704
0,0753514675067347
0,00736434301957539
0,0519222100738348
0,0258514134713442
0,0350070298764166
0,022881423517455
0,0362474905400186
0,0287654318123783
0,0472179659967954
0,034636434180843
0,0443973053584471
0,0347843157042428
0,0327031256495354
0,0455704105972311
0,0294878425961829
0,0425674211804145
0,0346854123079316
0,0423597644879672
0,0390896748928073
0,0506142719175618
0,0359075080041359
0,0456965852757535
0,0438031873563061
0,0433019839619277
0,055696984503813
0,042929898650653
0,0466217192983878
0,0494054383237347
0,0419970196193433
0,0483068017238788
0,0501938522556938
0,0551200371129425
0,0444878461500611
0,0513373685555596
0,0483954735972837
0,0585345122089498
0,0511254357665363
0,058784809992319
0,0531589479358583
0,0523200793306057
0,0547538962137657
0,0563765026808353
0,0647715180884919
0,0631666592042311
0,0712283612489548
0,0608925672946317
0,079016847115908
0,0741452056052232
0,063167918332396
0,090756446070395
0,0759401316511295
0,0766642085639104
0,0833586205826887
0,0717370534201143
0,0790543265989958
0,0803010090384759
0,085152312548087
0,0852625206873434
0,0913785393362224
0,0923269660842596
0,104438131930251
0,0954692162862048
0,108816550790295
0,125733393209107
0,125484003003648
0,0889291266728927
0,111101204750932
0,0998142117782816
0,12895122623861
0,127693265364212
0,128255745074894
0,139544805195617
0,122453625784255
0,140858920645865
0,12729160632886
0,145349636321209
0,137949389704741
0,150779399694416
0,14296050949715
0,152659178393781
0,14750301527529
0,166603552552043
0,159952518307014
0,168471536285031
0,178997268296091
0,167889324912107
0,167465798543045
0,17763294115641
0,168112331901792
0,191692059869599
0,186595630628823
0,220880813912633
0,187888162858953
0,193464241298996
0,206616820178065
0,185662146796912
0,216929674589321
0,199851601652873
0,219412811057084
0,218906770750463
0,227436144399066
0,21884984471701
0,223190511686838
0,224051187916522
0,233297293804075
0,229129257540081
0,230607956343386
0,237121222189183
0,257914819816877
0,250671435758216
0,244621590519974
0,249212346551125
0,272062586234546
0,277838911344772
0,276479301313603
0,257482548734056
0,262594147568118
0,253889348479747
0,264754870207129
0,285397311133979
0,2713033976621
0,28130025581622
0,273647522099331
0,302471599801302
0,282999147690464
0,300500412297978
0,293508027802558
0,286968282401056
0,303781200503089
0,301949489151528
0,296662767114733
0,312661500610462
0,292016107641377
0,306044707870888
0,318331419966397
0,332325130591433
0,306322229916415
0,325875773373771
0,308178438733497
0,334124610841344
0,317557021256577
0,330264805491059
0,31152321605424
0,340052289392205
0,334171362519391
0,337719041871237
0,343235267578168
0,353219194684626
0,330446182590835
0,350582923115309
0,349249746328554
0,361423108780894
0,363173010914933
0,359198719099089
0,352358029424086
0,36965854783756
0,380058419650808
0,382164439489268
0,349465650777956
0,40768235566374
0,369821404934152
0,387094989132306
0,378783606753567
0,390169403237899
0,375162051447542
0,378103201159178
0,395974926928057
0,410925802067918
0,406441002170442
0,413571077394966
0,397542923563877
0,402896573150236
0,405246762163809
0,408763989512413
0,405391808615854
0,42159771255262
0,424795188286697
0,428489550490008
0,431455790806271
0,477557368602372
0,437448079582316
0,470081435010563
0,414856834661679
0,442729584071576
0,431946547473549
0,453112960589317
0,449923727756944
0,464854062299978
0,449744939034595
0,462141317217516
0,455881162219923
0,467301470756212
0,474116272302345
0,479230225885657
0,453995422081281
0,474015847764279
0,466727136350736
0,489103782172847
0,469260912858454
0,498349618562336
0,491607941550918
0,49963137534927
0,479998672712915
0,495153172277551
0,488277246495711
0,509615855045009
0,488642360722894
0,511205080128824
0,515495308509039
0,524428853290896
0,507570369951186
0,538368126212955
0,532282474440081
0,542614679111417
0,538128834817903
0,543184613029601
0,514814909791863
0,53292374623113
0,529511235651989
0,554427832128547
0,543855810998265
0,589342449946298
0,562751662544609
0,560797520599728
0,553257430234334
0,542551596464968
0,567010594877795
0,594186903393245
0,575856856350503
0,600065997506015
0,563474349953465
0,597191504457737
0,593951266140736
0,606922034217279
0,584010453327435
0,622171146120554
0,581716387081215
0,606291145630595
0,586076602375364
0,636792502574479
0,60841994668112
0,650337294006613
0,588485589267493
0,654287194632098
0,622329659996002
0,640267032486547
0,606586816130488
0,642075122091688
0,606417376959538
0,618330694546448
0,654464440014073
0,692531450725705
0,612467537183512
0,653641349720632
0,634545965437698
0,653910953352375
0,650497733834518
0,689144891789007
0,640954074812172
0,708886126827607
0,663309259206888
0,707322139956797
0,670730740046175
0,712113605057729
0,671198019343117
0,699736804346314
0,692304805370151
0,732975176758417
0,69829702989423
0,720748388035505
0,69041133436693
0,743143221633217
0,670058969044757
0,706635400573385
0,652656827456449
0,725955038497087
0,690248502501338
0,741828698885174
0,672471362644035
0,727619920043942
0,720022626477004
0,749553232127542
0,722431044122837
0,755294957383828
0,720306914673596
0,75839447646752
0,687657864505985
0,775774313388541
0,740078751875788
0,785990241519766
0,724506415665454
0,790492321166313
0,755726166753405
0,771924497807234
0,739237936266658
0,781468329234591
0,741766724879496
0,830748692221853
0,794633505074164
0,806041113696676
0,793408141392042
0,83270615066788
0,797157280181087
0,812303219561034
0,7763662794538
0,83019839743191
0,814052767973666
0,840870787139817
0,831271123100448
0,848105535300859
0,818460829412649
0,884702209866175
0,837380991074255
0,866358238643685
0,793545354978523
0,861515589585471
0,827989727892722
0,816797302093545
0,807576679258733
0,853844632945538
0,84351270356988
0,888788315801402
0,847171755653801
0,908211870143004
0,817599416676708
0,916447130873012
0,824632442464353
0,900037222616736
0,870257172309377
0,895486801901754
0,887272252467045
0,957660557952001
0,845044207824948
0,900988983827123
0,881502881517286
0,952075983280929
0,879152208393622
0,968547308405953
0,87092705982455
0,959504137126364
0,870618490486629
0,929827863784713
0,888851216902097
0,934102197745454
0,866741662821121
0,961613527165869
0,897734770211403
0,974027401490096
0,939644761485548
0,975462682578443
0,924492221954658
0,939876756776336
0,949363887233222
1,01289755944409
0,939448804652913
0,953468871853598
0,924437366142492
1,03085987018564
0,910750542356949
0,914927058929531
0,934082383277931
1,02983248524343
0,931439212953983
0,975793772999135
0,913989184174892
1,04534402694595
0,972780152454322
1,02895876774508
0,917950312953382
1,00512918092563
0,951891261273297
1,0336152424321
1,01799498383702
1,02045278395967
0,981662462491225
1,0501124531077
0,950735834099121
1,01637570763007
0,955896841237614
1,03274849973656
0,985936366709472
0,992650888984388
0,989278426202391
1,05373275105927
0,942170989973794
1,03366591005671
0,943963191342173
1,01437558770949
0,974924853976556
1,03390647633883
0,965450770283912
1,07018031250347
1,00889926596237
1,06584736813952
0,96037115943253
1,05063750233694
0,968804328789742
1,09861438040011
1,00041089447798
1,03720832793101
1,00377277385018
1,04472363771254
0,973687194299092
1,06925957647136
0,969780808731344
1,05684653728159
1,00423322592206
1,06583899813661
1,03985683188341
1,070281166551
1,00433667138156
0,979721040588426
1,01775949489434
1,05838792754541
1,02896823209944
1,0927227292316
1,08664696418889
1,06902018530896
1,00498114007365
1,08029127204501
0,972597550881852
1,05146935139144
1,00095695583087
1,0779574261925
0,995851448443624
1,03680176723643
1,04886918604344
1,08503630893709
0,961962851258878
1,04343387400847
1,06900273654226
1,04526676805922
1,00806887264615
1,09560350889662
1,00467682613167
1,06389446187674
1,03514187787881
1,0642241857599
0,981634047901007
1,03543803732919
0,996505028916443
1,07350461595285
1,04388441961459
1,11147241005133
1,01017702474123
1,02284033111753
0,966322811243931
1,01900267075264
1,00699187222903
1,07792720032007
1,01196225458991
1,02267390068143
0,981569096538804
1,06744781977664
0,977928096758194
1,09069035379475
0,973775910319492
0,978851178553449
1,00054864946621
1,04034928972363
1,00691209280821
1,06273209847152
1,01939851193951
1,09436653204276
1,04200271366591
1,00179663517801
0,991991001229499
1,02781697935
1,01553850210162
1,06045493033256
0,967993583610307
1,07656744463537
0,997207664229961
1,08101028905953
1,01534211672867
1,05053450989228
0,998164133732363
1,02634066942281
1,04317235161636
1,05539538559876
1,01008812139586
1,0704192476932
0,99795485887845
1,06751058487627
1,01424217963678
1,06579093242828
1,00610699029542
1,04927666680467
1,02703121557958
0,982816710734965
0,985002186915161
1,13100498656301
0,986990859595944
1,03845252717247
1,01176343087984
1,06057847525187
1,01521828360386
1,08538820186424
1,00021134924438
1,05528951026363
0,977343706736383
1,07786586117706
0,972449653962761
1,09158301915765
1,0257276303794
1,08565670806189
0,998422084287305
1,0151492511488
0,974521448613662
1,09381419748618
0,996122913484225
1,0561373431237
1,00816829655709
1,05396471404207
1,00636202958154
1,02614331524905
0,99773019509665
1,00426138792385
1,01871536546075
1,07217460287934
1,01405188682066
1,01427056566559
0,984056351176264
1,04626637189098
1,00562356826355
1,06069389509432
1,01957450819856
1,00342814352354
1,02049718552776
1,02022477604179
0,979055143576035
1,00265212831901
0,997216385161386
0,993305972059334
0,994609009106766
1,04045077419987
1,02508923364157
1,02627002258722
0,980438885775454
1,04230962864029
0,970633954684265
1,03453345931082
0,961289142820168
1,02757195564955
0,98014185768684
1,0052508064275
0,97615792326037
1,01639253487049
1,01928177165318
0,996553304985416
0,974723479879636
1,02336659416114
0,951560181610777
0,999150125264135
0,939380255376697
1,0188370191077
0,952640122595696
0,963845990827185
0,944471934265916
0,986688802541584
0,97058553337825
1,00206034686527
0,93452702269599
0,957886970550099
0,951558984493057
1,01434715925152
0,94631976185387
0,954497656693986
0,935735451937221
0,974787518074719
0,964733163298085
0,912356457445878
0,916403761486686
0,947349059273014
0,931611555499239
0,946927155664323
0,903757616173037
0,945454163137747
0,896579640396365
0,896689492513219
0,931648528388744
0,92815293953311
0,889426692752581
0,922944706092675
0,886157119830247
0,924975600225591
0,881638319549821
0,886758042312391
0,873361668015405
0,894744796154156
0,860499665043775
0,899428989089863
0,865771921563339
0,856372215005445
0,862218933731617
0,884361030502915
0,850932756004831
0,878978328574309
0,861615321192748
0,8394483466885
0,861031370993059
0,844441038458626
0,821533893418816
0,856754401508597
0,822482221061285
0,840252230918789
0,817514880219421
0,847011581487487
0,793632903546677
0,836792723675172
0,793809100548012
0,825610424268462
0,78511161911111
0,818871549068813
0,774100526413757
0,809858487462169
0,773434640941426
0,79495205217682
0,764358484765152
0,797018352763482
0,768619565867971
0,774566298699537
0,749935673641203
0,757531041908947
0,745399122815303
0,766160404642789
0,731471107962746
0,750889178638621
0,725416704745044
0,751857510233661
0,722528545748052
0,733253433471765
0,703464575211084
0,726660288294401
0,719883885544219
0,726012770446058
0,710441102378059
0,719423578741088
0,697443662686649
0,714280598031799
0,673189374273192
0,699298370414901
0,674998193206226
0,695186090359309
0,682096140491133
0,673353438791341
0,675169927744397
0,688985133483944
0,6659291661332
0,651223198841784
0,655024835374172
0,654311360214341
0,644927267170231
0,639283584052464
0,636063237011113
0,66049103492614
0,624518501129148
0,625991356871244
0,622911895130463
0,630163825925078
0,618959613617342
0,621972943988267
0,603862216932679
0,612696513265754
0,592289292678392
0,618694447457821
0,576953693198209
0,599465473376456
0,573696702484245
0,594734501881223
0,575837597477797
0,579073577322232
0,569535181283877
0,595179948904488
0,558907242237138
0,567763987895318
0,558352658450947
0,558708706939298
0,553928231620676
0,558955556685797
0,549379947453618
0,549566129037244
0,534185359521047
0,531068686505351
0,530693302279892
0,527173153137085
0,533131609653533
0,530271284467301
0,521974647139649
0,525570582847901
0,512966591443677
0,5118576571587
0,508534182627439
0,502674392049216
0,496834642842731
0,497919376554109
0,494779272012366
0,489093086574659
0,476474241407983
0,491284478928135
0,471129746354881
0,495090819699271
0,471015401880474
0,474761280559761
0,459786734401039
0,462487747147845
0,448274761669361
0,464614147007398
0,459095688840524
0,46027050488771
0,455314584626983
0,450989625326238
0,446591566477277
0,452330937224082
0,433988681555471
0,436122777228062
0,429662623199549
0,439412801147085
0,423689977625444
0,432383542537663
0,422673339370684
0,423284940247763
0,413337920659175
0,421860858824573
0,415179222032103
0,408791554225864
0,403666724997173
0,406637097720094
0,39620270290123
0,403429426275011
0,407304721592891
0,396922772794828
0,38325618969723
0,394809649163752
0,387618811474162
0,381528955961434
0,373668470992401
0,380935205022632
0,369239516422096
0,376035005914205
0,367538023381287
0,373499337756592
0,369813061411539
0,367354013691873
0,359543164855173
0,362107300754349
0,349285376553941
0,361861925065927
0,35384706207288
0,356517576697526
0,346032198546526
0,344496052674365
0,336915178607098
0,344462314661226
0,335490036331828
0,340129182856031
0,333758702438119
0,339574985960974
0,322115211299343
0,331692409716338
0,318567983470548
0,328232381405096
0,323067916124085
0,318120210849737
0,317156513780543
0,319932014243838
0,308744513007795
0,317945073240371
0,300383123927268
0,309570347163477
0,300166525613532
0,303412306324051
0,294011304115747
0,303572032054745
0,297256703104504
0,298826652224391
0,295551656557988
0,293637472236014
0,287671264887275
0,291260878453491
0,279455830356424
0,283375985458637
0,275354165626278
0,279606572530622
0,275333416666052
0,281552858170335
0,274432631155347
0,275448927723723
0,269150739070674
0,270394821029772
0,269172852285743
0,26932610212111
0,259703646886903
0,25815860758611
0,258117314834988
0,257061608602552
0,256195573178265
0,256527348607235
0,253614215920277
0,256343042103117
0,249694052522962
0,2521428466399
0,240898042725585
0,243785085023705
0,24740750958247
0,243305691547109
0,236175833904749
0,241288356560702
0,233784800327477
0,235772718176128
0,229648198072289
0,234918518508582
0,235583637150759
0,235994572726402
0,23210901260122
0,22638870211423
0,224135806120818
0,222842483438336
0,228787534362952
0,225203556189785
0,21606453564703
0,220613028180852
0,21893830491238
0,217757032310766
0,217782365424759
0,214329664970058
0,209544460364387
0,211632030755901
0,21161801244367
0,208395343545876
0,208251193161005
0,205516907753323
0,20578807916472
0,207345881434905
0,204213932086955
0,203049600093973
0,196637481823781
0,196347226775409
0,195841256319064
0,198576190423686
0,195251225425275
0,199020382167649
0,189849851277025
0,197967736885965
0,187605781777422
0,192727238441731
0,190220114979061
0,189266241959088
0,182846980662282
0,188658067323997
0,183283102685908
0,180787598010027
0,185125008278362
0,184507441922588
0,180070563960383
0,185100967352354
0,17175150867685
0,182798293049964
0,176338412482358
0,181010833925548
0,177535134961269
0,175912246939679
0,169710726325878
0,172669773571771
0,171520081581525
0,17366674314381
0,167809916404594
0,169234037180928
0,169059929613683
0,169839741124174
0,160734498884712
0,1639976922695
0,164219150361336
0,162888750295973
0,160837662342072
0,159588321312414
0,157374747705437
0,158487660640881
0,156940694979089
0,157438879629787
0,151619122035649
0,157170366951265
0,149637806259851
0,159629427202293
0,149046177827337
0,154449867868764
0,151913261058855
0,148929564285204
0,147245822384503
0,151635611501357
0,139586062956777
0,143899467636947
0,149683965559356
0,1500759350369
0,143018406583423
0,143438515915031
0,138734738495813
0,143298796672381
0,140925592443485
0,144762670775582
0,136844540196452
0,138423168000282
0,137217175220556
0,141959635327155
0,133134385473836
0,137921706220679
0,138701196885584
0,133085136729354
0,129421966714245
0,135328859309841
0,131786432820922
0,132263015601951
0,133182870091399
0,136024926639163
0,129567340377906
0,134369306062253
0,129513917062055
0,129941374922931
0,128243807103614
0,128126321038219
0,125933329053057
0,128331962271167
0,117054157467268
0,122191841636222
0,125033070574235
0,125426544793441
0,11821492337402
0,122283969216035
0,120108657243571
0,119097555701298
0,122234393315961
0,121162105667254
0,115155266534031
0,118472892236604
0,11566044457629
0,119933231953103
0,114857628891691
0,116280614974913
0,112127464164129
0,111909811972789
0,110984669472882
0,114923099188934
0,111842181532996
0,115454595643121
0,111226711847261
0,107675470797157
0,107052973409476
0,110465169602109
0,106076911349123
0,108912758718745
0,109012081608025
0,102055468447389
0,104651740792055
0,105100010354729
0,102182127326905
0,10502458402604
0,103271594205314
0,1035741236607
0,102592110892519
0,102655888897175
0,09816430604658
0,104258345479321
0,100794549450189
0,10070525262918
0,097504546120268
0,0985751500825108
0,0976792305717005
0,102677738625038
0,0954812964574729
0,0996373474541825
0,0971712429446893
0,0974417405483427
0,0942975800696017
0,0952053974013048
0,096562947406366
0,095470713765227
0,0940398884250403
0,0903947612302135
0,091664252935331
0,0966179719154251
0,0925539758135091
0,0943385051286651
0,0878131798984439
0,0898964238405096
0,0919074803894916
0,0884736631725502
0,0884693564048415
0,0929476054462333
0,0893925131559386
0,0912883316990622
0,08803072886171
0,091668765912758
0,0869190046342033
0,0869250761996259
0,0852280262190545
0,0865476342227946
0,08616493582837
0,0871283932289242
0,0847722306685384
0,0861504119726515
0,0835695353734544
0,0818758817499607
0,0810494795754746
0,0871237162856092
0,0824922120885422
0,0827427665266172
0,0807963298499546
0,0830578792017418
0,0821732533526752
0,079993314444552
0,0779433958192443
0,0816435418821908
0,0802317624349224
0,0801701149771049
0,0744303490829322
0,0792178756079174
0,0798023203075961
0,0790887287122048
0,0792099347746971
0,0786656060331851
0,0779722008751103
0,0786092784889029
0,0774572988499555
0,0771330347710086
0,07883302952019
0,0780001762083852
0,0739976279158361
0,0750794561422947
0,0729813186090643
0,0755514376587992
0,0721678210975353
0,0752488959978599
0,0747602980199489
0,0759321147744244
0,0736073836263064
0,0747282685638285
0,0731450323696217
0,0739689454635068
0,0706487213686492
0,0719053370527805
0,0697488797171711
0,0754581218696482
0,0745237957888193
0,0731513686655673
0,0711697590980566
0,0719950468571036
0,0722207431194969
0,074926205126246
0,0698458467088538
0,0703207178868607
0,0705559524725368
0,0699143542464609
0,0683825032672266
0,069635598334122
0,0701115053109812
0,0691135252673934
0,0675325300315545
0,0701499967446537
0,0665460472570206
0,0689009413710096
0,0689928617030324
0,0694279341582928
0,0672399081565079
0,068264196902375
0,0705341225665432
0,071285205343435
0,068157058775652
0,0698061207319523
0,0696782540029747
0,0661778042564123
0,0665990455762816
0,0679586247545557
0,0635151560947829
0,0665402573582299
0,066780059725199
0,0644489735871609
0,0610622479716657
0,0672505607309178
0,0658046194357096
0,0661885303540495
0,0655138022738063
0,0662955404243434
0,0657055384198843
0,0643596023559423
0,0635152190641968
0,0656378411442165
0,0646320905734707
0,0639037179108866
0,0610851157716358
0,0661093763001148
0,0623561864612389
0,0632390575103814
0,0630717532488698
0,0631091823650879
0,0642426576714104
0,0680477591860382
0,0605996240843088
0,0638395629083477
0,060060042527872
0,0623637076710035
0,0630667900992139
0,0597465306144171
0,0600321735001487
0,0626611210457988
0,0613690163700234
0,0648601526555941
0,061440964841675
0,064962081150285
0,0611545656439157
0,0658790697257684
0,0637087664716006
0,0581893394726815
0,0571994496185441
0,0614607025741535
0,057930527640444
0,0596246584404235
0,0613916747629067
0,0630655287073076
0,0582815178482674
0,0593839472705104
0,0581385098838699
0,0581290112912442
0,0613285910310673
0,0618517069755614
0,0587589914104115
0,0588093284311481
0,0588241877709574
0,05966157827366
0,0566450121921276
0,0615253652898476
0,0577255839686453
0,0601591376077714
0,0600315605476286
0,0598057344793022
0,057930051795437
0,0613427599333816
0,05838067766761
0,0588077930696663
0,0583325305734188
0,0599213321942815
0,0579124566609884
0,0566567278577997
0,0559978492411476
0,0578432510849568
0,0549262432550521
0,0557788452177766
0,0551747225953837
0,0583690221412875
0,0582026531867752
0,0582982841890234
0,0565958714121697
0,0569039574632013
0,0559182495612133
0,0581293203432645
0,0562228870572643
0,058148532043047
0,0580235792282621
0,0598484987009903
0,0571858950706012
0,0538925136565668
0,0538474552059686
0,0584598025400637
0,0537111594073297
0,0585490349323138
0,0567183905219863
0,0550866715853684
0,054786146975093
0,0567536978707707
0,0581762849479663
0,057183685863815
0,055542594990629
0,0552143569525771
0,0529826608737851
0,0579596791522956
0,0527315120008804
0,0521611182831882
0,0547703410794645
0,0561255129044776
0,0517433156036408
0,0534099521200494
0,0544579925281872
0,058015131813038
0,0528960056477425
0,0533094922158475
0,0532465340427988
0,056279502055557
0,0542640306813129
0,0540742719370727
0,0515790458254692
0,0565628367060677
0,0557484270912799
0,0552439883190721
0,0551506541099262
0,0542856824303211
0,0535193670915584
0,0550267520220096
0,053721575173956
0,0544809755193537
0,0522846669733748
0,0522346879549858
0,0549447130924341
0,0576207382291084
0,052644040782941
0,0552816835994464
0,0537381609277979
0,0528162465957851
0,0555633617140325
0,0533599400455013
0,0500934540049279
0,056930677186214
0,0549655288810847
0,0541736223910092
0,0520098050634639
0,0574472611414581
0,0547638128056393
0,0523520413862895
0,0534035667382656
0,0555504615922934
0,0532216686493493
0,0557692292738418
0,0543127520575347
0,0547247919852978
0,0508685663497523
0,0549372832474432
0,0550845541743385
0,0541551632525121
0,0544344895888768
0,057412887999038
0,052691319576836
0,0507964757683885
0,0520301138007364
0,0550799630202077
0,0533959549751403
0,0530327685919043
0,0499385564802068
0,0548192389152028
0,0531318022859823
0,0536088546235329
0,0519689893716448
0,0541360280596395
0,0561951867412915
0,0551979336391424
0,0531725941669227
0,0541680782274679
0,0535341415415713
0,053693304835254
0,0522965144591835
0,0546592630434396
0,0532012975217375
0,0538035525434927
0,0493961461144277
0,0556676408672327
0,0546355508540143
0,0555259066727011
0,0556719526421371
0,0544977756387819
0,0536588016235275
0,0545930272132264
0,052394745332394
0,0552573274610236
0,0520197477405665
0,0543792491730897
0,0538582597269068
0,0544666654302489
0,0531152647394858
0,0549859068438524
0,0533825996666499
0,0567059631972375
0,0547173937851644
0,0547328298883658
0,0545690889783116
0,0559437795632795
0,0540575181661029
0,0552164476790298
0,0524780815271669
0,0544203408233815
0,052868758418176
0,0535722281856038
0,0539426633382741
0,055108345183403
0,0543842739058679
0,0553330076174442
0,0537252537614539
0,0566319677484946
0,0549841812076167
0,0552776119606524
0,0542197215789593
0,0567863748580443
0,0558033228177919
0,0545841238434627
0,0541285966583768
0,0546636201228732
0,0533484786790727
0,055307671103979
0,0532836851298608
0,0574938597971349
0,0535110065604797
0,0555696457750817
0,0566014110747462
0,0547369235302585
0,054670004535771
0,0557583237804571
0,0557470266502608
0,0565542166742808
0,0543534109481832
0,0557867231340121
0,0541909122635664
0,0565167290030287
0,0570488267461218
0,0570636674478416
0,054532703552321
0,0570261774967922
0,0542419606055662
0,0567146712628568
0,0561939258353349
0,0547954526698056
0,0554212073196843
0,0577547303702216
0,0552950083698894
0,0570829623371552
0,0546002936295599
0,0566357692565529
0,0567982825523591
0,0585941289322104
0,0557505040241089
0,0569577241117612
0,0557017656574625
0,0564446586279853
0,0555132508695931
0,0581524958953694
0,0542426581796749
0,0560813666022416
0,0580049065235534
0,0583527078740654
0,055927774556489
0,0570604921364569
0,0575078060668785
0,0602332377907881
0,0559083652719195
0,0577109769379184
0,0566921923597008
0,0581086716241496
0,0567039910319307
0,0584812190678766
0,056331303427154
0,0585377799995158
0,0575038348087624
0,0584992862479215
0,057044312943154
0,0583258926960558
0,0575078681536549
0,0587485359715791
0,0559390283850376
0,0565130898870129
0,0568986586745512
0,0575446886935519
0,0564304083651904
0,0588175749393488
0,0584069818732177
0,0567118016491663
0,0565824652333199
0,0584117377843901
0,0594349864149675
0,0609971827323378
0,0582366880015234
0,0602213382184886
0,0586524091841013
0,0590248656727089
0,0571674353115748
0,0578983688097302
0,0556507601224638
0,058620651273939
0,0607669674868839
0,0600180107337064
0,0610799959906664
0,0622473657461918
0,0573119661837107
0,0590813646980994
0,0598064279588285
0,0600204210453164
0,0605177298602519
0,0607364458804299
0,0601689428356865
0,0601369602944349
0,0591358557559145
0,0597327201178188
0,058954789428125
0,0605638245055601
0,0596722082068439
0,0630664658553845
0,0614852805314653
0,0601900930369804
0,0602620974498354
0,062224157097666
0,0588938307942766
0,0578658888897688
0,0596854733466964
0,0614349000582084
0,0609440523639323
0,0615505711299539
0,0610506670697169
0,0636917560833888
0,0626047554058266
0,061114577139551
0,0621823614808514
0,062964177835813
0,060016929546331
0,0623054428308757
0,0601394426586767
0,0635026197614114
0,0620456629031669
0,0609151118985567
0,0622927440994368
0,0616572642103319
0,0601215376828185
0,0635543076420246
0,0613625673035044
0,0631757079450054
0,0625656716279786
0,0636261881067325
0,0622856966928046
0,0627641556418986
0,0629480130551009
0,0617288295385333
0,0614634887256551
0,064413785080254
0,0643220706384938
0,0648214400059937
0,0607327536318198
0,0635278735341043
0,0648921363237725
0,0628169873412381
0,0629557462860198
0,0668242418224382
0,0626917068095309
0,0630954790436555
0,0643131901867431
0,0658037526949029
0,0615177152193229
0,0659595147422808
0,0651969984480514
0,064752957063917
0,0644143288055734
0,0660971024516016
0,0638273794001842
0,0650280305750231
0,0656303660289868
0,0656069719185496
0,0641123939766037
0,0658550350961317
0,0659530763265718
0,0661292427833736
0,0654941674190502
0,064576236498716
0,0662544072445019
0,0670050363568959
0,0651650558707477
0,0674650748023692
0,0640402460617015
0,0657575275805109
0,065076438486128
0,0681152306728045
0,0642890446081693
0,0697614424021062
0,0679490303573424
0,0639165383900411
0,0629295270268539
0,0710758110497321
0,0676465275282339
0,072695932578684
0,0652266054511063
0,0665307222282743
0,0627702290886885
0,0647160720229897
0,0677390292804712
0,0653633597187449
0,061683147489821
0,0672738962346233
0,0683573571205497
0,0665996189955267
0,0611469513186167
0,0684258865652171
0,0622237901356043
0,0687190226298356
0,0665990230173779
0,0684001344067123
0,0692869581970745
0,0692578357328843
0,0667794409654531
0,0711415507673077
0,0707181935056484
0,07148304544622
0,0694956907148425
0,0731494521017809
0,0676385996685689
0,0746262209530958
0,0696816813836892
0,0746951668240123
0,0629495477566371
0,0727392483808001
0,0660152291065476
0,0741441814205145
0,0636293203122769
0,0774065763004428
0,0577726300370558
0,0806401674386634
0,0664006267487302
0,0811967816013066
0,0589683807139215
0,0809663448322177
0,0533734569212461
0,0873182965956378
0,0603468547127776
0,0888617662221917
0,0546211115883987
0,0859715477680236
0,0552991284694683
0,0921438541404624
0,0533522976303008
0,0855952074080624
0,0609093111158254
0,0886716679604066
0,0609578635177919
0,0807866238672157
0,0701465463940348
0,0759383523964956
0,0752881926599493
0,0719103173932125
0,0804204676533322
0,0687814580858806
0,0812728923975821
0,070652631061852
0,0819339380292737
0,0752561586881487
0,0769833269771008
0,0736648054159778
0,0743877672939134
0,0783399485815119
0,075810480259129
0,0760809658426158
0,0756243874627559
0,0771986716407344
0,0762715389292527
0,0767537511981936
0,0785888546833899
0,0774611254215646
0,0774560205491305
0,0753877149335702
0,0785039178487144
0,0797306761123467
0,0759066262385239
0,0799289126324482
0,0789060721108397
0,0769092737734933
0,0791481782273875
0,0760609368898674
0,0774418537469399
0,0800879419958173
0,0799795168992764
0,0802070148784389
0,0793531936093108
0,077411989474243
0,0801720674187357
0,0786564135989125
0,0802196796806513
0,0808539124465465
0,0818650622207576
0,0816077751594728
0,0787481064318966
0,080132195795895
0,079729566429314
0,0818375173817132
0,0831873875418493
0,0818032800676047
0,0812290025148513
0,0820025347477082
0,0856269617525674
0,0832935935495855
0,0835923880799372
0,0858859688709415
0,083787117718551
0,0836705358427095
0,0842596767045314
0,082129777402863
0,0817812182419865
0,083849559800866
0,0823980558986975
0,0856832315583006
0,0845839541259971
0,0851242510907925
0,0850908247673968
0,0870316422276597
0,085921360948233
0,0846148735227608
0,0863084190246907
0,0860165174772368
0,0880477012113701
0,0861644464808431
0,086221553095526
0,0871507308230324
0,086054066547575
0,0862939667365429
0,0870324896123063
0,0882821729804042
0,0893253800861936
0,0886262008915701
0,0893051406400815
0,0901673472781815
0,0872136818954601
0,0880848864093968
0,0887264229190257
0,0863188987932261
0,0874539168969678
0,0878139949024794
0,089642172572511
0,0897334725845189
0,0898139138222276
0,088671422606554
0,0913587498840127
0,0898145169642778
0,0895120712676724
0,0893580594397361
0,0929326606023064
0,0923043280243172
0,0902802239256966
0,0897839779794144
0,0909148402929635
0,093094491378003
0,0944617720293343
0,0925302622525541
0,0928891085605243
0,0922723267687598
0,0937309935576075
0,0936962229911849
0,0955976747682341
0,0920802745570268
0,0956429167133348
0,0939227828575616
0,0953130895092902
0,0944707250638691
0,0958996563130436
0,093900140012292
0,0939416072558271
0,0966065281617008
0,0950513169756402
0,0963841422423692
0,0965708043688748
0,0971168272443171
0,0972961474275754
0,0970692963693012
0,0969158089620192
0,0972126805215617
0,0998044546229613
0,0986428608306463
0,0973565441906542
0,0975071674104341
0,0969278683134022
0,099368764208798
0,0979250439516687
0,0982881770487476
0,100369748834578
0,0995268039970399
0,0989613036507868
0,100880240763402
0,0985713989099835
0,0992329810633528
0,100865367091023
0,0981090314121499
0,0990651428291696
0,102513135770295
0,100110784540529
0,0976728457233436
0,0997322415316127
0,0994041610161443
0,100473875001829
0,10060288844361
0,100919559493991
0,104125650046675
0,103048144358265
0,101353822909828
0,101454846070206
0,103025618994896
0,1026797022448
0,104998485417788
0,104969804587888
0,102941112963293
0,100921257277631
0,104828524955856
0,10261667850094
0,104734469958288
0,104230980784673
0,103420528641919
0,104618479093821
0,103966556736489
0,104049926796208
0,10318727136137
0,105685064438769
0,101795889042807
0,105093906110852
0,105524371730148
0,10693817351606
0,105492605692956
0,104618186153463
0,107036697250227
0,105602315844701
0,104376092670174
0,105104394066279
0,105604360012457
0,106723750299238
0,106449872594606
0,106089827722525
0,108176477287931
0,107395297807048
0,106020313928431
0,105237864438961
0,104761139022977
0,107755957484914
0,107573581067089
0,107922284481208
0,106356274298633
0,10429730577753
0,107110726386272
0,107150028939888
0,106943711063262
0,10769530604676
0,105789331022344
0,105945491500727
0,106878039772328
0,10853740210519
0,107796002070376
0,107437545604929
0,106924200757659
0,105407441670277
0,107268696170992
0,10722511321561
0,106774210475478
0,106008790628768
0,106972827647858
0,105219084327625
0,105625800742419
0,106496227897636
0,109086330873142
0,107284335949028
0,10686275582513
0,105230778722394
0,105724566287701
0,107074201177484
0,106962862405571
0,105101165339001
0,106522660325818
0,105666560796104
0,106640746593715
0,106162585218024
0,108166572989747
0,107152391783024
0,106566199464458
0,106371828618805
0,106590261509459
0,106771300406506
0,10572531485431
0,105974912565884
0,104469750686563
0,107918926556504
0,101301839753546
0,103631934444766
0,106925150364758
0,105493553107575
0,106569506845732
0,10583065858704
0,105199682218251
0,107080838016303
0,105551196765541
0,107878314898832
0,105440260802608
0,106257562089481
0,103083320953688
0,10343647317175
0,10655111001868
0,105516901571661
0,105340236679838
0,106463830691778
0,103588812437985
0,105012684033944
0,103117696615612
0,102953572200726
0,103793379038406
0,101025059154587
0,101280732002398
0,101787767802798
0,100978972324549
0,103434299965134
0,104239557557002
0,102616805029532
0,103335810981002
0,102407986713563
0,104575200147824
0,102709771816369
0,101547226486579
0,101606666458815
0,102070687790274
0,101191574647696
0,0996143751769024
0,101207684313464
0,102241360620114
0,0997761622468791
0,1017740270887
0,0999636425629113
0,0993358275023315
0,0994664981423129
0,0991542033800331
0,099787809732933
0,100463428548401
0,100575349025908
0,0981481487215713
0,0978082691802285
0,099596115817306
0,0981629995083726
0,0996266720219902
0,0992177258284234
0,0983041470778028
0,0994671825157052
0,0986004376723297
0,0964186376179934
0,0961042021000549
0,0972697160911391
0,0968828610282824
0,0966268202773665
0,0963849041780329
0,0950609323540387
0,093933055080352
0,0964112671471744
0,0960750245887119
0,0963291420126428
0,09473633471537
0,0950676447923543
0,0931020104646712
0,0932635331052846
0,0937387681836265
0,0948388621221214
0,0925246410017369
0,0939006672307888
0,0930208597866669
0,0955585671731206
0,0922596328392601
0,0936268306910393
0,0904775311855208
0,0913488241459163
0,0926440609815952
0,0936641635979892
0,0916623173306179
0,0912466216958935
0,0908593551147803
0,0915480073113866
0,0895994289472301
0,0874490719382472
0,0894862139515308
0,0902363217115555
0,0900512638850663
0,0910189501783663
0,0872293643442263
0,0889763117276623
0,0885204164535007
0,0897798691069365
0,0918168284984059
0,0888949111985843
0,0869926580544126
0,0896556063909042
0,0868093255894374
0,0874704388275321
0,0868860929590431
0,0867023603392296
0,0901066106591911
0,0863154771338108
0,0864415684068402
0,0833898637225036
0,0837573423844684
0,0840231771708601
0,0852940560205762
0,0847918980508992
0,0854488311293834
0,0818348609407422
0,0832229506467066
0,0843020384747511
0,0840074089041577
0,0832194299428437
0,0823458453619015
0,0838294474933122
0,0824632787947844
0,0837833394071237
0,082945136521977
0,0809568549962134
0,0812564665738899
0,0800048681096468
0,0814237578573331
0,0808490711317558
0,0822060959529703
0,0811912954550812
0,0829669863416955
0,0814342672293327
0,0803081904168395
0,0789489398000141
0,0814588325684469
0,0801341783833615
0,079554431159105
0,0790867275306107
0,0786811963743156
0,0785203858851877
0,0795016264404251
0,0791273927709028
0,0799631352281755
0,0765093933325967
0,0780166319376667
0,0787926288928059
0,0767825078252604
0,0757378410878142
0,0796570237496283
0,07562858963215
0,0755854621168962
0,0790490047766913
0,0747531966456281
0,0780481448361565
0,0783454287932285
0,0765224184984769
0,0733299082153383
0,0818893551140149
0,0737299218059369
0,0784221432903462
0,0748699557117271
0,0759531848772378
0,0740657412817486
0,0742621455949018
0,0732651941092303
0,076701036447171
0,071173081906048
0,0743821165500594
0,0728591694285518
0,074786728448569
0,0733664893729138
0,0741079123712523
0,0733867696768963
0,0748109108743368
0,0735314504350726
0,0713628118797333
0,0725835729771615
0,0753013141740664
0,0741979257539526
0,0757503293371492
0,0711154056933631
0,0745928976496587
0,0697642781798063
0,0800709614481935
0,0705833092377357
0,0684453549026564
0,0712209072120528
0,0715269860807717
0,071638279909665
0,0698136420324042
0,072402639245031
0,0695624165611949
0,0742305430155492
0,0682938646590924
0,0746610185329872
0,0682534873921985
0,0712201384698748
0,0674976496373089
0,0706956331070376
0,0710501461335844
0,0715055716266385
0,0711240176099082
0,0705485871346962
0,0681804084599478
0,0695290667160719
0,0661911661651914
0,0694666849317456
0,0704902998160181
0,0719493763748624
0,0670189369213956
0,0711826175897737
0,068103659590025
0,0701425396253111
0,0679590935975128
0,0735867193051856
0,0641130742029538
0,0710838253242166
0,0660625340192594
0,0688011501180091
0,0696326790350623
0,0684050416613665
0,0679362012030127
0,0672872052925664
0,0686252866820651
0,0680230403334133
0,0675350964440069
0,0694374434810186
0,0669149771902908
0,0652131151395742
0,0699315564414663
0,0686005186718045
0,0681638611539426
0,0677601958697154
0,0693634394927069
0,0661025133366963
0,0728627674387545
0,0746419812126378
0,0668853803797755
0,0757700586044747
0,0689356355999901
0,0692251917597816
0,0670759539356473
0,0700324917462359
0,067037112844614
0,0721287297557576
0,0674073082742779
0,0666859670262888
0,0655489147687602
0,0680704536628816
0,0666097372201701
0,0686960618358247
0,0659315941308148
0,0704851515316537
0,0655363671743896
0,0692632028247798
0,0648873839608103
0,0704777477484587
0,0663887122933172
0,0710913307719998
0,0701200059284627
0,0696360997965998
0,0669191109494446
0,0697404843380404
0,0759029000268608
0,0652728696554199
0,074886419305599
0,0657574556989533
0,072801547729853
0,0659304765399867
0,0694783948247387
0,0699484363664139
0,0706897119149094
0,0679818926183192
0,0707868367553842
0,0673559443744298
0,0682837027173774
0,0690747498436348
0,071866848366161
0,0800169065007943
0,0695626141570961
0,0711016424785809
0,071237149805503
0,0684622940645564
0,0808765708683146
0,0656391487994633
0,0716949827206663
0,0723396195227639
0,0690407559271997
0,0707011119720082
0,0697901253709677
0,0686120723421962
0,0705360626948235
0,0732188425135264
0,0716606444567003
0,0731349990298993
0,0703324918881807
0,0726847177725205
0,0702390715535216
0,0718150784930711
0,0750707611282516
0,072431708454605
0,0751230028953276
0,0766731886850635
0,0737566741267882
0,074790347677333
0,0725711955133272
0,0724502418884638
0,0733311298183375
0,0809355695834792
0,0746188821649041
0,0789495202267522
0,0773728045549314
0,0732976133259131
0,0772125300792178
0,0776827978987774
0,0774709262850261
0,0768472180467148
0,0719970717252487
0,0888526657508387
0,0680411742823119
0,0892495893322126
0,0705094667735281
0,0814463392936971
0,0748069630984752
0,0840191853824523
0,0768072466142696
0,0869063397930624
0,081953951912617
0,0801129054132178
0,0804896272547321
0,0801674351967256
0,0894254421098755
0,0786159751734177
0,0869373066447886
0,0809226777616854
0,0839031955843507
0,0834987021576097
0,092148747992101
0,0782114584065597
0,0934566540127852
0,083768255358032
0,0933291381289309
0,0941685336831482
0,0812594023384486
0,094234936965591
0,087800134552698
0,0922319185386774
0,0895377528661277
0,090504476711297
0,095840667357015
0,0872851543007093
0,102749740362686
0,0963296312206604
0,0918801137123351
0,0977097614256816
0,0928680260746924
0,0992170554803892
0,0998547191442956
0,0968684413898801
0,100491897100578
0,100463661343051
0,101634893461355
0,109239132929419
0,117976464321748
0,0974975685825555
0,12199210217491
0,0982604818181338
0,1154829837495
0,105936053775118
0,116720653906095
0,105117687012217
0,121142659950411
0,110360786116259
0,114906645771821
0,11293401273755
0,127297898274213
0,110518711797425
0,124416440185802
0,11972512292751
0,122176839338282
0,128805295139057
0,139799736634319
0,126828943834154
0,133304156432775
0,12670024367551
0,13536287291585
0,133114999247106
0,136399574822181
0,134858925626975
0,136564704582697
0,138318151410769
0,141798605877675
0,146702644243761
0,145895597484812
0,143750429399527
0,151131711181053
0,148448148882865
0,161713664768133
0,153962520439153
0,177992797805404
0,155037954611624
0,170326218494642
0,162620220289777
0,173747866934699
0,177309780374231
0,17115972876068
0,180807030886327
0,182635531438834
0,184408760543249
0,186059216093963
0,192423800174162
0,20540259073252
0,193558580817856
0,215346700474913
0,19722762285607
0,213939458908708
0,208584127718044
0,238869745777436
0,244222366307689
0,223180532778825
0,228941338941831
0,225312568294152
0,266068874469876
0,233750528681584
0,244199895314324
0,244703285137952
0,253607837056442
0,25811953080917
0,268368733049354
0,270874366158215
0,274016660404837
0,281227896068725
0,27969196073208
0,285596613388341
0,308553785664167
0,306699316065918
0,313545470440522
0,300640179062119
0,314767413606615
0,322158410285204
0,323236257091412
0,327605613281237
0,337169230325065
0,333288306715616
0,36709388055841
0,340211291380447
0,359853289505515
0,351980796104466
0,375046082580799
0,372598006308809
0,378312863862802
0,403900529343636
0,372682959204987
0,397575400016313
0,391888326485004
0,409568340894986
0,401120959690763
0,417832933924592
0,42922760643487
0,43159840638459
0,430254879570201
0,42702995600224
0,436535048472957
0,447802924769465
0,45084309478224
0,452501568210502
0,46092321815144
0,482802786408184
0,497411910270219
0,550206736413912
0,456577945242719
0,48372274400312
0,477050216784945
0,498664303695735
0,493880000049432
0,509511554946153
0,522403978930759
0,493331129836314
0,50597964079473
0,503396846368428
0,511868483222024
0,516480422587542
0,513477313231293
0,51847888706905
0,520795951085829
0,527803333939688
0,520288956204531
0,581170817468353
0,529820034020898
0,520493211369251
0,520841605574824
0,531032297578369
0,522148784061256
0,524976741825174
0,507544127253614
0,523808564469723
0,513611287334294
0,49550115792853
0,497482889613547
0,499010762913119
0,510541622074117
0,494598246300087
0,483177242229243
0,481648356509601
0,475231591531239
0,478951254621159
0,467699856055317
0,49276043856204
0,462122740761384
0,453157315482866
0,43514300065775
0,435252296912066
0,428607560879675
0,425507454254823
0,416287734819328
0,418393051903842
0,406804632114245
0,407949451842144
0,39298781132715
0,390439716758305
0,385077622613494
0,386561781364457
0,374726613172802
0,364981263142123
0,359643102196867
0,360518042820198
0,358074582155297
0,352090231750742
0,349693052168301
0,339661821378262
0,33987920283673
0,337244833255097
0,330109894153131
0,328535932782098
0,317804249917017
0,318026658158791
0,314214018396067
0,309573970871051
0,310701585355544
0,311185677816336
0,297969750673054
0,298882478554082
0,293584325029027
0,292881141311345
0,290790203927874
0,290002354565744
0,283528280008334
0,28208203395181
0,277774686029181
0,27964743282965
0,279613427531761
0,296601799651501
0,264045865515945
0,274675639207116
0,256887533498606
0,267880314523645
0,256357019594302
0,266038641563931
0,275198867165159
0,256410716066789
0,256545097834658
0,247733310660156
0,249428501420015
0,261401158806988
0,245490295840259
0,247543786872946
0,24353252838565
0,245180248110764
0,2743808747504
0,243630590104946
0,271264923905791
0,232135729743364
0,236398990147247
0,236770248914753
0,253326567955529
0,231220418854019
0,231600531236558
0,233649765731734
0,228400903735525
0,251268594981321
0,224624582332374
0,231582666172146
0,221299154245215
0,226102461946661
0,238382227680329
0,225077235204727
0,220921793901768
0,238483898565031
0,225219928558626
0,222725178280208
0,229362761185761
0,235662416351924
0,219082312508808
0,208365890495528
0,21644666992155
0,212154088866281
0,218854936810708
0,218523747372912
0,205159133526967
0,214618280343515
0,20380876007322
0,212287678566899
0,204423284530496
0,217597041945989
0,195401178739539
0,218712285740354
0,206692599007655
0,199471432936797
0,213547114501153
0,204735276407337
0,227285840442589
0,204392186598903
0,202643462718498
0,195996810597757
0,215033813568723
0,189447368769986
0,201893296598329
0,202147969814345
0,194580355192994
0,199272609576473
0,198787122089314
0,191208274662138
0,204436205909152
0,19543464920864
0,203390432787401
0,202140203368541
0,199213941477484
0,201349175080976
0,183819440577758
0,189508955690635
0,189270027217104
0,188888143558059
0,19246195098449
0,184076782227689
0,210335596596263
0,18069264287911
0,192521027337245
0,188289421097345
0,180993582077902
0,182390402628802
0,185745575865389
0,18635583718745
0,187756585863884
0,186321161452267
0,193986113188118
0,181457475715287
0,19498462204278
0,185847459323967
0,183957625715919
0,18234300698599
0,183562257864582
0,181330956209307
0,184968760998355
0,188257915541055
0,182946219979605
0,181711943290769
0,18849662316867
0,176521718343091
0,197500936287356
0,183588795718232
0,182232649300227
0,198010037907995
0,182567056465503
0,197031469165832
0,177640700729191
0,182303625270854
0,181541125841126
0,184443051081413
0,188155288243199
0,181538960590752
0,195545397130429
0,185313352041627
0,180279324753211
0,18434152543112
0,182555618300508
0,187723501194622
0,180939604759359
0,194368034560824
0,178643786748261
0,218785444446529
0,177599322044788
0,19193188380451
0,181056933621686
0,185080554628264
0,187428230728335
0,178246860906129
0,186954854032857
0,18069236733934
0,187334586435344
0,193474893311281
0,179356632832026
0,185091119712624
0,176429984142352
0,184611149570949
0,184427635896954
0,185133272782301
0,183751975806517
0,184986886488324
0,185403646733345
0,180644671191035
0,191434642474208
0,201817895191675
0,175854585553726
0,189677977773755
0,179262553234019
0,186941922679724
0,180452730261147
0,185506048191952
0,197014678693312
0,182745579606011
0,182233429209817
0,185565127406727
0,182461003729427
0,182277931091023
0,187681279518262
0,189214125914363
0,179862940727225
0,187361353244056
0,178448028783587
0,212586134424916
0,177189514000669
0,188856437967737
0,182429047698949
0,185219358231949
0,185361933175311
0,180175788307249
0,183844512828124
0,186758408268802
0,184954663703211
0,185395692841392
0,186124782066654
0,1863801823263
0,187622634972519
0,181849169643779
0,184943851695468
0,190094610053374
0,178676993959834
0,189803263056203
0,18244675003513
0,18774187297157
0,180880466366839
0,193196879333063
0,17982812980354
0,184997531433644
0,181740493793988
0,18651823467007
0,184407879147577
0,183522213562311
0,179242763711233
0,18597864215723
0,178328398239912
0,184496538583485
0,176271754869861
0,190910022924645
0,182980018923604
0,183212680118691
0,180902567007488
0,180122708077346
0,18147021768518
0,184083738171668
0,181581678718231
0,183689363387688
0,183845433023365
0,183931003520526
0,184446833249727
0,183492684542589
0,183168397221782
0,182346303244866
0,189609876664472
0,188101358659979
0,180898970354722
0,183906331437067
0,180262372931307
0,185561979487874
0,183223131116115
0,181310161139047
0,180473022290862
0,181653935349324
0,177585628219447
0,182640795563628
0,189023859464798
0,179462689047749
0,183742623078912
0,17577730941116
0,181031321543697
0,178411769676942
0,181459555253364
0,181440170648208
0,18221649439896
0,179131644710795
0,18083109639622
0,176521891007013
0,177171542008101
0,178137240555741
0,179464059100346
0,179990683089132
0,180650673298173
0,18051661974694
0,177435747152979
0,176923158887625
0,177735921004497
0,176742083520706
0,178826605684527
0,176445688741268
0,18124837441155
0,176500252113046
0,181514860944954
0,178117805739447
0,181606771604615
0,178929089248428
0,176635824380452
0,179026105222152
0,173961197591274
0,176997154133704
0,177604397730947
0,176104715331672
0,176081636403249
0,178524291134268
0,175659227705684
0,178052464257621
0,175745397818597
0,179218126490388
0,176396495265496
0,17954234302829
0,172835890844294
0,17880399463701
0,176077739865666
0,177376292177775
0,177056097229558
0,177931480070159
0,175377799568175
0,178280726103503
0,175566829454392
0,176639960579576
0,178415882042893
0,175339677273048
0,176533229362935
0,174503176338564
0,176024105534192
0,175972272205866
0,17360238393578
0,177478258830097
0,174125175291338
0,17668457519738
0,175758395084278
0,173399054467895
0,17215576450995
0,176798150317359
0,175778943618122
0,174365063843697
0,17194238029309
0,172947104743977
0,174100140304269
0,177050590139623
0,17448161529862
0,174520648132121
0,172860401620457
0,173219250309358
0,171846288558807
0,172551874427567
0,174940627220974
0,176687873572382
0,173894713807523
0,172675541947659
0,170815118498122
0,173221921757834
0,174324721143834
0,171227101309675
0,173018286737311
0,173408155469549
0,172738264976715
0,172114221074409
0,172697588395454
0,17510411581214
0,172537130072347
0,173890898374322
0,171765516618752
0,174032618617769
0,173125877174861
0,174616132930816
0,172780264434376
0,175041680217813
0,175167901717939
0,175347512248184
0,173781789003673
0,174478287746719
0,175465417551767
0,175381252864422
0,174383927183908
0,17371709623266
0,1739119349571
0,175687826683285
0,174076710404671
0,174042227935808
0,174045265781377
0,172950483297786
0,174020792126141
0,174053691411247
0,16999845720263
0,17411784373211
0,173750052665854
0,172519147406215
0,170861479832137
0,173184309525468
0,172465967241717
0,172735849975029
0,173518747907884
0,173542900067584
0,172307094112119
0,171685038084025
0,172539878837911
0,17201494500565
0,170438878795231
0,172930729042732
0,171049790481114
0,171561386517108
0,170593821931177
0,17079744360838
0,171561933474445
0,172100252485542
0,171446057164545
0,17121969132976
0,171061558188761
0,171629643358245
0,1728872683751
0,17122859944421
0,16913975812502
0,17031322831077
0,16941350576664
0,170501958796089
0,170008277884743
0,170210242421109
0,169429985642685
0,168288541329861
0,170557139150132
0,170673805867816
0,170673015566468
0,169277346842856
0,169404463990744
0,168591772875331
0,167726083600602
0,168154174890003
0,16671131383255
0,169115043594036
0,168051256383475
0,167490773396406
0,167171989302636
0,16800155534079
0,167349309394968
0,167736432291794
0,166267495989318
0,168157463355783
0,166554925948378
0,164733773129281
0,166855282593439
0,166939400112373
0,166926640901695
0,167890776822069
0,164386746822168
0,166870945746592
0,16561629927581
0,166362268367093
0,167148296574035
0,167446794997695
0,165829783272381
0,165442073507674
0,164968439397458
0,164446132780959
0,164034212542167
0,164973931830563
0,166254639569588
0,165979001082614
0,165426723269613
0,166483572840778
0,165656093118763
0,165176850311947
0,166641014170182
0,166557528631558
0,165927006250769
0,167509855739128
0,167767096629199
0,167791249410576
0,169794971001323
0,169972460542624
0,170452505140821
0,172794356587776
0,17390212935887
0,172580411024044
0,175253617716571
0,17738535711723
0,176776758383218
0,177475321433877
0,180074522483662
0,182767826674749
0,181227760101517
0,18215334803683
0,181817574980032
0,186013866964421
0,183656315170693
0,183717993530938
0,184289395598365
0,185179484425649
0,187067960157104
0,18807977139924
0,184967667926734
0,184680833250405
0,184709021071239
0,185692619541979
0,184760167158871
0,183589816048034
0,1832133920355
0,183290671296883
0,181642682794726
0,183221349370758
0,184333690821836
0,182942347948493
0,182626228146824
0,181963621026586
0,180948128869519
0,183620166827107
0,183701332888667
0,183567379592949
0,182803806962555
0,183088324623712
0,184680673826973
0,182957989342057
0,18380287101427
0,185401878414868
0,183792726714995
0,185023881036553
0,186950229439504
0,186963137160159
0,187047702575084
0,189001544459435
0,18868065799709
0,188615735697228
0,190313979813879
0,193177573321903
0,195825921380345
0,19680003524128
0,195588094119348
0,193911587127576
0,194965348593007
0,197584175277662
0,196436596121821
0,195869413390108
0,195322543537786
0,194378384190406
0,193318956231558
0,194383294980283
0,194833066541308
0,194437995521599
0,195557722356913
0,191923097817655
0,193127831688285
0,194294425505385
0,192506730228877
0,195033300911745
0,195266030653832
0,195691083031887
0,198198342912362
0,199632742351167
0,201033611264193
0,200382349310636
0,202666044917548
0,205205500888963
0,204839125250048
0,20610984740845
0,206516040496762
0,207693298171968
0,210094378734811
0,210404824377687
0,209223475539419
0,212006640512127
0,21159449740966
0,213828918942543
0,215845046609003
0,216040071862879
0,217360948133166
0,22046085278888
0,222504063333388
0,221837040616526
0,22421026428305
0,227462208781551
0,227774813090424
0,230363634622461
0,231999199545284
0,23139057927854
0,233050986007546
0,231848274135066
0,230987593746114
0,231404424130987
0,230981625841269
0,229903596177181
0,230067354269616
0,23072156461432
0,229040105554063
0,227760496234674
0,224941172354123
0,2242113386006
0,220852773659264
0,222239300083799
0,222203105316711
0,219736622713655
0,222083819612378
0,221710922683644
0,217610216351061
0,219559308872501
0,221904665075853
0,221211734312239
0,221188996197997
0,220194766255098
0,223699773124513
0,224930694824482
0,225223588106898
0,223807472605858
0,226151899605185
0,228393902476901
0,229255384134708
0,230313325022371
0,229253817952609
0,227845210733423
0,228242405741026
0,227793257639742
0,229824493059942
0,229636300316556
0,22916189700752
0,232234281361925
0,23041677395991
0,231346818568382
0,229897285510847
0,228572501222799
0,228802776164531
0,228442361277127
0,228852546466757
0,22736488568026
0,228595834235556
0,229854852657376
0,227845100834499
0,226597330782759
0,229167189941146
0,224451856968955
0,22250485289967
0,225567288417863
0,224440000164298
0,222938309915326
0,221099650542943
0,219805941899612
0,220404834034359
0,218561914070012
0,218235439781335
0,215914762331417
0,212189093203869
0,212407325785878
0,213460700964411
0,209780092950684
0,205080666819788
0,20562465076279
0,203226500437424
0,201129976181556
0,202818696142249
0,202776788967959
0,200919435110924
0,2001211614235
0,20134427704459
0,201622676502505
0,203568352860953
0,202042078464315
0,20161188451586
0,205310141476303
0,203413632679898
0,202717099044417
0,204073558338387
0,203871527842829
0,206642701876245
0,206325051296251
0,204079851075492
0,202969131904697
0,204597052687049
0,204529237448377
0,203526625511206
0,205181967503354
0,205413705194074
0,203481002271008
0,204333146359782
0,205630271256934
0,205500959201091
0,20590785277305
0,203086196594987
0,203102743908159
0,204331060979638
0,202217438178358
0,203335798779883
0,202720493849995
0,202672788396994
0,204559461521866
0,204539309146213
0,202227304460491
0,203714146056468
0,203660798753216
0,203456589422668
0,205068726954254
0,203119181736163
0,20551626632183
0,204329113173519
0,204412876494844
0,209190343177167
0,206294957760595
0,207046673416539
0,205456440018727
0,207128566533884
0,209695395585109
0,213092825255003
0,213114816674508
0,211776442247694
0,212559339589163
0,214039634881007
0,21326351695329
0,213365808415482
0,216562011325067
0,216422728865019
0,2150118868731
0,214135686620351
0,219733475234179
0,224740045932393
0,221688783311365
0,221974238751252
0,224431920343053
0,225405967275742
0,224090619923529
0,226136687293554
0,225435604508642
0,228444061707674
0,228954316992324
0,230014281884625
0,232375744095605
0,233363065035453
0,234824572577908
0,234601997203665
0,235705954945793
0,239329527805379
0,235038877457888
0,24246825991604
0,245491619524655
0,242918809406117
0,242945121925409
0,244698790300181
0,246840525370001
0,247194512168017
0,247307106298257
0,248981801567517
0,25210304889065
0,254331133533193
0,259087983987741
0,259335932901395
0,258757717568903
0,262130531938352
0,258803228666724
0,264814566115938
0,265055658102214
0,264509788425315
0,270221169761436
0,269525176605051
0,269597607697777
0,271875773384881
0,272747978697813
0,27657143553866
0,278564252010366
0,282409011146276
0,281826799173271
0,289459751874554
0,28823386103769
0,291064402773538
0,288277678672733
0,290120376210586
0,293188127375024
0,293081996632516
0,294609480206007
0,300210350519857
0,304091714962206
0,300627392235864
0,307433872645851
0,311888546651775
0,314485910779046
0,313892116136665
0,30821633188972
0,313345439626175
0,322268758313276
0,323157573921998
0,321216606458645
0,317808111546908
0,326249341917431
0,331585187461854
0,327434133689225
0,329827762266434
0,329362824983606
0,334951470189742
0,340669956751991
0,339499061745243
0,338062354884095
0,340078028562496
0,348506579326818
0,35282982058682
0,347967040744595
0,353329324624876
0,350828532219646
0,35692296732883
0,361755271955736
0,363676634604834
0,368044418832829
0,366190578673849
0,368629764449392
0,371058985784078
0,366147172841257
0,379470721400916
0,383395982331973
0,37077866226629
0,38236061570228
0,386801402764055
0,389004528675075
0,392742934341796
0,391532223424006
0,407910365848047
0,40463014098451
0,396260732896764
0,405012197498026
0,407125055336391
0,410833876376319
0,413606360519359
0,415646769717246
0,426967159823674
0,421696948670932
0,418715920315505
0,422800467618972
0,428100188581979
0,438214792772784
0,435149828512259
0,435044343968755
0,438404895641493
0,435765120155954
0,442694720925887
0,443217347203678
0,436560783122836
0,442725087949006
0,450357432836036
0,453319686484915
0,452483809859416
0,450064991184497
0,460118827058166
0,474358587177776
0,473298741641949
0,474408459257706
0,481846181851546
0,48128645161489
0,496757038411004
0,493828822181864
0,480166300948483
0,488391838206118
0,493942694338031
0,497618748697653
0,495545470125175
0,486330169705672
0,496003882528633
0,495918226569461
0,507986187571523
0,539211594902849
0,527868075007671
0,518521782146411
0,526031914022919
0,520422359188203
0,524572278934439
0,510342713188077
0,521306736626927
0,537516397280937
0,545762438544258
0,544674834088786
0,53558351852508
0,556852927038257
0,55640408757489
0,536772698053172
0,548490179710182
0,563063054360917
0,581484354518372
0,577506341868745
0,55727231821966
0,574455683233545
0,571580988210119
0,5764248888919
0,596969348759276
0,580385519632608
0,593632672086091
0,602655363356262
0,586179359710259
0,593970152903553
0,61033698235441
0,59703600762569
0,591764896384861
0,601049290019152
0,608918611102667
0,618226501679139
0,614321365434763
0,610138376093751
0,618439715956517
0,642287480705595
0,648051056407509
0,63018853740193
0,635855382367204
0,602815894883676
0,625775704276379
0,662924153968646
0,645999271597625
0,669131258691537
0,669692463325899
0,680890190765991
0,65743980801811
0,659971772718992
0,658418004823869
0,6348393637713
0,655600671965565
0,660581531613356
0,649874723858604
0,666254800475909
0,714441378574797
0,721687286842109
0,697858400181558
0,654741119943146
0,678652132812518
0,74326134346096
0,714616013797089
0,735143304619403
0,730124763566206
0,692327107900218
0,733272462973715
0,723914374381127
0,705428531650194
0,723492884500851
0,697454471374337
0,715513708989615
0,710846733970702
0,721868056833507
0,767566222876178
0,745814134957492
0,722337278915711
0,715815347566454
0,728656327672758
0,75104147465659
0,746971676664529
0,783714825937631
0,829076136030179
0,771474859485474
0,767618689371402
0,803998967384273
0,822544529265898
0,826187128561592
0,788283618446933
0,794031738972478
0,814217422305376
0,782602141966376
0,783357296779791
0,905889487346776
0,787640039842066
0,725047557391633
0,837747453367892
0,908852223787797
0,76123463094112
0,818144702827125
0,868765861458234
0,780998772176608
0,76325618739697
0,860010208282677
0,822602177313482
0,972603434412109
1,04246327304071
0,880202940504135
0,849069400564482
0,861007881006785
0,885467358955902
0,846525578652418
0,874835121034389
0,973956900643342
0,831426635827855
0,792430583067639
0,898549335062746
0,976414545278227
0,906365803361339
0,930905952948082
0,94672893631178
0,874799756250102
0,839635086613777
0,988524509357812
0,916651971885475
0,914446760146293
0,883602452076118
0,902275171314644
0,994933067554626
0,876969811971179
0,826134464295549
0,815838462308501
0,93043282119623
0,841244347520574
0,878621558702162
0,89912931815542
0,94919290942833
1,04447901756719
1,0121645338557
1,41614435868269
0,867837485244943
1,129961710905
0,857318844933201
0,720072961629325
1,01415298261135
1,05167887122749
0,974928308338543
1,12285923864569
1,06222615790386
1,11440124200733
1,01200733228013
1,19873825010984
1,337367520599
1,24808944728564
0,9657294287737
1,41756234525231
1,67238954060532
0,828358979711264
0,89186530875225
1,72642004129469
1,44625983251989
1,51647619443737
1,3205669315461
0,911175786838676
0,924092734344699
1,19244977907996
1,62661938256439
1,49097629812883
1,50701670255462
0,974408552680145
5
5
5
1,40546492166725
5
1,51282410995244
0,406407506127056
0,897198782952303
5
1,91030259133433
