3596
4000,36533379555
650,420452594757
1
2
2
0,0220954173143757
0,0380700930644995
0,023550256037074
0,0394390041951352
0,0164380558343187
0,0361415680958011
0,0198689749085177
0,0255822496924106
0,021330082718974
0,0323221217944653
0,0184612031439206
0,0334775872338094
0,0196095522059942
0,0439338730898185
0,0207506144696297
0,0335576807516274
0,0169368008793015
0,0393306947848329
0,0179546064613047
0,0280994856773569
0,0234214272439799
0,0378641523557164
0,0184892167846213
0,0296984645887965
0,0189217379647832
0,0386088850061729
0,0175072703743088
0,0338355881006017
0,0293801311011894
0,032426706737308
0,0232043937276391
0,0437982227124067
0,0205394696325536
0,0348278887798828
0,0162152200915032
0,0326663584230819
0,0189568121671654
0,0359285895966542
0,0166504803237361
0,0378738645107427
0,0264370684260814
0,0339522924951199
0,0230297136281651
0,0308468108197079
0,0188299849683136
0,0299851823422301
0,0170201446309211
0,0357699543443638
0,0201046558309669
0,041512804252787
0,0188559099140673
0,0392946420993996
0,0257484857022543
0,0401591446465539
0,0265231820916602
0,0356689138148635
0,0198998429122711
0,035194111267294
0,0222009853672486
0,0339442589165025
0,0313834082774205
0,0412790991672237
0,0133538466880872
0,0330407067958022
0,0205863396417727
0,0381457086464602
0,0156975685713979
0,0364765419149928
0,0180352690092889
0,0352593444330129
0,0257899547063421
0,0451449953487864
0,0214797128206706
0,0333927810874807
0,0198743054910822
0,037672453376052
0,0217169315155762
0,0448515029818904
0,0189275187253237
0,0353254539824313
0,0283439925500418
0,0385913889099213
0,0206655140882924
0,0400832743161506
0,0249491867679492
0,0297205374200437
0,0253205021311464
0,0260491110925455
0,0284109609143391
0,0270163759950591
0,0207852409249507
0,0329056640385757
0,0218950887257282
0,0287190357401771
0,023907456055638
0,0386368590577696
0,0190166334347642
0,0310890373945172
0,0208319248116167
0,0376207018768135
0,0416258004180353
0,0243528643637923
0,0291888841321053
0,0423800613996914
0,0318823699203296
0,046652935242032
0,00965261011864898
0,0531436559877949
0,0166722527797416
0,0374923402873017
0,0240492552057642
0,0396851145185213
0,0190776742517964
0,0365331209981139
0,0254739556795497
0,0551143479164856
0,0156620377646999
0,0273614460980292
0,0193232192584668
0,0336412295919647
0,0272297630579334
0,0383121427573158
0,0287314794388508
0,0291585045507628
0,0260706557705901
0,0368877489881068
0,0238699632136741
0,0522936000569783
0,0230549609146466
0,0230207272781071
0,0256038444180228
0,0287646666983518
0,0273265184397856
0,0356566623249067
0,0282164696603526
0,031568444552802
0,0271942470218806
0,0445601006537008
0,0395859189868041
0,0471234977578636
0,0173453522538169
0,028345959643531
0,0278414758922101
0,0402921515249683
0,0279551326549278
0,0379841455958619
0,0237275305824918
0,0275993020242968
0,0349081249766683
0,0302504024003436
0,0248734062384892
0,0361994173618873
0,0275579639551358
0,0308145689435624
0,0308449228372581
0,0658615135900993
0,0465660656422555
0,040185043546475
0,033721879897232
0,0255675512116105
0,0301161500665708
0,0352511173679503
0,0236830233541914
0,0322384691262395
0,0144308402796725
0,044355367521482
0,0195809645761804
0,0481544928899198
0,0208995466014706
0,0422878689037967
0,0162231335628255
0,0413256076561781
0,0227236894999925
0,0433573020235546
0,0315945706838542
0,0314202591306215
0,0314865705416965
0,0315713185176983
0,0253900518447296
0,0377817936936562
0,0259638270738555
0,0314033635954109
0,0235038073526131
0,036550431821755
0,0267290782712643
0,0355115473188597
0,0284235196894936
0,0333315393356899
0,0289965815817811
0,0392478946833661
0,0419049474921976
0,0305575473528114
0,0315374999724223
0,0346172006093324
0,0301930883555446
0,0418225714486273
0,0319988495700693
0,0412436054714771
0,0141318769439707
0,0379502083451847
0,0214455963983357
0,0331644226831487
0,0248794861000477
0,030057812909326
0,0336461123560905
0,0392859364993747
0,0234500633243029
0,026302030990404
0,0227367432827516
0,036421852835439
0,0276506497657326
0,057353127072854
0,021378137645327
0,0510665013743779
0,0177477074195101
0,0429323146519895
0,0283341421426302
0,0404806272580998
0,0305364201987999
0,0385907168551848
0,0252930134184041
0,0357039735540686
0,0258940376746942
0,0344132602758913
0,0240836760972664
0,0378103654479188
0,0291675948059159
0,0402275867199158
0,025602079813381
0,0371022101419112
0,0329235275806437
0,0385741694032194
0,0268363079798061
0,0393531670128804
0,0277264516535535
0,0410267512716628
0,0395999378185395
0,0397971417375016
0,0307094766380579
0,0363936444238787
0,0264009323870103
0,0391129476188143
0,0284044997287909
0,033767071034138
0,0380679091121766
0,0350054504855482
0,0303626556248131
0,0471057773483883
0,0231402008970251
0,049969641364993
0,033457332999368
0,0458811982221013
0,0254510005050208
0,0434017027220856
0,0213853809692404
0,0469488945525664
0,0403590571531781
0,0469444889009859
0,0314424758438077
0,0555677015283633
0,0402807652958136
0,0394638123808198
0,0233898761397996
0,050373795167302
0,0410499659751376
0,0621152472139304
0,038821128855288
0,0569655590438911
0,0271214988126101
0,0499141192377029
0,0277429539304682
0,0561650979075998
0,0445129801371206
0,0671299404901069
0,0248195926519108
0,0456406365348839
0,0481921436306888
0,0437439604649887
0,0386157893394261
0,0481646938128473
0,0456027502607067
0,0396246546631754
0,0529002380412363
0,0753145575033814
0,0473898872426957
0,0552788694042465
0,039839282775752
0,056633850697748
0,0300735881262479
0,0520792195353168
0,0274799545460927
0,0632232063081224
0,044231895412373
0,0678689376665166
0,0393481579092596
0,0648178050500237
0,0452111331205279
0,0599424942199165
0,0417178799350466
0,0572404407459243
0,0464367517371339
0,0620822801450075
0,0417691937144487
0,050089601410288
0,0444387736078549
0,0627454503527775
0,0518258515621602
0,0653747984878818
0,0560041815025332
0,0633997225529627
0,0496550504298263
0,0702310193983507
0,0515483005961694
0,0673215560865559
0,0565029406069433
0,069445063389859
0,057982386052549
0,0736772434873569
0,0637344603159967
0,0776936501709338
0,0643679594344964
0,0658161607447008
0,0636383790336242
0,0776525564617565
0,0660016524560257
0,0783428554528519
0,0656703964280053
0,0817930398395278
0,0696205272392564
0,0968066112841569
0,0895497075192329
0,095946358544353
0,0873333653927287
0,100259025344982
0,0863541561600066
0,089509795720595
0,0899763090028588
0,0935502884294407
0,0932792057463836
0,109497295079855
0,103166088709387
0,111732097979622
0,104682944800211
0,116728193723107
0,110606468423907
0,12407650278176
0,150654965733952
0,151695588862604
0,125771738018345
0,123981793462142
0,111595087595477
0,153589088221187
0,1171332348779
0,15990058800486
0,132595312101231
0,162007206937991
0,144032762216374
0,160638746813505
0,148208477499062
0,161056900879897
0,159441250740684
0,166820404968412
0,16560784443991
0,173096470584835
0,180319716942225
0,178996570715293
0,188802624234549
0,20385290318841
0,184138444126356
0,1968493183265
0,190690744477598
0,201126959611528
0,20517322168634
0,214725810107482
0,251332003924301
0,232629468743462
0,22575377426767
0,224466792723361
0,221817631314591
0,230336283089433
0,226096431672046
0,236656853601149
0,230583864247468
0,258733139659363
0,239288736748547
0,252471966340045
0,257473010007991
0,264536458210084
0,258050176607499
0,257936859302564
0,262818689236682
0,277758986360787
0,267860142176929
0,280753553796275
0,265962144924824
0,305789667439385
0,291108467321457
0,326558163366566
0,290235375260597
0,30508627291741
0,27764786719277
0,310932409553948
0,294413486585804
0,310163795759605
0,301770823988118
0,316991938267067
0,321607130999881
0,339616144641994
0,328657831975086
0,351062972974834
0,323624180521754
0,339664902302679
0,326618062869604
0,355801712593107
0,321938692175479
0,344782035157217
0,324177442260304
0,370540326744243
0,360196199178591
0,36887446117252
0,33630458034015
0,364069643274505
0,34935521331582
0,363195160655755
0,366252710133679
0,366198157642956
0,365958959564
0,376618449117676
0,361877381120273
0,38851716628199
0,382284932665803
0,401557826059408
0,39087343643266
0,39630663382568
0,399771406981556
0,403114499623103
0,378091686039645
0,408860092450695
0,395113644072004
0,424108544485271
0,415628013214206
0,450653434595511
0,422087375567144
0,41857744851891
0,414616578977078
0,438234888651376
0,420954877658291
0,451574893727704
0,422673492791138
0,447448526885649
0,437010959232517
0,45142192639162
0,444202939122813
0,459459768674402
0,456537270068922
0,454798728868768
0,451480344745829
0,477583378591611
0,461676124469438
0,48196885798412
0,460336057227337
0,518157522265249
0,49974072765324
0,531113617224446
0,497467155114344
0,523762589122082
0,478666231901023
0,473582557262154
0,472995189645913
0,496492913965046
0,49611563739242
0,507007670812168
0,510489690260427
0,536417801134686
0,521125537675356
0,535693821696134
0,514629868895855
0,527440086951391
0,531943453354604
0,527113749645493
0,531989414741022
0,556183547012404
0,543865254682669
0,559270250863579
0,543904153721794
0,570936672823797
0,567574905250467
0,572821709517513
0,549234589997147
0,57170402391679
0,571011094791407
0,582520594513172
0,566040776877808
0,611380148496804
0,574669213587765
0,607379231571476
0,58368238252143
0,640377063125391
0,597873165394009
0,589615733181081
0,611819798310298
0,615365535294269
0,612189278948126
0,629553913221729
0,618984294752447
0,650762392987055
0,609105573529416
0,635232997422846
0,623781300332577
0,623991390238117
0,636869552107138
0,693425999425483
0,649520690544042
0,660704133320578
0,650171861327905
0,656327752023326
0,679509196649149
0,703837301712012
0,658342946678285
0,67574016376046
0,656131442117911
0,682592796122085
0,682581108246661
0,683749204576137
0,67151572279338
0,730361548797059
0,712611815798461
0,701621309260841
0,693733006003652
0,719116268354198
0,711686153425774
0,726932405559289
0,674027624346317
0,727526713399262
0,74214782832719
0,733957131439133
0,742210651577742
0,74853915654382
0,729761187693194
0,75817532470465
0,746728829286207
0,763295901039618
0,751955056501571
0,779753799885167
0,74993606288646
0,754713561964142
0,740624043274572
0,76180257666794
0,770908496950481
0,817239345389342
0,781205026857731
0,79642607138742
0,758094277911675
0,79303714409795
0,796837533027683
0,864623012244254
0,829820566748266
0,778889485893283
0,786139596307419
0,815574130890016
0,797058139662777
0,804995935186438
0,816592566955083
0,832464800880354
0,81951695938386
0,864438775014579
0,83215492369459
0,831495586761372
0,812660344465403
0,840980985504481
0,894693883299811
0,879585517672946
0,843821462942362
0,86430095880024
0,86864636406442
0,890277313136061
0,918199311743006
0,910763223868597
0,88135054920436
0,91080047822208
0,910507269774142
0,928351493244749
0,907751747960425
0,909012809435424
0,961656322429734
0,95325662006616
0,86176947669426
0,927822718669385
0,901925237687586
0,923429954965107
0,980565527911918
0,919173282370854
0,931073257585934
0,990405604896957
0,938288360670536
0,966033710665635
0,966051048732978
0,969860228876961
0,982564144702893
0,970681533880023
0,94083251259401
0,98130901161817
0,945282058335716
0,956841413855626
0,931159970102172
0,929883338905012
0,967496484242224
0,995172429228593
1,04055778003588
0,982922444125287
0,988539326671693
1,03233749752858
1,04113307061155
1,08508705971005
1,09552584149729
1,10364028448417
1,02153325892583
1,07142844113466
1,03830007256456
1,04967388162441
1,08121215222117
1,0413535513503
1,04315376308143
1,0320487153921
1,08356300733938
1,1142871151002
1,09813546437172
1,08036786925507
1,09781060847017
1,07983391353612
1,04841214790676
1,10414628064952
1,06106387206987
1,1270115485953
1,089349176312
1,06794796136551
1,13815609477568
1,15187383676857
1,09736046276979
1,07739516419881
1,1064840235889
1,13653054207207
1,06983331954232
1,07863333091594
1,14275675217043
1,10732666726936
1,06473862828015
1,05851361367088
1,16709687293706
1,12333570110036
1,13712799675285
1,24388933939047
1,20805925671372
1,14958979439614
1,15412415492961
1,14125270420125
1,14909336507609
1,17592497758586
1,16275139436795
1,14389026627115
1,16537727863589
1,22489383392895
1,17135897038179
1,15099962697465
1,17030897337961
1,16678924018946
1,15601717054881
1,17794714494463
1,20852496052062
1,11998632645777
1,18542095814707
1,23177600729636
1,14200614731027
1,16608644929099
1,25892662800527
1,22948051997128
1,21390235074062
1,19102933463695
1,20605335500828
1,22448204194187
1,20847351760742
1,22409227880527
1,19296298559365
1,19218661160953
1,22011453074304
1,19930211986773
1,27208752132137
1,18570323031861
1,19734459206957
1,27463232382144
1,17867184214684
1,1869495378845
1,29659646650551
1,23396639096067
1,19239732448616
1,21339882587032
1,26095268685001
1,29197926587758
1,35758394464651
1,34059038821761
1,23893206819754
1,25806035464059
1,2120441094116
1,13244217702401
1,19137356834817
1,15174426734944
1,17489094897894
1,19482756496364
1,26720357218738
1,24041479382307
1,21840514094942
1,2233324182035
1,24224402043975
1,23563092392183
1,20010750968712
1,208318195873
1,22345611703971
1,19850398417016
1,23952468007493
1,16540481052124
1,24207606297873
1,2443013020085
1,16494297874729
1,18417333825602
1,25340025202563
1,23302266414161
1,23997067078582
1,20570790074791
1,24772824607252
1,2590524795816
1,18842914840884
1,26063117717436
1,34227607194576
1,27102475353438
1,23053163374684
1,25647135835052
1,203337667435
1,2080817678283
1,23148844338406
1,22871285297785
1,31598440050963
1,1763016890758
1,20178642852461
1,20662079886555
1,20290978055667
1,23107834930195
1,25576382293588
1,13057769392002
1,19967598271164
1,20599948762693
1,26513978606539
1,27216573070056
1,20544959826564
1,1947467969698
1,22928091803951
1,16428543657403
1,21932228936091
1,24345163255782
1,23534050169681
1,20950097725065
1,2607188847605
1,24159529830349
1,18945830288816
1,1958731760078
1,2380433521024
1,24590604978828
1,22450763579744
1,21232085133325
1,24803767394954
1,21100767608777
1,18979323432584
1,23665610763438
1,23449344152109
1,22588913951019
1,22997806063595
1,1611740168717
1,19398536869503
1,17835439076249
1,21806652070504
1,19307703968265
1,18992090409262
1,15568575648601
1,24348010366998
1,22565312690766
1,22959954347869
1,22203219678868
1,26497200804278
1,20322326363952
1,23938066266075
1,23135697610875
1,22496124997771
1,26327274902866
1,20188377495977
1,14635149796115
1,22650297035175
1,16064693141943
1,15681448245995
1,19853691950983
1,24809585091525
1,22173418008563
1,26075741429126
1,1976599349094
1,22544520415566
1,20950999104311
1,16425655152367
1,17602694262344
1,18918884228648
1,15920562335047
1,23642366445343
1,16628669967621
1,1894938294511
1,25747369000969
1,25571075678508
1,22925420878794
1,21074499312578
1,20071888961608
1,23014289397144
1,15810648921764
1,26178729168887
1,25869956840672
1,21863957776986
1,13017308044146
1,17245866255333
1,17307696246795
1,19715919830151
1,15107761195221
1,15436227600134
1,20353624755277
1,21654983758701
1,15171170631194
1,12071102384295
1,16618594088978
1,22567103679
1,15951028488258
1,1789126348844
1,16117741712338
1,15437538284152
1,17191953441579
1,18842788650209
1,17172974052592
1,16036929022361
1,17334794474336
1,16607924602805
1,11714217539816
1,15144485484742
1,14813700572073
1,13769100543266
1,15242085182274
1,14620462314781
1,0728839544614
1,11493081092703
1,16712955616586
1,15082122104301
1,10085246652513
1,11569863192088
1,12552321396924
1,11309020383468
1,1476015466511
1,12795160850837
1,05271180568372
1,08449397849025
1,10748733626306
1,09489591680618
1,03661325953582
1,0795944498555
1,09285672813196
1,07328134131767
1,07145752122188
1,04939779659335
1,09294787502646
1,07647272477332
1,0451209317144
1,0834276354633
1,04788079339271
1,07993116141211
1,03662272700077
1,02634499026093
0,99618596056721
1,03682183432035
1,04037202041942
1,01832644571517
0,99298949824038
0,974034662496057
0,960899438805015
0,985898178566576
0,98441259259131
0,991658248022994
0,931325837959477
0,974288118298524
0,96845264250158
0,972036288151269
0,975872305997678
0,963378870106304
0,952949678301643
0,948616356644377
0,928259441223897
0,944512385865952
0,960515709980921
0,94609198378116
0,910250220547554
0,923680137635442
0,919750447159513
0,909500127939121
0,887185678813275
0,897728852799459
0,907926000634605
0,928217684956193
0,885535534154519
0,895481759374705
0,861245671338276
0,868568898374134
0,872316561957381
0,895617167572588
0,851835145614026
0,845835185364954
0,84112657715661
0,832663732531423
0,828486137092502
0,852472178733693
0,819272059374152
0,837352544561661
0,82303098304462
0,811843169885261
0,7921666116485
0,789783500772651
0,773109905744907
0,811544761393504
0,799909090627354
0,786763742581074
0,787665414401886
0,783059238808464
0,755140801414581
0,766829567901705
0,744297138933227
0,760707499236349
0,746421249628996
0,760926525702348
0,741997242251895
0,74049526519021
0,712405459088754
0,734285916295298
0,717181387971029
0,72114254931041
0,705433235700453
0,707091979569998
0,717972692675501
0,717719136148498
0,682756964458093
0,694489168971348
0,673358486712497
0,682531029772887
0,676665986668684
0,679407564969216
0,664494377738809
0,668099533988724
0,651562178603462
0,656161298991988
0,660776385744933
0,659939404498894
0,639151095846437
0,648076448729344
0,634609904158462
0,654680454402441
0,638327738355701
0,624506077708728
0,605488736507841
0,620476634960701
0,601806506195371
0,61608556255286
0,598745877429507
0,595172456103031
0,575980285860387
0,598379763095606
0,587600865074517
0,582349551433113
0,572154793334258
0,570796209720869
0,565697171944624
0,574977210721203
0,551639348496889
0,576682199062006
0,558880598170321
0,555050039775476
0,535248867652467
0,542466845617503
0,541856188859048
0,538264050581302
0,526588521330418
0,52952301150255
0,520205044472157
0,51949310985963
0,512050113285605
0,514294632894237
0,501546345589681
0,514076466840185
0,499903431331388
0,507134885607997
0,495885429017548
0,497130470932293
0,484874637776542
0,484282758342579
0,487842606706656
0,48899371869638
0,471267985674545
0,468944413408539
0,473588551606398
0,474878309960803
0,464377685213723
0,459025876234977
0,45679259376935
0,457205663312939
0,442724076981518
0,447122536499166
0,437845393514125
0,444861424341891
0,433722948171178
0,43304652814813
0,434175024318587
0,439705966053935
0,432623836653958
0,42374694712924
0,413884802607749
0,418855784324971
0,411934683079497
0,406978673864501
0,413378514817756
0,413544086288306
0,406946459108983
0,403486274415564
0,389972176348131
0,39127840577136
0,388524530876551
0,380309334205896
0,388991496408519
0,382701280531126
0,378279522418537
0,385348756714228
0,372523277094045
0,377361283423179
0,373546653870698
0,368906486817279
0,362715945484115
0,364115907390982
0,35393709841491
0,365450685704617
0,347436612966859
0,346753325335698
0,354704541774455
0,351933875134991
0,34264795709223
0,342005731163079
0,348330904675563
0,341632118068954
0,325413363153393
0,329321571001065
0,325147946503805
0,330067552888115
0,32120491035929
0,325720485340198
0,317112822789714
0,319267027993998
0,311260151822924
0,312731946498808
0,306285635361439
0,308138504853692
0,299727929211643
0,310242970089189
0,299930511800833
0,306308700387576
0,297069950721667
0,296538456862316
0,293853960955419
0,297240891709709
0,293528927993138
0,292790099360195
0,286979825461144
0,283149912938608
0,281505505566042
0,27973946328308
0,272850610190953
0,280411552703641
0,271535394275077
0,273533478584633
0,268187087427147
0,270296320183999
0,263403780362241
0,264373901912569
0,262420352188253
0,26708843507898
0,258688414207047
0,254492352567332
0,25819129607217
0,256318033599303
0,246965839077612
0,254552047751905
0,248720759288183
0,25479474378939
0,246049629050329
0,251555259632474
0,242459316800487
0,244248100347256
0,244778057393264
0,243837307396901
0,233149720362065
0,236201771170748
0,231979582381166
0,230802558647903
0,22687505695603
0,227083861553536
0,224103356815129
0,228186135615765
0,223613665896557
0,227470741780492
0,217897377580798
0,226897080386
0,217286833442926
0,219104600261784
0,219532796495806
0,221628309615824
0,210661948405518
0,210265524554461
0,209168361171903
0,205637257131296
0,208032347690582
0,209627858875992
0,206604510024301
0,205397806229793
0,20129903111345
0,203291972390744
0,200896011371312
0,203160506061017
0,194659326541855
0,201838522871629
0,192944664714015
0,197268787234901
0,200062080440069
0,195829834564564
0,194226253641209
0,194611850190894
0,184853873408771
0,192920544909963
0,187234925548028
0,19166595115279
0,184542720243006
0,1888353264609
0,18221170318996
0,185570064464357
0,182574117201264
0,182312516157772
0,174616514025808
0,17824229340729
0,175195943265246
0,174735447259559
0,165638440608753
0,170169606624621
0,172306957213105
0,172552055110025
0,169930024453753
0,169108560301301
0,163219659272282
0,169600899763944
0,168625826584852
0,165224626042834
0,154169707492334
0,161052248417667
0,160608839118813
0,163735351529687
0,155843265404238
0,158383873378747
0,157540579713275
0,156926420824491
0,159051952765752
0,158075335078491
0,151761798591991
0,157239443630319
0,150346029917966
0,159304364709779
0,150441192845615
0,150973231074679
0,150670576942732
0,153340388785889
0,145951651066889
0,152107880818863
0,14590521253169
0,144126426802988
0,145257794081578
0,148896713506037
0,141527347819388
0,148406698568511
0,140420940002147
0,140235317984391
0,137270450457444
0,146655538323234
0,138586203008129
0,140398011127327
0,140611292441475
0,142526841158462
0,136011160234901
0,140873991056942
0,136781636883815
0,137680617934977
0,133412074881847
0,1339617154799
0,132728123882626
0,131190974432282
0,12576491106565
0,129036842012888
0,132274244736968
0,128686101092447
0,127863316629879
0,132468542277754
0,126342941127323
0,124106658513014
0,125574187748971
0,123723075236114
0,121193257993036
0,125514118165729
0,122884008433885
0,124615531962709
0,118808821000715
0,120700679177188
0,115091295945311
0,121308116863142
0,113177994670002
0,122691663231032
0,118442810737982
0,116839887162653
0,114951926760902
0,111880169589348
0,106759113523961
0,11563274370969
0,111603139289581
0,117902062904581
0,114670595420429
0,105250212573172
0,111341845384987
0,109068362257408
0,108675337595272
0,111353892315205
0,110917360554402
0,1084710160224
0,104067066201885
0,10785526892809
0,102936688387911
0,108200404896167
0,104594232089635
0,101714265705904
0,102814836895169
0,105859296832045
0,101843261389066
0,105178819498199
0,101183100956615
0,100380442944158
0,0976244072085469
0,1003715557273
0,100861741984603
0,104456147103998
0,10309469672964
0,0964224404833925
0,0940651922996589
0,098995152198521
0,0956930200962542
0,104576696556456
0,0960627033180599
0,0999015742270435
0,0985496717431695
0,0962401908061139
0,0935988141746818
0,0926309968687513
0,0915044185641009
0,0997256511795195
0,0920034593325291
0,0912868504357097
0,0910537807243008
0,0950834755873117
0,0908858736385845
0,0939761340189568
0,0904501819788707
0,091500007762632
0,0878433611820386
0,0896335066109278
0,0862537270642576
0,0921617377423875
0,0845437151369217
0,0879723218989995
0,0847506741668206
0,0884945286338947
0,0854497290303458
0,0870570393463065
0,085070590728452
0,0900165619296232
0,0877402101100398
0,0857950494774115
0,0836110894269421
0,0848125498249741
0,0830159658995988
0,0840798578110278
0,0786465656910165
0,0887173493909071
0,0867754532100971
0,0868630445289553
0,079214154707739
0,0865894030107429
0,0813945773183802
0,0848816614239405
0,0809392396020313
0,081470956300962
0,0793328136386979
0,0844294155706624
0,0786174436098226
0,0806356606709888
0,0789347645776543
0,0786317382084929
0,0760593982253044
0,0825543467373832
0,0788350929262876
0,0806508789627012
0,0780709311624708
0,0806360461105255
0,0755224902117952
0,0787241474820407
0,0723705994398492
0,0800787897302967
0,0772824683326299
0,0788513797514492
0,0762225267897534
0,0823351398340049
0,072787561567566
0,0806121529268346
0,0761545548508857
0,0813350647869821
0,0710560838638425
0,075095759448194
0,0723198535140609
0,0776112377679463
0,0724501363596189
0,0750293803698386
0,071730969012365
0,0763984124597199
0,0717175303379663
0,0753426210964789
0,0711609972429577
0,0718965664724912
0,0703469742797549
0,0729613355249385
0,0709843730561776
0,073349974795362
0,0729143047282599
0,0743951042394753
0,0718098747946338
0,072944652361982
0,0695985888654349
0,0726655637062355
0,0690625952213972
0,0718202976347351
0,0660027790147826
0,0695595468114605
0,0718598456492684
0,0719204630577916
0,0663636765910924
0,0727234635692215
0,0694937191010789
0,0701056702929131
0,0686121163709897
0,072883775149274
0,0684479462772679
0,0676535873705162
0,0679598110211426
0,0663832083843167
0,0678195075871221
0,067175463406015
0,0653181871075107
0,0703745827742251
0,0619412305510028
0,0685286165097174
0,0674319520864816
0,0689058684313333
0,0653208265404935
0,0703409430048054
0,0632214109621563
0,0677966497923934
0,0640201460488147
0,0678664842119901
0,0645729380226737
0,063731668647895
0,0648832977329333
0,0685994838067026
0,0654729167128623
0,0674435850938863
0,0650637027111381
0,0695678707434559
0,0663286983712681
0,0652796930515983
0,0626667773870586
0,0649397927037361
0,0603495375601756
0,0621704644850263
0,0614510121750647
0,0660258299339545
0,0639828381284565
0,0652624565307823
0,0614267930917836
0,0650904587338221
0,057704620842854
0,0642030468286635
0,0595641094014618
0,0666247307973458
0,0618046109493681
0,0658308891004448
0,0617066981943407
0,065635813918287
0,0579152357179549
0,0645226059823075
0,0612599666702524
0,0636810045559359
0,0603059574203802
0,0653540862971863
0,0617953364442166
0,0640012691308691
0,0587675048327621
0,0637961997754631
0,0608933298178672
0,0604994646441445
0,0596592968899556
0,0611430421661821
0,0597197576692688
0,0608735040963681
0,0604875037450992
0,063801617028992
0,0576942991397352
0,0656855857946366
0,0574069984286777
0,0604403525667126
0,0590649495373975
0,0597864856996925
0,056954485516502
0,0594852099806917
0,0567661098152419
0,0610746965246768
0,0609925730444465
0,0608376271638032
0,0581243268384208
0,0609731486918981
0,0592392296019607
0,0636182402422372
0,0586956246036238
0,0633978661973148
0,0581404138314013
0,057606498837685
0,0575323759543943
0,0584327065872851
0,0578747190729633
0,0609874591891812
0,0579393422185502
0,0575251252064237
0,0548839639460682
0,0622999652047866
0,0574624161649307
0,0583822887762928
0,057818022978799
0,0598088304233487
0,057985293240236
0,0556141551346518
0,0547057397027597
0,0611807204163129
0,0542070274738947
0,0596383507121429
0,0598244802951135
0,0571260732233865
0,0565646077365787
0,0586608462402615
0,0559000388536265
0,0610241547247482
0,0554809988269917
0,0583677496777685
0,0556244360237431
0,0555189161777727
0,0540962135814238
0,0563818468784172
0,055062387829121
0,0595111946556088
0,0559904431604839
0,0566270980593819
0,0571896484799906
0,0623698433009544
0,0584744988049875
0,060009425932187
0,0546231991842747
0,055216612412161
0,0567906147508078
0,0569300384834569
0,0567304825864469
0,0590387150579619
0,0601470148121672
0,0608371153301483
0,054706753069671
0,0603166201893697
0,0595750973130473
0,0536780640705904
0,0532760925692312
0,0604835551160673
0,0567079737219158
0,0581695556869204
0,0564356772067708
0,0600809020190521
0,0531558282260508
0,0571691044854762
0,0595919315695015
0,0586928294922343
0,0549476816111182
0,0576836049439781
0,0557485674836987
0,0568520314802116
0,0547298891976841
0,0575986646165218
0,0564340365851283
0,0568273676440692
0,0531309443083845
0,055721343580859
0,0571606759179295
0,0576808112229535
0,0533255191213751
0,055261524206223
0,0560263638421746
0,0600232925197132
0,0549514192264524
0,0582721669704416
0,0542500359872639
0,0562733085809521
0,0563566923041892
0,0582425715433432
0,054039091568607
0,0604530129732946
0,0550259509016098
0,0589730210755468
0,0554932537649369
0,0592106328187334
0,0558692958122582
0,0595285059680548
0,0580100201362146
0,0603128708113344
0,0580411196378178
0,0542845200223695
0,055980486493104
0,0578894422500627
0,0539107026439463
0,0560097037379295
0,0552017896310153
0,0556324450663541
0,0574115707441614
0,059735406164774
0,0570322474422173
0,0574807060496728
0,0564509071729349
0,0582322852625252
0,054459764876515
0,0580414147917828
0,0543401179661443
0,060711895737816
0,0579181325289247
0,0583959780262496
0,056640420710037
0,0575208700259133
0,0565501043515889
0,0543533894904012
0,0566464290142039
0,0590373617068608
0,0538081684156256
0,0605260515903193
0,0590119330762295
0,0578905923219129
0,0582570912494981
0,0577231930645855
0,0581776455101695
0,0586210899715922
0,0571303980975135
0,0573369731483514
0,0570818415051646
0,0631928835414473
0,0566405466965796
0,056362845553941
0,0592501322191392
0,0586272556707008
0,0557626416778856
0,0580332825253488
0,0569268043673406
0,0625743411324705
0,0561951012482402
0,057132062025046
0,0554087964916498
0,0610716694514449
0,060190703611661
0,0578727592062361
0,0570526313495956
0,0601063486725253
0,0562235218670252
0,061614666575301
0,0578846041360268
0,0574865251562771
0,0602401216491209
0,0594717596498389
0,0568038472288824
0,0596761779508585
0,0584175489347609
0,0613741467016835
0,0587151120259519
0,0613355953535806
0,0573928372445337
0,0621846795616137
0,0604628969159677
0,0617789316991024
0,0574769667939395
0,0593845701185614
0,0573075900134127
0,0600886470249113
0,0604034708706561
0,0625216188681508
0,0585859093626653
0,0587963821004257
0,0589840382030444
0,0619311452500691
0,0583649157082339
0,0625149966712076
0,0585790828069809
0,0604977486847531
0,0605169365234804
0,0601331964904561
0,0581232801704665
0,0604065231135784
0,0586197363039951
0,0626007248419896
0,059982247868995
0,0642201907452117
0,0616516837101752
0,0614383277549589
0,0589210748668527
0,0609264743825348
0,0585168935482018
0,0625769499549718
0,0620912111211842
0,0597460686779188
0,0581268536043935
0,0598762560795947
0,059545407096424
0,0616143945352257
0,0609679995584206
0,0632903602823909
0,0607024148805552
0,0615032313224394
0,0628113406170061
0,0622314827600456
0,0598936596382456
0,0625929181083549
0,0573534231294596
0,0610897737156185
0,0621444687527844
0,0629746851069135
0,0622633634552243
0,0632185952141291
0,0624789167421328
0,0633753677134021
0,0604732059205644
0,062867567424678
0,063958306672243
0,0630309091547151
0,0600981043709672
0,0619208735795542
0,0617276736746637
0,0610390704478902
0,0610666496267218
0,063536981765336
0,060464607542286
0,0659888668827095
0,0627908378311233
0,0639368836102436
0,0637183404022301
0,0635142457564198
0,0613077904771421
0,0624812185041527
0,0620488162139229
0,0652643786457201
0,0650271523239633
0,0638994783748769
0,0636789917751447
0,0663855177150446
0,0621924122515743
0,0638838040880239
0,0630509300341928
0,0655763590398063
0,0649501315330888
0,0671344575368618
0,0615698995387307
0,066130909133994
0,068394501412646
0,0633674321189367
0,063400208517429
0,064301923928727
0,0633115597492773
0,0671429065901636
0,0632498661964085
0,0641376127935226
0,0646925706427828
0,0672483070337607
0,0663884263709059
0,0650244251169166
0,0636519051725304
0,0650990687456938
0,0654038852704167
0,0673244560683722
0,0664205791849739
0,0663090267625954
0,0651184463382904
0,0664821651181158
0,0680606164531914
0,0664741115095775
0,0665516361963903
0,0672342979527178
0,0668072859671
0,0653112251119875
0,0652732218760138
0,0672484322409935
0,0662541717336419
0,0684606204933834
0,0668694317026184
0,0662290976178959
0,0674417423615208
0,0689286932710817
0,0673608177704307
0,0664105677966834
0,0695236399294974
0,0704773530802673
0,0675371663928371
0,0671068695205521
0,0688585485194893
0,068363096010134
0,0682145881465046
0,0689646525011216
0,0689794580496195
0,0683362821744562
0,0709712284904063
0,0681225512785702
0,0709019589295722
0,0735063877380944
0,0718585940583993
0,0740150426904079
0,0715982851926522
0,0742180318172798
0,0719719109311504
0,068258739294741
0,0675992761980654
0,0643630240467058
0,0737161156359419
0,0781571028644986
0,074546082183488
0,0679892347767369
0,0704055283808539
0,0678439216246496
0,0754130899906696
0,0660977045485927
0,0711022136741472
0,0687577050505036
0,0741771059418669
0,0732921293225765
0,0669235189261737
0,0736478805993555
0,0665146650684903
0,0681682658897079
0,0758273154857335
0,0678649078363983
0,0762071084742586
0,0698446056041387
0,0751602599909455
0,0678278772966461
0,0859162425537581
0,0689471651660606
0,0809454132895426
0,0735854968338269
0,0798335582756022
0,0717763418042826
0,0811224810502728
0,0710738424719904
0,0792635809970158
0,0711207658613078
0,0837947337458308
0,0704769245238595
0,0775367425041661
0,0679728843861176
0,069691236662133
0,0672796614494073
0,0765686519830988
0,0804362684156348
0,080305350225924
0,0778723125052252
0,0640951509332651
0,0776902405261208
0,0698401162571911
0,0957288064001359
0,0649877887538287
0,0891168162201963
0,0529404438528385
0,104504669667063
0,0492032773489755
0,102397616002748
0,0469207556854267
0,11409497768897
0,047144291741193
0,107660542453736
0,0527833794862792
0,106018308251741
0,0550794737899716
0,0970591425069041
0,0674082689110469
0,0880088744491922
0,0758872973382583
0,0828702675710504
0,0792405960104903
0,0809927010137643
0,0786755280994313
0,0793244679473456
0,0781833142174753
0,0843364385648092
0,0768027607349166
0,0848073457671613
0,0744506500367176
0,0859851609161321
0,0758396417464013
0,0856517613718023
0,0770626276991718
0,0846511169283981
0,0777200605262114
0,0839370311878077
0,0795969089972396
0,0868104219489969
0,0796376806872398
0,0852963057833423
0,0784951890790727
0,0840645472548624
0,0799168867079812
0,084778964590481
0,0780216192190604
0,085726357467516
0,0795975630579815
0,0856206043070644
0,0798486869721506
0,085519968467382
0,0806985335665671
0,0848833999018685
0,079111863521966
0,0861480556195637
0,0823875525577776
0,0871053257833859
0,0801194681456507
0,0876603308799679
0,0817184892197941
0,088072816876608
0,0834612654836896
0,0869037553920118
0,0835565127223211
0,088363558588512
0,0852844999396847
0,0899312577008645
0,0848278348323236
0,0900213711456057
0,0847978624515588
0,0897687429949334
0,086346626722129
0,0895923137460941
0,0848695535306405
0,0886278948367619
0,0839897291500786
0,0923761700314667
0,0872328497345976
0,0906314104689822
0,0862231034621491
0,0931109501311986
0,0860643065501854
0,0887685082763645
0,0867284372459356
0,088748063715247
0,0885165407268199
0,0912309085836115
0,0885395205749282
0,0933897423634012
0,087286699598845
0,0922025549685208
0,0887101391433997
0,0919766185496117
0,0901389010176909
0,0966835935193812
0,0918902640287675
0,0950820689718746
0,0898018730178325
0,0928401006711071
0,0900989472049801
0,0939568011422121
0,0905033016081166
0,0940746510450674
0,091843571645133
0,0942382014326194
0,091960229883384
0,0958318767782991
0,0922761303450619
0,0953725072472368
0,0920856486333419
0,0938917859882687
0,0934019928669929
0,0958526844827767
0,0937888580379038
0,097561322766202
0,0942346064647777
0,0981374647924631
0,0965451116545295
0,0972308009422354
0,094908998036061
0,09625604949442
0,0950287634933664
0,0988785762002938
0,0978865056061074
0,0975207505715079
0,0971517941360503
0,100177000520818
0,0975729636571717
0,099088952240018
0,0970339757846674
0,100632761489086
0,0984088819020676
0,103493802808822
0,0985029169842486
0,102199165906961
0,0987280302521294
0,101142412677242
0,0999866729060733
0,102484856417642
0,09979250616765
0,10391853130296
0,102562770090772
0,102074246975766
0,0996862793633522
0,102985944969774
0,101454796984318
0,104112224600586
0,100016168500809
0,103999916297195
0,10139057074249
0,103665782831411
0,101840759551187
0,107080180580162
0,103624283279178
0,106966103284129
0,103827077980092
0,105018773177242
0,102749790673392
0,106490378195355
0,102343866991982
0,103553169763136
0,105201489040303
0,10584097770929
0,102791256486327
0,106429753936403
0,104253214099245
0,10712039006239
0,10609384556573
0,107507388283313
0,104931581275765
0,108729547565019
0,103188288422496
0,108850247017534
0,106929499739324
0,108749193467307
0,104527120294087
0,111114699406298
0,106815915274055
0,107571961358086
0,107782575145359
0,109254198171451
0,107315955919039
0,109748131740791
0,108550655075135
0,10817533179339
0,107961291254928
0,10889037236736
0,108604837782192
0,113137700060057
0,111525300218578
0,111713584832777
0,108920520078773
0,11133164110042
0,109242069469588
0,111323264132008
0,108047069706503
0,112829727239506
0,110424542065816
0,113812189219371
0,109718191774211
0,112114998609288
0,111317075921762
0,111585625869937
0,110166577331859
0,113849114667661
0,110196404507014
0,112708342650746
0,110502431400631
0,109762288403233
0,108847018505547
0,113017974534385
0,111329437200729
0,110502216940418
0,109293913721769
0,110870761864093
0,110506681393863
0,113831518788239
0,112435240323341
0,112825064554719
0,109617613060448
0,111871657494814
0,109293540773683
0,111958174548646
0,108992963864812
0,113337286511139
0,108488929996154
0,111709884966058
0,111020829177775
0,110920351892255
0,107622351617175
0,112246199188203
0,110976082883896
0,11186068191867
0,109225431042264
0,112731002484359
0,110200140967819
0,109597846631815
0,108140437155751
0,111572941955003
0,108775306710163
0,111843361639824
0,108310153812549
0,111924264990877
0,110955294118656
0,11237525058133
0,111971550349602
0,112028733674667
0,110413307547024
0,112628267564314
0,110502744910809
0,110384845295441
0,111106743584113
0,110635307095756
0,110467502535454
0,112013045502357
0,108640921189959
0,113263041351722
0,111299563225789
0,11095283843295
0,110491720007444
0,112802485048757
0,110674669863383
0,112374468825183
0,110530064453356
0,110294526464105
0,106918995105156
0,109432560597908
0,107997512566188
0,111356555867318
0,110283388258878
0,109092534128551
0,109159449610705
0,110275872479019
0,108569885740288
0,108484313663463
0,10556147437768
0,108016484070212
0,106021175921991
0,108537950468167
0,106929752464596
0,109650178996778
0,105882911307254
0,108113067956003
0,105800487563879
0,107965432538367
0,104997900002111
0,107711919006491
0,105799928807511
0,106537623922573
0,10498980796238
0,103649833681288
0,101820332170709
0,106162450421446
0,103547874456345
0,106757496120817
0,106397518202965
0,10586635171
0,103077190059673
0,105505868739023
0,103412662670877
0,104671701104326
0,103514752355308
0,104983084682275
0,100616745918863
0,104757604839087
0,101067841925877
0,102719394161263
0,101257915424187
0,103170663887079
0,101958823778933
0,1028404881103
0,100340899711523
0,100996254961261
0,101014005832403
0,102450208229931
0,100347026830814
0,101708975751949
0,101468376159236
0,100951739519216
0,0988716595473311
0,0994208964013932
0,0962508264390411
0,0983514598357683
0,0967663439030713
0,0969192894061104
0,0952593933041423
0,0991981794685557
0,0976423811950583
0,0989390790966487
0,0976329339864556
0,098952991346596
0,0972995418807833
0,0972994245989086
0,0985390001271303
0,093529498575457
0,0957534363802202
0,096584273117934
0,0972496613439952
0,0963344357159083
0,0942053154989713
0,0930335100777241
0,0956799660844105
0,0945634271322658
0,0914374178613626
0,094143281374154
0,0920738412111451
0,0941026265168747
0,0946210540628335
0,0921590828276769
0,0928743950653195
0,0922977278324161
0,0914372615754692
0,0932875206106943
0,0920618445007145
0,0920901929971877
0,0935733992890619
0,0898820981004889
0,0907917025409392
0,0885950357460452
0,0909337582548436
0,0972624576152331
0,0932569274314371
0,0882993973865113
0,0856950590973286
0,0903747524176736
0,0863901997552794
0,0886107877740085
0,087573947341182
0,0901569739201802
0,0838763038575501
0,0882992979683447
0,0877760138783092
0,0891999432430556
0,084815349039405
0,0859065728112641
0,0845569810988817
0,0854313871849523
0,0855993034648787
0,0869197575001404
0,0838361307943689
0,0849879146937378
0,0836573851501414
0,0867621348517602
0,0817464074556033
0,0840857995520364
0,083624427103173
0,0870950892284337
0,0826748207675958
0,0874033244730286
0,0793501221635676
0,0867767823488152
0,0817505059714795
0,0830681986555443
0,0821379362957644
0,0840610140009732
0,0799586482090201
0,0816331461875193
0,0800132716173228
0,0831493140525322
0,0791248533951091
0,0815807468002572
0,0790849777891734
0,0808540961080993
0,0795925228880524
0,0826534953844662
0,0783585616382603
0,0822249296552056
0,077342840507104
0,079965601514447
0,0779318548891918
0,083027122083301
0,0754566280971872
0,0795779016318106
0,0863921455896754
0,0764848500368653
0,0820919907032041
0,0753877352935449
0,0794307706439878
0,0778176827771291
0,079018300075152
0,076642821533391
0,0783310736213356
0,0742987209056661
0,0760299493763909
0,0755285086699567
0,0773323464744393
0,0759631769299763
0,0767895458344346
0,073252286359906
0,0758540989142361
0,0745542453233858
0,0742804454449648
0,0738012237295755
0,0770512814158772
0,0758938286597479
0,0788134806382129
0,0772245288287985
0,074631459331027
0,0706312601914171
0,0877163796537545
0,0731086410518262
0,0805991153131978
0,072138917123112
0,0761789350928045
0,0739223955707194
0,0752845494576111
0,0726545707143045
0,0749874915324341
0,0769972951487527
0,071983199759644
0,0766816373373591
0,0689056483681142
0,0749767560439817
0,0714662336662236
0,0752734876166466
0,0735815766182363
0,0740076830386528
0,0704863511070495
0,0717586780989138
0,0715002633862458
0,0713800441450864
0,0710757677329575
0,0707957526625565
0,0729542712854497
0,0759277455756771
0,0724981989213702
0,0716691114854175
0,0716039490133333
0,0719746612450273
0,0719375946236617
0,0772168710412476
0,0648951884598412
0,0782716464171156
0,0655952401669316
0,0745359057260675
0,0698317535568653
0,0719747849817307
0,0670445584922091
0,072869368518389
0,0699297464732924
0,0711447618761819
0,066035991831345
0,0730626839747941
0,0687166942589428
0,0689207247239142
0,0696490789243656
0,0701035599539372
0,0687650360998245
0,0686158581535613
0,072054599175535
0,0690128510452576
0,0780069739889327
0,0790341390661947
0,0741749911877605
0,0786726202600939
0,0707585378157007
0,070484851757993
0,0672859339050667
0,0722283232121212
0,0694240295294472
0,0748510167734552
0,0699029304012518
0,0725000798585062
0,0659179399053367
0,0725894051758881
0,0677359740407581
0,0748495969645428
0,0648302152997894
0,07459697270651
0,0635533526266979
0,0737231751823216
0,0638063296725847
0,0762764315132151
0,0648892942820627
0,0781670137034882
0,0663613067234009
0,081047426231704
0,0621118767593156
0,0867546297355336
0,0697269245179792
0,0741378251671097
0,077816473914714
0,0662700427402985
0,0747234354744732
0,067452330179409
0,0735016540104845
0,0732606765894722
0,0722101147296925
0,0708711628681027
0,0712226691321916
0,0686156090404567
0,0714357262861591
0,0704172567316829
0,0755153373503178
0,0879658046679479
0,0751872942993687
0,0791015052479858
0,068824405160568
0,0748268825997276
0,089016756018835
0,0660976338466085
0,0775618871818669
0,0702952875675032
0,0757795663344818
0,0738627115994749
0,0720673330080765
0,0712745609243748
0,0762047788064437
0,074199933424964
0,0739397092263581
0,0783625260153245
0,0712757604342658
0,075473782635962
0,0710755073915094
0,0768380523241039
0,0763993809395165
0,0762528678840751
0,0801985976926189
0,0785560779993403
0,0796794165660834
0,075449844050664
0,0750827111317331
0,0763048158942169
0,0769667942656679
0,0838965876151856
0,0779969219055525
0,087885247416219
0,0808625192584399
0,0784337430025122
0,0804083752116763
0,0777490106387839
0,0859809883475021
0,0744064920322894
0,0805911903844009
0,0949453756160875
0,0732911121531668
0,105614428138383
0,0681366436513164
0,0933561907112533
0,0723603069037774
0,0939771336197239
0,0700092409224904
0,100464950689545
0,080393422288381
0,0949776038614676
0,0757368293222808
0,0897580498281976
0,0881048772571316
0,0857132118600611
0,0877472999732879
0,0874029783798308
0,0834209801158641
0,0914471757535129
0,0940199562485933
0,0839613815063082
0,103712208401634
0,0883684050063508
0,104548707062658
0,0990785894689783
0,0873307990686186
0,107820766513741
0,0798614190495024
0,105229296112597
0,0873434698347177
0,0979630965260578
0,0947139080421578
0,0936582515650457
0,113100793320268
0,103378592876672
0,0981613866035355
0,105040754793341
0,0941723365654193
0,115919988031045
0,10065636890006
0,105781778745872
0,0988987835843215
0,109726565722331
0,0969504892695615
0,126701052064549
0,110596523527535
0,11178514218648
0,124839981010153
0,105087767388437
0,128879543668843
0,11236201040558
0,121454249894398
0,111384794607555
0,133996609920741
0,120845762849806
0,120530967864026
0,119368531868085
0,14015142274543
0,111066852131737
0,137312574477817
0,117646992681045
0,132586226700638
0,133187256506788
0,152927425871804
0,136700642862103
0,145693120378073
0,133856239369496
0,150350604912407
0,137311026122566
0,150802103094356
0,140432581684376
0,146526139680367
0,147519546718706
0,14757628896266
0,154676503552562
0,152733355879808
0,158114750469032
0,162178938010012
0,159384540706213
0,174369819275944
0,170816862433071
0,200024881729414
0,154837431154052
0,195284008698088
0,16418819045522
0,192504463948647
0,186183364424828
0,185363549677362
0,191946647813964
0,194950107117714
0,203796280716734
0,197473175126694
0,211823082237576
0,218909813537633
0,207406508481756
0,242424910571625
0,205913250749115
0,240830541048535
0,214255913159144
0,289512088941074
0,200486724985749
0,265979597835462
0,242902692957459
0,252077826718897
0,286499822476481
0,253491396623544
0,277535635605404
0,270709609792338
0,27579138734597
0,280692747877601
0,290885082896727
0,296700023768438
0,303053502408334
0,31482525963587
0,299631544109785
0,319384204899416
0,33713301326064
0,352623272116574
0,355031256492292
0,330835952902234
0,350311373480928
0,352920567051374
0,358837282347518
0,361706815264205
0,367122838646898
0,368415730526562
0,412177841725188
0,371224061917988
0,410476190463318
0,381747584562775
0,415144618033891
0,396029141977304
0,432002955153069
0,425860883013635
0,431869147347734
0,44010157666535
0,43266351995277
0,457813007653221
0,44430379249327
0,470799121850322
0,455971241967382
0,489343346119192
0,474054566891876
0,484524138674492
0,491847652398982
0,4982581834734
0,505481823453661
0,497569924992563
0,522827173935419
0,529206855931289
0,584533229403556
0,575863823300014
0,535536151516565
0,550467239383507
0,539035968159983
0,571067865099368
0,558495151311564
0,591523780489543
0,582685426115381
0,565487825120396
0,572775299052249
0,572824862421489
0,579801838488818
0,579143255832708
0,593270467636226
0,581065369662389
0,593975757338574
0,588115166791018
0,602185509776988
0,663097752434385
0,598979910202683
0,608765559709205
0,580027898289148
0,595520068988103
0,584657834168104
0,598127783087784
0,572741902598322
0,597304578964658
0,575217699443496
0,590251778872564
0,555801728249868
0,576384319741748
0,569320673792115
0,569300550721585
0,560573366290347
0,532622346963021
0,539599884678441
0,535371052621682
0,520219619137919
0,573154572096956
0,501473051484731
0,519545148453589
0,490067445186713
0,494234409288383
0,483797784152888
0,480960417684067
0,462706947810063
0,47363765097466
0,455499810066056
0,461702188723867
0,446557921472903
0,436108493099583
0,430124551149576
0,434541292293616
0,425544214376461
0,419459188535984
0,405098372571279
0,402875124995151
0,396395227260067
0,389644727489918
0,38428502344683
0,381394045553669
0,37450828677385
0,374526947069707
0,363404097917442
0,363271680486487
0,359349765253443
0,348984782458476
0,350560610968083
0,341702418264714
0,340788959953308
0,335809573421115
0,329094495885598
0,326515595819733
0,327620342010935
0,320004714204885
0,32282717973469
0,316407713607358
0,312729958874875
0,308677518653647
0,309240866122382
0,296485170176355
0,311047104220598
0,324163604411642
0,287720806874774
0,302706058995536
0,279102681146642
0,29632859634717
0,272624486906403
0,301816799555759
0,2996385960061
0,283212036263174
0,279028996085802
0,272681668380666
0,274532542493907
0,289615715084788
0,263306777496255
0,277733879363974
0,254314267399239
0,27408820313087
0,293253966058221
0,263929469809241
0,348006692150131
0,247212501195999
0,268147828920473
0,247439709995608
0,288348580988164
0,237605196409011
0,259523175709506
0,244210298325635
0,248299691095297
0,262242937476041
0,242442076358365
0,25430710653536
0,231112514795543
0,24150576932172
0,26686396377526
0,243274328638139
0,246433996308477
0,260229185638931
0,234525223693267
0,253084772332845
0,262985209327312
0,263556923829351
0,234583141838177
0,227632231447082
0,231607193868443
0,221803941132211
0,247215805443767
0,230198630823448
0,229619387160934
0,236351650667402
0,2176442891795
0,231487045826233
0,211926309068532
0,242497227639425
0,20091684541809
0,254407675746099
0,215508526913674
0,222837289070607
0,230253622156824
0,223569482501666
0,252490612472084
0,225202636084793
0,222305177671589
0,212777878935749
0,243784690791884
0,210493584178822
0,22542420831627
0,214112915863245
0,206754004036952
0,221911912669428
0,203588244262969
0,205852713384492
0,222228290907284
0,210367560670243
0,232865500803347
0,214240936016612
0,241326632327438
0,21844252475732
0,200623418116884
0,20534491630911
0,198511497122108
0,20344460054508
0,200073070502911
0,202257523436015
0,231994231467709
0,185323926000568
0,222381082070526
0,193414971461259
0,201445244694975
0,195838485603866
0,196837884812935
0,195306230584491
0,200671808559109
0,20275200708726
0,216788525609543
0,188688317825227
0,222160615925962
0,192661865969301
0,207070234144224
0,188415229328692
0,19835102751551
0,184952875986864
0,20329319563379
0,202476928817973
0,196113518235569
0,193565883330396
0,201757052105132
0,186412204025296
0,228080095225045
0,17964650968884
0,205461371072985
0,203752509284711
0,202675094264294
0,211955659147523
0,189521991094527
0,200075242502779
0,190452235686445
0,196055874195615
0,198417735595392
0,190078310566211
0,218728600585629
0,188685552917272
0,198084673500704
0,191118786478725
0,194779205937367
0,194791796693044
0,198138358949775
0,20933235592573
0,191322424852316
0,259988332076414
0,176061714843292
0,213535770600651
0,185585620572051
0,198880097012489
0,195750555171713
0,192976723582202
0,200854148544298
0,188705371957504
0,204898805251028
0,198364229029806
0,19379684596025
0,198566560946506
0,190591756865132
0,200479391139582
0,190828979026379
0,19505009000352
0,193261217695152
0,193192551775748
0,201344661846653
0,188387932649583
0,2103539878457
0,209939998542276
0,188994027852922
0,205582006299097
0,189900303394568
0,205231991015393
0,186172295906396
0,203788604479535
0,20547425480296
0,193927172661469
0,19645654961408
0,195411341291431
0,195890130215599
0,189525300052667
0,203664958352401
0,197787128063964
0,190167877998234
0,200571253844122
0,179516283017116
0,256027971053681
0,175288418488924
0,218015159776635
0,192843386838168
0,202890872075048
0,193165537657626
0,19532532497245
0,190060697805627
0,197889419752516
0,195265038578656
0,1988048570164
0,198135589921219
0,1928516927747
0,197590450081785
0,186677105399683
0,202038155629851
0,202144158147545
0,193846282979724
0,200954540598766
0,190588792089279
0,197136909533785
0,191006693129517
0,211865081219922
0,190497402379938
0,203598683822597
0,191561129026615
0,204910721580503
0,20147299751024
0,197299713185784
0,190434888554769
0,198758979466775
0,188169785573773
0,20322440421975
0,180550769435657
0,213569584291621
0,194468010816759
0,198333975436129
0,19079066023129
0,191015393013379
0,193350486906679
0,195742761992405
0,190908641523528
0,196847771671078
0,194121408961225
0,198707391668456
0,195386048292143
0,191891210971169
0,193984521277823
0,192850450279421
0,206247856210799
0,200891741918224
0,190580663165647
0,197153739451979
0,187144886122066
0,19993335270969
0,191024834047233
0,195078709451727
0,187623990866639
0,196384128135129
0,183936572195419
0,201339637115887
0,199856327831319
0,191888420404322
0,202377894986093
0,183789047780799
0,193972655636588
0,186347770191526
0,191905952775854
0,191371037976212
0,191418393762579
0,187689029738583
0,187628489046869
0,191195962522391
0,186836345350495
0,190591744531825
0,189465548338752
0,187635306631439
0,18906780409101
0,189466035158107
0,185425426410579
0,189176867660549
0,184400665963206
0,188989742460289
0,186014103268978
0,183991483009183
0,192747612661239
0,190105020882201
0,19883616955533
0,186664515458515
0,195757580130548
0,186968651669189
0,189481970662584
0,185494962100744
0,187397610965441
0,187095589098554
0,18668917282043
0,185564254753505
0,18801063149736
0,187105009334702
0,185317331621615
0,186232023565881
0,184770787394534
0,186299463572426
0,185489407071033
0,19041562271292
0,182080590026206
0,187919205626972
0,184880166566756
0,192411122750845
0,185982357127836
0,189784919022051
0,18313915539144
0,18764672980267
0,18328523925688
0,184329621058339
0,190620291341799
0,187177935354576
0,18435082407209
0,183131284557104
0,182178992759832
0,186359782191868
0,180857241858394
0,186559594448192
0,184635695856063
0,184019062390077
0,185980858376479
0,185390158579721
0,183649607375391
0,185685464381206
0,184020345304653
0,187931938367999
0,181821307278932
0,184010267339334
0,182325143641937
0,184133735349793
0,181207920033899
0,184728789583986
0,181570253707468
0,183383240669003
0,181462453927824
0,181982328752111
0,181967373881803
0,184111423134028
0,18258501509536
0,182291276950208
0,182251222790537
0,181655383626949
0,179175098874655
0,185776870968588
0,182335381326535
0,182505786712811
0,181984574900614
0,182478019280665
0,182501045134928
0,185466394773865
0,182539704244972
0,181800171443365
0,181647198146687
0,182984958395899
0,182544852329767
0,183988900565601
0,183943363159991
0,185525547424919
0,183704685556784
0,183414927216081
0,18383657870724
0,183007205022907
0,18336203275738
0,184286243557482
0,184174386278057
0,183127599704315
0,183452365109739
0,184557568404389
0,183926113337627
0,182772259626448
0,181970468670261
0,184543592842386
0,18002663853235
0,182762185610638
0,180427915440381
0,183375594241858
0,182087215213574
0,184126738215708
0,179136507438972
0,183456532237981
0,182103780862887
0,181761121254141
0,180992729205038
0,181072195407715
0,179316127872601
0,181376827563639
0,182022859727959
0,183825952940765
0,181904059351496
0,181146291467927
0,179639599020532
0,181825467052825
0,182468969111581
0,180008729462038
0,181797831600545
0,180989458715193
0,179916087905795
0,180126132644322
0,179737359933258
0,181397542706652
0,178866404136484
0,180276207128665
0,177578402705149
0,180984121151103
0,178704940802947
0,179188215514512
0,177332448237955
0,180024336228092
0,178923033310592
0,17758053864859
0,178446841417474
0,179902752226537
0,180022085700364
0,177859938760001
0,177246091720717
0,177408154167889
0,177585533768564
0,178132444170639
0,177597547821039
0,177213747411962
0,176082885096139
0,177536720713257
0,172985587047518
0,176344399339164
0,178052206687208
0,175703320595849
0,174346426338364
0,175599509899198
0,176495437131596
0,17584866497054
0,174111514367993
0,17703468640219
0,175582876929271
0,176453047107728
0,175283752836087
0,17664923000791
0,174196740440257
0,175176217056148
0,174990136792194
0,174577948902738
0,174263634065983
0,17439961835245
0,174418568171009
0,174507061932786
0,173314111011621
0,174664785621974
0,173492431681947
0,174248960158379
0,17427956839801
0,175353162520943
0,175044760755059
0,175873154391975
0,176254011572948
0,175757223258679
0,175725726439211
0,17865059778397
0,178998691282699
0,178198986421225
0,178630276694246
0,179614324412662
0,179227285377617
0,183177518127227
0,183098148663416
0,181096164005314
0,183957618999826
0,187422148569379
0,185684864626754
0,186542119280795
0,187830073128972
0,191033715478477
0,191212749503768
0,192379271532488
0,192396174574451
0,1957863608674
0,194031840894163
0,195257458990411
0,194701326965618
0,195395737126651
0,196520562808307
0,197997957908015
0,195904908443036
0,196498762026818
0,195091611769024
0,197472815964825
0,193885950723768
0,194489794375994
0,193570629379329
0,195550857883198
0,193382202770688
0,194277552208002
0,194896912930922
0,194299573656085
0,19323782609169
0,193235016394259
0,193326784543409
0,193893849883986
0,194942957614245
0,193872908160656
0,192632605627481
0,19449390258841
0,195252039103176
0,19615605286576
0,195705073712266
0,197322454474995
0,198286031682585
0,198009723778865
0,198716320828915
0,197757008901776
0,196122851288501
0,201106719018786
0,201634673465233
0,200897221081869
0,201228303624213
0,205293401508518
0,207328230355262
0,20764550430004
0,207061573432911
0,206756964207855
0,208513412839815
0,20959953742648
0,20720042334287
0,207217129573425
0,207318527385675
0,207627290111401
0,20603990579835
0,209431100384523
0,206653664905048
0,205110651069879
0,207974357158926
0,204777447550063
0,20343508917248
0,206544591592606
0,206306956527781
0,20553066166291
0,206973305625459
0,207740257484066
0,209616126042915
0,211097050340783
0,211503079997209
0,215132024157896
0,217199825456745
0,215693415454222
0,218487390815145
0,218182695758539
0,221895855787752
0,221415606622224
0,221957732363549
0,221476430761764
0,223739925711916
0,224464928176481
0,225653339991753
0,22736150217927
0,228662868946754
0,228967673471589
0,229193258119618
0,234273490279696
0,236353797666241
0,24001308073171
0,241322980385376
0,242029294689813
0,243093760742008
0,244417151124089
0,242708295512916
0,24699163808395
0,248367883243242
0,247707713180935
0,246794015402098
0,245987811754461
0,247678692278866
0,245571292954034
0,242866216890058
0,245795449690541
0,243195293447566
0,241238082016879
0,238507902634634
0,235326593921148
0,235260390199324
0,236852593049632
0,235803450398819
0,235598860915655
0,23500685346732
0,233636537237455
0,232854275676194
0,234218786086201
0,235511937890983
0,237777843263477
0,234778466991121
0,236348792909628
0,236284794531853
0,237374125014626
0,235952304652912
0,238469975840427
0,240556998421585
0,241679278256557
0,239873748388654
0,242454756127256
0,243108370487613
0,244684530568981
0,245626535214874
0,242178589504756
0,244886469236948
0,245341212709993
0,246716506845834
0,247890157188524
0,245586267698903
0,244498208208732
0,24427606645088
0,244625889210064
0,242833872373668
0,244085756356309
0,245778092191829
0,243871280531888
0,246270953200778
0,244403248411263
0,242207778620888
0,242399754260707
0,242299792544542
0,239281377901127
0,237365009812014
0,238566908771792
0,236774921662348
0,237258189128633
0,234457269617321
0,23483302390989
0,236709962068135
0,234686553299575
0,233377327361397
0,232058572188257
0,226496014766066
0,22475051117782
0,224238891002693
0,224727106652192
0,221877551981289
0,221278346603137
0,214822543648765
0,212112575521134
0,212745559007147
0,216856718698847
0,21414122826024
0,213077672132688
0,213226170093145
0,213780319495921
0,214230016470668
0,215462097863392
0,212791317618554
0,215229625827818
0,21590880818103
0,216842771271729
0,217168446088839
0,218457339006288
0,218541735573488
0,219701769483418
0,218213651712245
0,217039070624441
0,218422272761922
0,217780935419782
0,214517725496686
0,216524329256728
0,221084844034361
0,218241956535976
0,220205536779119
0,219071002324138
0,218450905613893
0,220284975350322
0,217236704485129
0,217864986152588
0,218415256772847
0,216763903055177
0,213404511025668
0,215601032197038
0,218519818151783
0,21844706522606
0,216710982184318
0,219419774485998
0,218124327602773
0,218798930783761
0,218067923046892
0,220461774825605
0,218238024969742
0,220325278374623
0,220611923708251
0,215973397293354
0,218656389095179
0,218817130605053
0,221548288495445
0,224597021984716
0,225220166468068
0,22721213063624
0,225688359980639
0,228268865658478
0,22924904847624
0,228541089535986
0,23031038852139
0,230657978275356
0,230446605479822
0,231987268617572
0,23111498043911
0,231920333878003
0,233809273940813
0,23817746121576
0,238702231369205
0,240002427665435
0,239275177797327
0,242462928210434
0,24389349602657
0,241835767582157
0,244396322324159
0,24274812964082
0,244068720066719
0,246543338500555
0,248470866904824
0,24917430875881
0,252243701222976
0,252853222485892
0,25430859007123
0,251355577647127
0,25622251090075
0,257917060561597
0,259307720899985
0,261168894045209
0,260717623594572
0,264104856732812
0,264907022041949
0,26199241201796
0,27087720497957
0,269840725151076
0,271218503643199
0,27221319354206
0,276014217389567
0,276367202517876
0,281829595162654
0,278573576021684
0,287742307834755
0,287009110681989
0,284144159067167
0,288448395118067
0,289452138854844
0,287939741771608
0,28876392343833
0,291691690978768
0,293837411007048
0,298611033069824
0,299297913840843
0,296270855746443
0,303670734171075
0,307117708788075
0,306799842528625
0,312356746463229
0,315576511018491
0,311889319759812
0,313948044736975
0,316653233062244
0,318896488039541
0,324503559289515
0,321898210381704
0,328858716682471
0,335257703285713
0,325433597042668
0,336548960818484
0,342602662918559
0,342626411434027
0,339993002736844
0,341190741617439
0,34428768779442
0,351363485584115
0,351180644882448
0,351306302170453
0,355580961121835
0,355052114797974
0,363047103402392
0,364460174387774
0,363507294620821
0,371763821380918
0,36939363630036
0,371837458980142
0,371737653803532
0,378573099080229
0,376510637483237
0,382467462021047
0,378200510892733
0,386662852507831
0,386927073254979
0,390541643913432
0,399742823088251
0,400285243760145
0,400741139988878
0,404702815370509
0,40053615228408
0,408815573319751
0,417334609530451
0,420061529123344
0,419387836791342
0,419686253512489
0,416324575592634
0,41771637586625
0,427231069100143
0,433523610140242
0,424115022724709
0,435537267283034
0,438374808718176
0,446530512043355
0,461473684027098
0,451745137728829
0,441214113486539
0,453258489412071
0,453699122146836
0,4594398467863
0,457260912258099
0,466191999465857
0,483628475616538
0,474571107259692
0,473819032864465
0,486644187159489
0,487661166090822
0,487030412169906
0,481153489280383
0,490182096198432
0,484075155642548
0,492305932251453
0,494684527048588
0,499152633077226
0,503369963876743
0,515761598491545
0,524163080909104
0,507434786992137
0,518386473349668
0,526220827418949
0,52474938100326
0,524932344943918
0,528497254985891
0,541694982963255
0,535034451331588
0,551764387250062
0,54447548553356
0,560179863620812
0,549744085397225
0,568534913263973
0,557431123775683
0,556324802980217
0,568544514068665
0,57368956481775
0,576210006939865
0,577245599668144
0,580160653145835
0,589979638141785
0,584798062606313
0,58799800488879
0,582229208380315
0,60501336879566
0,610013625001351
0,593352267910662
0,600712188210794
0,599545504019903
0,595107351311195
0,618079389562535
0,605996091174249
0,610336748068871
0,619821883602865
0,622504246557223
0,618508668304201
0,610309710927962
0,642018830949261
0,64517124192734
0,608947489401678
0,65950090713345
0,663553533687757
0,667534695494793
0,671227520650177
0,672978335879407
0,656585001502515
0,687434261810159
0,662763857749775
0,675742863772
0,693763763773518
0,688141180694498
0,670925272738938
0,706808340812634
0,718266407206936
0,687557953266229
0,714265946600255
0,734930150672933
0,731170228385247
0,723067980435952
0,685400550520128
0,727954156053714
0,702501445540381
0,717126290034362
0,73224216959684
0,744029571328991
0,770561694363232
0,751122920566188
0,754640296147895
0,762037471880838
0,75761244984975
0,750210712634363
0,717173190616978
0,741372061934256
0,733963514286749
0,806513913428946
0,781067273599064
0,779232608342126
0,800714068022898
0,766422019201474
0,785394272713981
0,780489994934512
0,793065314349324
0,89257239650954
0,844529484993103
0,798706764521641
0,769506821302628
0,764151060365688
0,810424947158409
0,854182394776945
0,859169711900425
0,842343854139554
0,80911777058869
0,853154130679165
0,862329639266441
0,833382135542549
0,812598561833461
0,836806262825968
0,81506048512044
0,842784789676615
0,876936616579271
0,88233981400382
0,838326321302515
0,891789472676948
0,864440680322919
0,907236220386505
0,917968836360733
0,910170172641583
0,887886221317928
0,909150969053757
0,869910793198627
0,898885957736485
0,919799657316123
0,902490184430307
0,874166401058886
0,885882363932652
0,888521530176123
0,878286756732146
0,859227818836316
0,886481421730412
0,898541122998179
0,968675460358196
1,01868745937708
0,93442767237527
0,91628584428515
1,01433611637626
0,959105490888715
1,09931468251816
1,13532654415612
0,982763666654504
0,979886553605066
0,959349567334481
0,936941707218927
0,964641750335789
0,991793853968671
1,08802405223748
1,08077787957663
0,960506819085906
1,20430252717722
1,10645240757835
0,92202232078436
1,01773317036729
0,997755894952137
0,965335661240187
0,869202585204389
1,04733541458159
1,09648296368428
0,93731039876676
0,91854823086019
1,07590729169808
1,05451834212868
0,942442641138402
0,966049366148762
0,974031714946604
0,990736857496766
1,2689795677696
0,93831368419003
1,02827665675453
1,28040232586019
1,00943785443723
1,23555992251032
1,25592747622672
0,981813711666314
1,0659452678807
1,25605437392591
1,34037043718974
1,29695385876359
1,05627155233287
0,968612044293429
1,14689085882887
0,964478443057777
1,14169737682881
1,4780961890824
1,08691986448154
1,51483354877175
1,55000081898835
1,03395708678685
1,26607835306211
1,13024852396803
1,11176272624992
5
5
1,0043134796282
0,939534607330938
0,862639863511085
1,01182285477095
2,70089320940676
0,936134218510003
0,929358996971989
1,28649192699231
0,778151407358324
1,0400941977001
1,30911489946403
2,06930679209993
1,45796737970824
0,624785036525482
5
1,08676750758914
0,711808876095606
