3596
4000,36533379555
650,420452594757
1
2
2
0,023379053744536
0,0393330482303081
0,0214898650932091
0,0399168647989887
0,0180405784368026
0,0466210808699622
0,0178166849302892
0,0363405213220631
0,0215057834372211
0,0371463872333818
0,015380137582189
0,0379251967017004
0,02020870023282
0,0421965150954569
0,0246696990851917
0,0397396136434915
0,0242876689711137
0,0360790829223808
0,0211782594241535
0,0338112045506786
0,0188039881570217
0,0438702874469591
0,0137245147322287
0,0326970520436067
0,0248283883031237
0,0397312487019863
0,0230524013005641
0,0372789685075151
0,0233768370779865
0,0421559364854388
0,0236253044169393
0,042285903654075
0,0272543880413825
0,0431126589273151
0,0175808651964745
0,0363907306707664
0,0226202861980069
0,0381279743246038
0,0299704345206512
0,038085048031571
0,0272584326198871
0,0382002031419368
0,028401856389904
0,0390541865672017
0,0203460710037665
0,0333753947237214
0,0249914893179655
0,0436212316618776
0,0211418143677202
0,0454322180563881
0,0161466315776776
0,0403432386875864
0,0181651121214601
0,040008728317361
0,0251679910075898
0,0450987683810188
0,0226322697495829
0,042047268074132
0,0179764931557691
0,0336440903623477
0,0320620863969319
0,0390657287662193
0,0170289848960344
0,0386150573306801
0,0144557652920815
0,0405969744503797
0,0235896399307455
0,0359295441957309
0,0179866840899649
0,0336650497649976
0,0257544854284022
0,0522186182994822
0,0167780375259261
0,0386172984876527
0,017548844136848
0,0401624827645683
0,0250674226113385
0,0435273781122927
0,020322488550418
0,0380716716628174
0,0183103883405241
0,0446370668766959
0,0207267841087087
0,0442666687432812
0,0227173956684801
0,0391223408672625
0,0266848226509902
0,0405818429310514
0,0313501372635552
0,0378018245269016
0,0243565764197199
0,0359992556983837
0,0195498908990684
0,0377190140219048
0,0271083477840988
0,039786541349334
0,025327472851459
0,0296821262459007
0,0220963650806847
0,045644747347242
0,0369045380654033
0,0316513669972593
0,0342104008882983
0,0413962390521633
0,0437241032492739
0,0502656552662986
0,0160017475542773
0,0568671095548274
0,0203422216589907
0,041278752254304
0,0180488124595132
0,0448143523520229
0,0211346734713663
0,0449262282680874
0,0256612686031664
0,05714807329669
0,0191699042462285
0,029959775677481
0,0177937570796506
0,039942452708504
0,0280648921932758
0,0371086125113927
0,039644503865102
0,0316759594180503
0,0232530916770355
0,0439589998443739
0,0231603176350607
0,0485717565189195
0,028185137052054
0,0299012114161989
0,0283221590842043
0,0360250409610458
0,0332486497357788
0,0395343545132329
0,0275431743458798
0,0334373321539604
0,0203768254245846
0,0458047581993707
0,0351375646927625
0,052741173144409
0,0212450736893282
0,0274021078040004
0,0289279192716816
0,0411958912592862
0,0266430713651633
0,0470166805194531
0,0302221140600234
0,0392743657380092
0,0317701541618831
0,0315711212112888
0,02381109587504
0,0309757492079051
0,0357919239082518
0,0437881429111665
0,0301394287042153
0,0671291475272284
0,0441082565932897
0,0312991881776799
0,0314360118263044
0,0350740962946668
0,0315562906592367
0,0349154159181921
0,0234315351739222
0,039497398509696
0,0192963742553332
0,0430165077550218
0,0242668405566909
0,0530239468325453
0,0282038724028056
0,0412843671210237
0,0270000436325524
0,0371829134047012
0,0219130553606339
0,056258137394674
0,0294117612585184
0,0380906257400749
0,0326134180012147
0,0374437202211127
0,0274852184015454
0,0365774060732352
0,0310789874972802
0,0406402964377193
0,0279622509088647
0,0385756715670034
0,0313227756843132
0,0377619121049672
0,0291262758364641
0,0394448996823194
0,0362076586152747
0,0399012516950642
0,0398275825722088
0,0418681953527724
0,0339169016667817
0,0371504836013227
0,0341885091971787
0,044851334986626
0,0290787717359511
0,047480394744402
0,0220983468701255
0,0396900807091241
0,0208336988710779
0,0364671165069159
0,0311743184393764
0,0371575198307
0,029313345087246
0,0418341144312741
0,0404698358021632
0,0361443734250367
0,020266137186601
0,0422141095627578
0,0292478051087749
0,0509767606326524
0,0292822378868509
0,0557577757715349
0,0212497951093757
0,046341503455634
0,0260358904337827
0,0397656538763606
0,030754365222009
0,037824012276974
0,0298906177516994
0,0467358890443872
0,0292170055708588
0,042929916752511
0,0278682728878913
0,0444310348112373
0,0321801146660646
0,0386910091404966
0,0335996736099437
0,0440316942249496
0,0278301898936711
0,0501253150764378
0,0247619466176
0,0453748332276681
0,0303657109270022
0,0453866693216853
0,0387603765851732
0,0379630917881423
0,0340534931575767
0,0405648792115015
0,037329790999452
0,0451831315918826
0,0319254843208073
0,0380720631517307
0,0310599979040974
0,0369779720439839
0,0400998766608252
0,0432698254858982
0,0259153426657526
0,0556126435235583
0,039384191089953
0,0482396658092042
0,0315294325808297
0,046013707385842
0,0286971887511063
0,0495291138196236
0,0401318086634479
0,0589035834249549
0,0392210365814389
0,0536708580566813
0,0397801032036742
0,0453431821054329
0,0330314069136957
0,0525149432380402
0,0357081307037019
0,0645836504408318
0,040950561998955
0,0573788337061737
0,0365985832161004
0,0546733946861938
0,0370100848706721
0,0575898680547169
0,032992940712621
0,109970852898644
0,045518864281097
0,0489927100204435
0,0455002806720998
0,0552621471493408
0,0403145521400133
0,0546842248046989
0,0470382443936274
0,0534858856963148
0,0485729463335573
0,0763842974979582
0,0654348669759618
0,0584058130648252
0,0414593108445897
0,0662960819406527
0,0370198440727998
0,0560388240996269
0,037091347583224
0,0637901835951608
0,0491236110317053
0,0697567323079639
0,0467394410640654
0,0689379809241144
0,0465215461416648
0,0703419233858261
0,0489646557522476
0,0661108267742933
0,0491927020783409
0,070284130342449
0,0467980099570292
0,0646973757004795
0,0529965982569738
0,0697050619981207
0,0582377061578061
0,076129811597762
0,0656069016199995
0,0718406017617404
0,0548243348220896
0,0809351790991
0,0613520734015578
0,0744224591290902
0,0635319568654732
0,0735024373329536
0,0625342059237757
0,0754160313155945
0,0660167324756389
0,0878813941663671
0,0753619250343291
0,0724456429440875
0,0637504132316356
0,0809880917990922
0,0787144660771015
0,0873034848046637
0,0742698148703034
0,0892182471958257
0,0835066784853847
0,10105270335294
0,0976467307663146
0,111791884386752
0,0930833627361811
0,110027735555919
0,100000567108815
0,102932844455551
0,102316684224452
0,107616041658319
0,100961839432781
0,117386283253546
0,109037233075608
0,121027823131549
0,117645831015485
0,135441189881731
0,124448067031152
0,141019016250325
0,154132293913288
0,167577426967583
0,139923192667875
0,145311466346011
0,127017439106946
0,170140950940943
0,141957557947452
0,182682971557037
0,145863863577491
0,192473373779574
0,159047239155484
0,175728842975225
0,164497423512153
0,177411192420817
0,169182147469206
0,187742591377987
0,188083132826689
0,196825524587595
0,198271195576616
0,210377090970413
0,205669486644458
0,221185722683127
0,205253062631529
0,221864828733739
0,211268043103517
0,220279179456992
0,224220315701506
0,252033449298537
0,27153584876529
0,267236134967937
0,257662448141449
0,258239797337471
0,2448635920868
0,256379389085366
0,258780908353974
0,270000213490405
0,259200406638857
0,280423923909885
0,264772900149797
0,278392533360543
0,282672766731686
0,28893835378796
0,295257345707119
0,298694162747759
0,290823387408973
0,307270134926258
0,294887290929848
0,317085422086571
0,299822277318775
0,333702591966355
0,330291762758635
0,350443333876549
0,323189773956638
0,344330282813109
0,311830882624509
0,340298830567271
0,328321194445236
0,353742452174376
0,347323365937126
0,361707127209991
0,353737720687009
0,374216122894855
0,367807242676724
0,378514279537191
0,361726521016423
0,38119089937127
0,376970894519104
0,394812782748057
0,36640761935286
0,401073926963263
0,369485790025863
0,411475456356076
0,38086772332923
0,395981804594546
0,382462900285512
0,420596390797807
0,379744482721515
0,404457671728591
0,400232596225014
0,408674826426992
0,422256486412152
0,420827418398464
0,394185120135985
0,432768943936684
0,405577709870659
0,450954196894915
0,433698936771387
0,457642381580963
0,442342118662546
0,461704414463588
0,442099015754665
0,447915569795307
0,43866331733096
0,470775190300514
0,456981542602935
0,47955414029533
0,475486785470297
0,482575558309307
0,447164243364997
0,48651112444278
0,476220969725891
0,495181945050332
0,46231830514821
0,504843153452633
0,493075012309082
0,506112844313254
0,486663627347026
0,506108003476521
0,512210371097707
0,534876350262624
0,511397155480049
0,521834695710881
0,506609184207785
0,540035072541888
0,526914264100357
0,533284060329576
0,542151157324963
0,614115272561101
0,558139385186584
0,570947262433586
0,517194563806657
0,556502562443634
0,531199925196795
0,553700649102739
0,575321570682277
0,613988643862484
0,568870070372101
0,5831953070346
0,592080689833265
0,574812927461405
0,588807828467648
0,615774067308068
0,599299383384342
0,608810187001406
0,576569769770758
0,608099655998028
0,600058698577641
0,608324008972698
0,610631118634785
0,626994297096633
0,616997297167309
0,659908776175164
0,625110747828654
0,656789149716365
0,629243421601287
0,657136024137263
0,626532835700332
0,637318242508322
0,635900779228574
0,682342566265429
0,661395362265045
0,675187164094104
0,669200150420328
0,694245172750587
0,658888193567859
0,689611376129475
0,668373384073964
0,689502667164173
0,67913365825549
0,708958511611837
0,677965626089882
0,758224687352869
0,689731497004104
0,692190337897906
0,685417460735024
0,733701182466725
0,699995541170439
0,751223547832777
0,71426381339263
0,763680707442692
0,736689603489317
0,757675335596451
0,746588893862903
0,74318576592126
0,749116750260293
0,783535614648076
0,766472709822277
0,798940847725072
0,797108347292773
0,817220575116979
0,785466774774468
0,797776914232871
0,796943498536063
0,779714969868346
0,745590464533772
0,811923643852115
0,768840775773197
0,807174946369679
0,818226395178195
0,849251889840088
0,789282453080219
0,831818595334529
0,818412197060295
0,869802037331153
0,821901427861878
0,844868577103073
0,854716926973536
0,850093008905411
0,836382004713429
0,922000318627349
0,848791110639073
0,902904420828101
0,835226811408348
0,844007952208744
0,871250182311907
0,908679223124314
0,876151480613481
0,915770973077049
0,910544916006192
0,94906629535934
0,888944884308551
0,883787458280015
0,879109079879985
0,949426969728958
0,963985711568478
0,940058926453606
0,887023936144972
0,932963532945963
0,913618568034722
0,913556702949084
0,901675826333425
0,944049991824793
0,922674000475743
0,922972470356833
0,958671263141078
1,0076631542791
0,983396792061309
1,07312515829682
1,05311883758957
1,00498643830191
0,95659598726811
1,00637398810472
1,02628075849959
1,03831134043446
0,922414473462775
0,96788496081428
0,985768115934262
1,05214198364911
1,10971378375575
1,03251326703102
0,976723975948415
1,01139366878723
0,991968332828991
1,08377071834158
1,0485360039698
1,03166233569483
1,02948541301534
1,10492787386245
1,06145128526854
1,08087929975464
1,01667234086481
1,07267757767026
1,05025318296954
1,15090376385357
1,14961433272572
1,08031672026931
1,10574894775627
1,12373064791278
1,06085805726458
1,11424952593554
1,10968419488089
1,1029189101082
1,03753300517589
1,1046663500068
1,08173199729819
1,12835356496404
1,13499871111747
1,09914585780705
1,1359624027196
1,20747103291831
1,19558319045906
1,20307385969575
1,20571879478957
1,18459624238355
1,14360873873601
1,22779450318136
1,21118581865521
1,19573686828713
1,19713970591828
1,24524710896533
1,15256532536516
1,29236266540443
1,15206134525413
1,14820654458404
1,29194779905141
1,24230604519209
1,16994509333703
1,18170075665512
1,19077247773862
1,23128788068017
1,19423128726513
1,28495999189426
1,19806975223235
1,18283108232227
1,22441239183703
1,20793889698974
1,15909735718825
1,2015783799369
1,30994791858084
1,29069588934403
1,19888795702933
1,24837398331554
1,33020222852932
1,29529562702921
1,20073670011499
1,21172741860063
1,20392190777926
1,27205153784977
1,21633544139768
1,26364816408566
1,33633879442568
1,30803756703564
1,33944296143731
1,30359503802407
1,25283869080928
1,31416677111668
1,26759098770668
1,34126994587165
1,40871249130367
1,27352393702289
1,26619576161254
1,34644221253344
1,24623347041311
1,33169370660194
1,43256788672688
1,36807369137948
1,34203104356578
1,35117510167585
1,28579016595043
1,34972980046778
1,23545350878316
1,22615128170412
1,35616724273642
1,3046941335638
1,25738545535849
1,32768084751296
1,28533537486475
1,28577775006588
1,28380653430506
1,26774061053102
1,26624546817948
1,4131423202959
1,44000215250052
1,36031171932674
1,38869917384202
1,41291485667788
1,31786660133315
1,28646792773418
1,33295694671253
1,44970506100334
1,44589494290686
1,35892725867032
1,24329777900227
1,27021545177305
1,41451831074307
1,25950243006399
1,22990014469103
1,31061663890979
1,27305257902267
1,32912916957094
1,36042553425388
1,37148846214044
1,29210726943696
1,35778433184311
1,42976204878384
1,39586335530113
1,37818534195254
1,36545173878738
1,26825690084498
1,30669488198817
1,42044447636691
1,41490703040834
1,32732986274971
1,24715955734628
1,34417002077824
1,36162904865494
1,35109832652268
1,30637810361243
1,29495860874657
1,27965725690124
1,31993017611901
1,39899643924389
1,37073786805748
1,38895356700111
1,34260123680115
1,35373238168723
1,34976503865537
1,33157414567705
1,35379081853272
1,38419253027104
1,34021442180978
1,29962417296413
1,31014208820008
1,2988525729334
1,30598733363824
1,28514163573455
1,34030110313637
1,44725567747933
1,40278002648041
1,28948698654929
1,25954069779807
1,33601462119724
1,36907578937305
1,27454593298533
1,3032849707318
1,29966386767886
1,32685112393343
1,40627675526491
1,37003469525515
1,40889494894803
1,37422332989471
1,32882204510691
1,32501299772196
1,27187729413943
1,37113623138616
1,32213440609166
1,37317377486481
1,39221587141762
1,35951277909103
1,3646510253383
1,31987460459903
1,37870990700748
1,35192546161301
1,29831777341362
1,3632494558082
1,30635230761494
1,28575012584573
1,31951087979747
1,29934174958146
1,30529324345461
1,26394003133585
1,31254154138885
1,38302547476314
1,2942388657814
1,3619732944826
1,33394892861295
1,32188819164041
1,28069587713334
1,29906269017772
1,34682923437593
1,29980845100218
1,3096620004738
1,36003695303956
1,27844884331554
1,29727255043796
1,31861378484313
1,32441478559895
1,39152791427775
1,33437088400769
1,27209524555119
1,36835103491374
1,39226552178383
1,26936074808315
1,27947983728518
1,3688512100365
1,33832781407042
1,28652568511807
1,30970610650843
1,36664796485696
1,34021189479575
1,32077185172707
1,27832451966277
1,25962740826883
1,31374742183618
1,34005524158249
1,27570088877631
1,27467097692104
1,30403097453561
1,33125748406315
1,28370984795871
1,36132328038346
1,32546407692369
1,35240158214885
1,32789302080842
1,28877292043836
1,22702556927699
1,26080597916476
1,27008476809737
1,33189559217923
1,26199773436061
1,29362631285097
1,30592848403204
1,28323346602906
1,31044889293431
1,29654161151495
1,22725533372934
1,26659912378581
1,27889875643936
1,29235199844973
1,28516919165815
1,27885951437696
1,29346331137662
1,28585696282918
1,2146271272697
1,22956596627193
1,28190878636599
1,31843990742054
1,23628003818744
1,2362744993922
1,17326541256999
1,25753761761043
1,31603332118534
1,27867856238878
1,23665381900586
1,27551589444833
1,25045507665927
1,20494192102995
1,21523763510655
1,2744421635866
1,22179485921257
1,20846896899036
1,2345538781747
1,26792944450486
1,19584587456368
1,18940845458733
1,17915891108269
1,19744645468038
1,21504664092024
1,22827560118799
1,18389629640369
1,19418722593658
1,16210188438858
1,17416341635213
1,17330192774839
1,19377153016678
1,15953956436588
1,19284539550068
1,1675550448001
1,12516433439267
1,09872507190701
1,12840190893644
1,1097532807025
1,11064407214917
1,12956408288478
1,15043348366612
1,09791302264525
1,13720628350296
1,06000274684453
1,1104191304979
1,12417789135684
1,09916406120979
1,1050997567535
1,08648307656404
1,08424574492041
1,05678803641717
0,994031911391299
1,02616297621559
1,0555288367376
1,02477978788685
1,02749138823832
1,04111688679543
1,01546397857172
1,01225228839183
1,00273512615968
1,00172470432072
1,02909499914055
1,04505520115755
0,983562300939753
0,991094255557151
0,976421971759357
0,973878461912717
0,966772995374026
0,981759835974412
0,969886377367327
0,957560559532443
0,942780571035994
0,977020759643603
0,938603424672156
0,944590148638542
0,935217507519631
0,923578643659666
0,913620102718835
0,925829166877347
0,926715842010278
0,912616587784054
0,876014802089199
0,888873819601572
0,887092253874428
0,897210978219459
0,890786483458119
0,9112556076611
0,853082234779908
0,858918947979493
0,869464057618161
0,860266710044013
0,853367887705312
0,823284777683753
0,850868188017374
0,843084782520206
0,810684313654146
0,822996046445799
0,840962541467537
0,828366457006055
0,804803443104544
0,801295962893657
0,786619557110363
0,790404122365906
0,771314604016867
0,780921433956574
0,78979336240646
0,773358048520789
0,762619321173776
0,781572868503636
0,771052440652333
0,761384978557661
0,735784385364526
0,740383665225819
0,730956970473279
0,752736502843571
0,73439720335542
0,727218289552595
0,712789758918529
0,737991139487836
0,711948270865362
0,720870630318573
0,715299788690197
0,712275385033098
0,692791612298584
0,696876699796821
0,682236377719494
0,684204255182003
0,670063144132563
0,669291072255321
0,669937800483146
0,669329193990372
0,651575075300538
0,650287609675345
0,657934476264848
0,64161220072113
0,63097384904678
0,64107933109966
0,627638587752084
0,627479778944061
0,618990808125673
0,612040402701418
0,617832632950399
0,61800419758869
0,597196830018765
0,602947549024731
0,593619698216861
0,598810442750878
0,608029460906647
0,591286695943257
0,580197401990006
0,580205777621411
0,582827679278611
0,56944153772857
0,57338369096683
0,565045609766028
0,55467764577097
0,558688379388969
0,549997617238902
0,546803964392036
0,54127226488251
0,533162853756979
0,531293716812761
0,543092715197595
0,524841427401103
0,525484343294361
0,5204747452553
0,52497349478826
0,513399952479093
0,518124854201817
0,501201101232506
0,504541988223505
0,495897083528088
0,507009256876589
0,496416178405078
0,495245310029939
0,487955113811808
0,488184597714291
0,489242830304508
0,47978554260114
0,4688554134685
0,475607980169488
0,460857382948762
0,465440921236039
0,462909788139726
0,458120581290316
0,450963177469449
0,453041519585713
0,447111965098918
0,44303345260177
0,436060783313357
0,438606449382565
0,438371749485801
0,431871831195112
0,428775331697267
0,42986263908238
0,420226655829326
0,424077838696483
0,418685379316176
0,413039487328241
0,411791084673881
0,412080451773811
0,40744145122984
0,4061771435143
0,393526576894831
0,405310296099126
0,393802813668191
0,38796103516155
0,392037332894154
0,389592000649001
0,377066199313761
0,383594351535959
0,379444313731094
0,369890556161753
0,376975863677401
0,37270505546199
0,367777720794586
0,365600024670035
0,35604247532042
0,361306942442552
0,364290335922352
0,357206799682805
0,34974599867805
0,356840520197784
0,348598954652277
0,34517181343281
0,337357713891248
0,344189993384917
0,339151020453114
0,341349042180238
0,332965795073022
0,33770293351656
0,33037054113204
0,328077726614117
0,32644956315349
0,320873543082468
0,319918466132226
0,32055550252291
0,309192634928832
0,312770165750813
0,306344902699197
0,309735506932277
0,308046611633151
0,302474181855616
0,294823510334201
0,306125298539654
0,297819511174836
0,295871329524706
0,298582008300674
0,298557811916638
0,282812467221369
0,283818464319505
0,281200795115928
0,285528639587882
0,280730244815117
0,285831387355803
0,278593934375615
0,28150948699797
0,279085945580984
0,276475508294121
0,270295994654801
0,27103019661318
0,268529822023066
0,268666739537511
0,257905769176174
0,266445420744362
0,265518488080137
0,261006074543503
0,256699332269439
0,254013959826834
0,245130779945042
0,259126760831818
0,253891159132066
0,257887050547987
0,249345589438866
0,250613078018059
0,241040570254735
0,247121441788412
0,241699398981628
0,242001329468268
0,232092849538216
0,234068325232777
0,228947700720606
0,231190213365443
0,233051586250278
0,234884099911161
0,227610969278627
0,233741688726137
0,22949448171437
0,230243679961278
0,221718370952204
0,220361921208318
0,222011492394393
0,227297163050499
0,220871038164284
0,222839932130518
0,220180030535902
0,217557259819387
0,211793107923275
0,218164274087393
0,214709156113235
0,217358529635949
0,209209164441874
0,214907324972011
0,207013228671416
0,210352547808622
0,20526311915885
0,210869716622264
0,200944313165532
0,20406461722319
0,200139704504197
0,195173354219277
0,198414020623612
0,198993920844468
0,184904869681785
0,193468986865797
0,188938327232543
0,191888835490723
0,191297242287513
0,190446192368829
0,186823592920054
0,192866645429649
0,18575787751911
0,185645580884392
0,181814769204322
0,18189865412835
0,177599568585298
0,179268815892187
0,181796773555881
0,181961530252046
0,180818066470447
0,177932292337945
0,172144110504814
0,176864291948114
0,172199981135904
0,17487026026156
0,173181190067791
0,17273392228142
0,168576230215125
0,171083048219816
0,166899610963159
0,170916978228275
0,165383334306024
0,169148812286436
0,162324821292632
0,165694864273386
0,161347889861379
0,161734528555005
0,159824927551486
0,159564655745289
0,156293189909378
0,157921875326871
0,154381192359465
0,163433325465564
0,153393991877409
0,159261638981668
0,160666677149392
0,156245690273107
0,153142834585995
0,157616139242931
0,15227066145052
0,150410022183921
0,15084918840372
0,149371663242122
0,147180088266752
0,149808872225162
0,143070118786323
0,148026394396537
0,147904949899972
0,144679704379154
0,141411779224263
0,143316363755057
0,146017311726764
0,144886667452818
0,138991860050424
0,142151225480846
0,135879736465767
0,14084497556988
0,12980479940091
0,136227468352029
0,142400104611626
0,135579479442403
0,130067054948883
0,133752350117071
0,132083765070694
0,126918963019697
0,128057425302626
0,130903560688487
0,127235838863303
0,127455206369572
0,124086577187524
0,129637890757391
0,12091059016972
0,129577723719034
0,127393141764641
0,119687921449133
0,121191059302744
0,120866466239946
0,120028626253414
0,126014791644888
0,116545007119862
0,121398222825521
0,119735332704704
0,119862360044607
0,113095468959647
0,121115502509987
0,113762106721986
0,115404803995263
0,112514788131495
0,11927301457402
0,114312722766321
0,11758634579446
0,111580003778967
0,118639231934113
0,110491841365292
0,111382319390228
0,107976771970646
0,11546094770688
0,113718416462005
0,108928580420583
0,104665714677677
0,104113511966422
0,104657772113421
0,111376007420077
0,106691719067983
0,106375079267724
0,104554097471139
0,10663383587117
0,10747220497902
0,105093585359706
0,101697203072951
0,108019431969379
0,102451251926249
0,10601842079996
0,101707176419479
0,101180989421949
0,0996694521493822
0,0987120667489768
0,0967695365197396
0,101552660646681
0,0997668944609069
0,0968064926057236
0,0991040105072007
0,10066571285926
0,0936456835358786
0,0984138038520316
0,0937993395255478
0,0964281240037591
0,0953723585533427
0,10135013981739
0,0941485616575974
0,0946952915582126
0,0932354365417276
0,0959821222154677
0,0925966042769173
0,091857540179457
0,0943620226251363
0,0905226008235565
0,0891881325882524
0,0915753592503074
0,0944473412223683
0,093920714373953
0,0899237852283916
0,0913911579719776
0,0891324821023485
0,0902574189764069
0,0859663477636079
0,0905870470920777
0,0883053068735255
0,0901252897108395
0,0879598378151394
0,0857457884207347
0,0849670300917773
0,0890481875699139
0,0846410545077086
0,0886016913754908
0,0842753670155682
0,0866117753945831
0,0866496576546315
0,0853997949559379
0,0828031423717398
0,0855967865147588
0,080970314308
0,0843462084998517
0,0849839043004318
0,0837757580944294
0,0827305342539597
0,0870560935938908
0,0818487723567753
0,0867170978652135
0,0792677063720161
0,0837822618230179
0,0795283012177262
0,0824454301748059
0,0838536568715395
0,0854542100410944
0,077340331255906
0,0806154525774625
0,0778657027697016
0,0826923016839166
0,0793789126275015
0,0814278268960435
0,0783376700197984
0,0800248141446767
0,0790657869887135
0,08108215399419
0,0772265424838519
0,0799812255496465
0,0768487308161652
0,0816037934287979
0,0799570562933553
0,081546143165559
0,0769171411899372
0,0740949311093091
0,0748495379630411
0,0768959720195138
0,0753183418423882
0,0776677765061939
0,0736446326774244
0,0732065681907301
0,0720396464142029
0,0792879483246252
0,0744305832102998
0,0735935130670453
0,074311199945213
0,0798206468983371
0,0762127396954591
0,0734067827027756
0,0724747837352261
0,0764035587350721
0,0731189847778489
0,0745676889936468
0,0692967307655041
0,0740118006361784
0,0718821879864737
0,0719408640998135
0,0744174978816548
0,0741563219205653
0,0708581872815532
0,0756477220015438
0,0710983067969878
0,0708470182968738
0,0706281599306779
0,0737044597159164
0,0704569056002552
0,0680472204963326
0,0703849244900762
0,0748816504229575
0,0709290719273656
0,0742807504202388
0,0705744717583516
0,0752372454717171
0,071688456086702
0,0727059335995106
0,0673040229591755
0,069729584690834
0,0666321095402056
0,0687497983083004
0,0639689156488078
0,0698435352815347
0,0689085605632687
0,071687734565846
0,0683506228938186
0,0671726402113369
0,066054148863198
0,0663047908488895
0,0677153259394342
0,0706437944623954
0,0649809375910145
0,0706206498614177
0,0689093430284683
0,0690104450236059
0,0651229629480609
0,0698227407549215
0,067356272640912
0,0681437822424914
0,0663166580207289
0,0692787353634781
0,0666684048231847
0,0679110148159888
0,0661676909003435
0,0674074071966542
0,0636585170812877
0,0665060124024588
0,0634791167143249
0,0652115821876426
0,0626726158972159
0,0650189483018908
0,0632102200867571
0,0692657695917614
0,0647851027848357
0,0663909154181243
0,0632799215829011
0,0673080076409131
0,0639540914390993
0,0647589688089897
0,0628522393427565
0,0659748002782704
0,0661769044192777
0,0691099117982344
0,0635908053109443
0,0684388605168112
0,0616694322070338
0,0658827816480029
0,0615228372850504
0,0694139372878895
0,0617511931743158
0,0644162653037818
0,0629051310264737
0,0630597753351199
0,0613064258814115
0,0649508425769185
0,0638861940308353
0,0645733613522337
0,0643643061048762
0,0633575292547059
0,0586325843180448
0,0639500957157691
0,0626751876956546
0,0625086844791781
0,0619286233524153
0,0651041723041588
0,0599393015923221
0,0605385939450739
0,0574988807187467
0,0616231931772423
0,0589077480203341
0,0647070838125535
0,0627928194813746
0,0630727673838504
0,0620535520302759
0,0652199089961139
0,0624689484156358
0,0654906990061263
0,0592506142070336
0,0617032498243809
0,0630022324191708
0,0624822558935914
0,0599043902279805
0,0617838931515927
0,0574639113919173
0,0639983592602758
0,0612063263298522
0,0611000449525574
0,0612863523142485
0,0651155521686418
0,0618562472183094
0,0644293232718466
0,0608055419826897
0,0612799027299477
0,0601692773710836
0,0617992597469121
0,0595307461306163
0,0649763757167488
0,060176345104703
0,0638829220667808
0,0604105288368959
0,0623403999295938
0,0607485876142204
0,0611962389041074
0,0609642576363644
0,0647802032804985
0,0618208960660884
0,0645525335788665
0,0605563972645528
0,0651299933862828
0,0581307982433685
0,0636697510951979
0,0584192890154111
0,0599037605754653
0,0580658504979168
0,0618753133028143
0,0612310358742147
0,0616483421473685
0,0607972794353699
0,0633570918268278
0,0600831186092161
0,062577214128292
0,0590996124372797
0,0630546736713423
0,0615015117261472
0,0629080334381446
0,057923022552132
0,0602243591368393
0,0593653132655881
0,0645751809779939
0,0573607086662282
0,0609885433548781
0,0598603700441072
0,060463117549083
0,0610493141503782
0,0599770509359332
0,0593517592500745
0,0632685330392099
0,0559219398123294
0,0638382542331168
0,0610266427661671
0,0656862192485802
0,0605334410550244
0,0644002737517701
0,0604436889925172
0,0664675977541969
0,0610541004724915
0,0603916232118954
0,0627171286718046
0,0613565028391522
0,0594587826133335
0,0637351373625072
0,0608719257822141
0,0618274173796853
0,0580915348563094
0,0661621479084285
0,0590876423312224
0,063451207953916
0,0598896409937581
0,0642111642547328
0,059278574467451
0,0620608867684082
0,06131428062168
0,061773481736461
0,0618617998590985
0,0647403348005538
0,0614968669961186
0,0626815195837094
0,060147655630998
0,0642532914849552
0,0599649385974823
0,0660553568427398
0,0612755726205855
0,0646458530079878
0,0634007817099563
0,0651686146700449
0,0641433281492694
0,0619935829636597
0,0608436851582461
0,0659659473704201
0,062002328582673
0,0640116082326828
0,0582692131791867
0,0647504374746244
0,0602291077468032
0,0644975384962553
0,0630513293707921
0,0634289488846994
0,0610791463495898
0,0612958223436334
0,0633726067913078
0,0628927472306235
0,0598420447048002
0,0639744612620489
0,0641563653156103
0,0638020128157525
0,0625356785216272
0,0615966669529843
0,0630724137058756
0,0646701209220358
0,0628856106717697
0,0659267057627354
0,0635812605201827
0,0649926243778067
0,0627230892171334
0,0632721927387365
0,0610897895814071
0,0651488766191466
0,0642767217655765
0,0674109451712661
0,064955322691353
0,0645883022208504
0,0628660668783308
0,0668512431667398
0,0627615533014005
0,0669445611527996
0,0624554812847261
0,0647747809011025
0,0606018883505542
0,0658082815991439
0,0648244521556064
0,0670241934350745
0,0640821094797273
0,0636151284739433
0,0646569985701378
0,0672543246287373
0,064707488841361
0,0680023149728965
0,0631519963075317
0,0668537631946795
0,0632380823404207
0,064989470783978
0,0637563504230552
0,0670450923441821
0,0649973680026092
0,0663256178868811
0,065016623742157
0,069355139759248
0,0661369776436254
0,0684065886076349
0,0655567733744929
0,0661456779206652
0,0646790667552525
0,0664282820772842
0,066019480811972
0,068226995345993
0,0644665412586093
0,0643699951774029
0,0661660421021304
0,0671735856582357
0,0652995050416304
0,06913290156733
0,066500632191234
0,068096941008594
0,0642027142537922
0,0663265692984363
0,065395928960914
0,0671325126285577
0,0622162752488203
0,067252473181755
0,0679820200734828
0,0675939813011464
0,0672451505711295
0,0678453000504437
0,0691130217231807
0,0698022778926875
0,0651326847345196
0,0685600380174591
0,0686430713387191
0,0689461759070546
0,0670975182520877
0,0680624622387647
0,0697388220475457
0,0681108481168862
0,0675745972938493
0,0699634923569135
0,0665178099678397
0,0683568372372561
0,0695888882621211
0,0700315264195613
0,0684857850265746
0,0684726034994921
0,0704690348112816
0,0703996327583586
0,0702306612213302
0,0697862866239361
0,0704865087199071
0,0705104850079036
0,0689240310544256
0,0722690175152113
0,0682145056093181
0,0704826988659374
0,0719744304090449
0,07294990753559
0,0706198481829555
0,0701797743443724
0,0679400256460238
0,0725171474148793
0,0721053784294883
0,0726255427795776
0,0711645893649006
0,0685040673046405
0,0718770736192765
0,0719428079384158
0,0694640283534924
0,0709910337986501
0,0705385570207224
0,0695827436302392
0,0705550471423213
0,0725969806583559
0,0719846942794058
0,0712006365163895
0,0735244834209812
0,0738694627936287
0,0724486070633884
0,0710093317605168
0,0717150672191754
0,0703518227042963
0,0727712519638231
0,0721607390255973
0,0729343735142824
0,0733650706883926
0,0715536438863125
0,0734723173976119
0,0735011372832523
0,07287226921139
0,0726332124514766
0,0735290060536818
0,073286895891441
0,0744252650134827
0,0744137374779903
0,0746606935206614
0,0744571943187333
0,0734606607902069
0,074548276604821
0,0753723317404356
0,0741332675624746
0,0746681357210693
0,07676374328012
0,0754892357501172
0,076805455023197
0,0754887001555007
0,0773515621568111
0,0778302439580813
0,0766372154163312
0,0783646926442814
0,0751264039208582
0,0785088390353538
0,0807596290047551
0,0808153462975249
0,0787735358265534
0,079665838842215
0,0799236982117549
0,0757685810265948
0,0765671172111236
0,078170615764792
0,0773284288139905
0,0831464414142075
0,0842994988949519
0,0776750630179673
0,0756172019680839
0,076364387478711
0,0830256689257099
0,0750876262608318
0,0826203661934673
0,078288121283897
0,0824241486067935
0,0815912639674984
0,0756956151934695
0,0771368702089746
0,0771962077348489
0,0779430572457366
0,0845256310587411
0,0760310495552907
0,0870725471299822
0,0781253640929138
0,0822333321374634
0,0762824104711605
0,0924853229140346
0,0763752523878179
0,090452575246185
0,0817412386218461
0,0867938739656198
0,0773245694707006
0,0927656556954937
0,0796609232654873
0,0879455996336107
0,0773904470915955
0,093024643773929
0,0768594154629296
0,0908121872983175
0,0737016744029735
0,0780098069266949
0,0760898455510399
0,0869538503645593
0,0878371346846117
0,0907748020979931
0,0856348409270154
0,0738739085723044
0,0849208642621259
0,0814622864364907
0,0998585057304348
0,0782278867806268
0,0945820862995994
0,0631833198571777
0,112985734884361
0,0609490323728544
0,110819384843185
0,0536136512681919
0,122975688748253
0,0535531090567611
0,116052301318125
0,0573813560339452
0,116253137876484
0,0616234480001702
0,110109530156779
0,0740056712194637
0,101893058188173
0,0813154311759115
0,0923739365991105
0,0861747154402439
0,0888981779682728
0,0890683198570217
0,0872702380220931
0,0838366753351843
0,0928485045619489
0,0853652056930134
0,0951243348038481
0,0812449547078911
0,0946255117704404
0,0826535806697051
0,0959042925988843
0,085096767546374
0,094122673636895
0,0830650310488041
0,0897212759128893
0,088658712785057
0,0939981661802386
0,0828253211806703
0,0955112129733238
0,0881127044979984
0,091167187759022
0,0907614211580295
0,0961387481574351
0,086731675414696
0,0964299628364232
0,0887180927925906
0,0963708694773898
0,0877927501691782
0,0957804490812773
0,0907266889292248
0,0935025434342549
0,0891931416357841
0,0958096418734569
0,0916626163886928
0,0971694600093449
0,0879103486206101
0,0959182668636746
0,0908639618683707
0,0966523781773928
0,0922482788260426
0,0974307074276551
0,093529539829693
0,0976992310026258
0,0925142844096724
0,0993753694506612
0,0937154493263329
0,0987987132227908
0,0942582493247371
0,0979531700174078
0,095203352402111
0,0983512910861265
0,0916822347822123
0,100526575780445
0,0927063807058797
0,102223607922971
0,0968580217570848
0,101823235466684
0,096310844379136
0,103303241537752
0,0963135540993798
0,101295825925709
0,0964097375169099
0,101760140076287
0,101120169284316
0,101496331865624
0,0978008852891497
0,101657347360403
0,098038343427292
0,104043582896987
0,0999826350418504
0,103138251509607
0,10050472899831
0,104762785388933
0,0999716894518939
0,1050644249873
0,0999888977944254
0,103234860004112
0,100608114975916
0,105188219817625
0,101313188381575
0,106349297736291
0,101112421936226
0,103756112159199
0,103525388682581
0,107654869104467
0,102363770885038
0,105005444822866
0,103324372651216
0,105947277842558
0,103041970249691
0,109641457591227
0,104151512944186
0,107398903673627
0,10435680944771
0,107882963714556
0,106131138221892
0,108913350721496
0,105749380794902
0,10848869543534
0,105476335793414
0,111482314972215
0,107399587948631
0,10829790595328
0,108957518798794
0,110755701932078
0,109015211171019
0,111176290911518
0,107350141898308
0,110783408110996
0,109830909731263
0,112691035849874
0,109741871864605
0,112547791421465
0,109314789274341
0,113439319680009
0,110734006727731
0,112157391892865
0,110948481338891
0,114235991385446
0,113601432908439
0,115528468532217
0,112935295854759
0,114624499556277
0,112001515152539
0,116212228368342
0,112980659476706
0,116970194121631
0,112982758419712
0,117136599856268
0,114777422612722
0,118870991056225
0,112450268456237
0,115873164469213
0,115724106133997
0,117439813843697
0,114344337332411
0,119390765642729
0,114205401712405
0,115724140864764
0,116252704745425
0,118437825901558
0,116409716717117
0,119120929401709
0,117025722866319
0,121061013076912
0,117816283828685
0,118556805912263
0,116945972960355
0,122238137805656
0,116154039155453
0,122217576185781
0,118669951557955
0,121172028071272
0,117147553068366
0,122019032969395
0,117502660659879
0,122231118998053
0,120152705627284
0,120780564694779
0,119959389051248
0,122434432603205
0,121025356993796
0,120116650694754
0,121092825662471
0,123409590688675
0,121096753524003
0,122260251549466
0,122379030876158
0,125545564963593
0,122319531332593
0,123053778296072
0,122270765435229
0,124560258086763
0,119483947434807
0,124487493546066
0,122834574454981
0,12552230244929
0,1223283136182
0,125315032969434
0,123608742614922
0,125852798046596
0,123874962461099
0,126908746668696
0,123408948768626
0,125451504757537
0,124653754114775
0,125797209549876
0,121195618423062
0,125785589692843
0,125598286359986
0,126533671722873
0,124837313924402
0,126634527044162
0,121653861084911
0,12671473682658
0,125630015151788
0,124784757393344
0,121409990455876
0,125832777370565
0,123815847751099
0,126425639969385
0,123144399494935
0,126191446960477
0,123548941903664
0,125653131103971
0,121136358122123
0,124136479150643
0,121792474813026
0,124612201449988
0,12352625363031
0,127047983582714
0,120763395776144
0,125228850577284
0,124602094418335
0,123823445494306
0,121330662736361
0,124702639894835
0,122155519517918
0,126825184188064
0,121636608903966
0,1247754896122
0,125115073873999
0,125492644129585
0,124024308605556
0,125721927586403
0,123953326748068
0,123538788752225
0,121104469134138
0,123706635229502
0,122570730898809
0,123395286187054
0,1224289590404
0,124410934519237
0,122886531412721
0,124882763961414
0,122856948970331
0,125372470373096
0,122235663321149
0,122503321427585
0,121537619740544
0,124773973084788
0,123568349659515
0,123198782499473
0,120450074722378
0,123931869392339
0,119944328608204
0,123368629464053
0,123273649823987
0,122434479338068
0,121011966602303
0,122156482649237
0,119915074082038
0,120862721889398
0,117037638287937
0,119656063247952
0,117730874921992
0,119612127692989
0,118098196988175
0,120311185263
0,117756536398311
0,121578973192132
0,121239456969596
0,122902032426596
0,115766405942288
0,1199995178203
0,119602946573479
0,119074296970454
0,117193975463756
0,116664446970455
0,117008536112311
0,118920376961459
0,11550635622592
0,120020253345406
0,117084587233005
0,118014744937762
0,11380675852908
0,116302310067502
0,116167838200247
0,117081939787961
0,115042625108868
0,117659694135411
0,113247472839092
0,116888769199413
0,11390612382558
0,116535988254494
0,112762482515334
0,114301935774147
0,111326613766413
0,113938325222303
0,113864068452181
0,114183095329873
0,113078743970081
0,113911225868316
0,111292452123629
0,112981860161716
0,112027830034537
0,113832766969249
0,110846584854008
0,111317886299382
0,111018403068863
0,112047207882371
0,110472285935131
0,110289662454215
0,107479379149153
0,111257166563868
0,108194454802442
0,110240139339818
0,107471493530835
0,10892778459413
0,109748115520356
0,10872717572157
0,107261071292374
0,106051307719536
0,107247052479499
0,106439860149793
0,107769490819328
0,105306668503811
0,104324538002151
0,106306769814564
0,105503965877923
0,105372735543948
0,104327032191037
0,106207397762591
0,103724214557899
0,104198927597411
0,102590849213122
0,101933343303205
0,103648009706131
0,102958557467949
0,104375568932505
0,103689797185134
0,100870813241401
0,102441264299055
0,102963546362531
0,100792157108993
0,10181354626743
0,0999482715965275
0,10201702781459
0,104422194212023
0,103539364989658
0,0990121337861953
0,0944958174744814
0,0993007626555412
0,0974437676167513
0,101816137012119
0,099183581118753
0,101877708399668
0,0957907171359797
0,0987398714978002
0,0974831241492778
0,0992372579310166
0,0956992723498856
0,0951172332232057
0,0941379850097639
0,0980859845767052
0,0971985348275845
0,0984986364408979
0,0953202703178173
0,0953371324050687
0,093566633932826
0,0947658259766486
0,0897568444308535
0,0933393306278348
0,0934348054572696
0,0985793526988576
0,0928497492057575
0,0974458650276594
0,0894074882323631
0,0950980537119884
0,0900552692988405
0,0931793315881992
0,0896427807769356
0,093590240831619
0,0902672071006041
0,0907118753540542
0,0893851420842776
0,0931046852111103
0,0884622615351052
0,0932537655408135
0,0911946443416375
0,0911527122020187
0,086271929843324
0,0894821693452534
0,0871141130528536
0,0915744972884751
0,087461980247698
0,0910861078028766
0,0876987460680125
0,0922116953161646
0,0852214967897292
0,0878327482271
0,0932205173884971
0,0890078890279609
0,0900639997241916
0,0853204134980363
0,0882769858002036
0,0843497743461086
0,0887085079331962
0,0857449758934822
0,0874456182943968
0,0834106461161138
0,0847484931510646
0,0840988832101693
0,0859997588170332
0,0857947566744471
0,0864082030220055
0,08421949088072
0,0857580498272924
0,0853440787383932
0,0841063724740267
0,0812005932019831
0,0864556370045146
0,08547653540733
0,0877313232911054
0,0878271824806587
0,0840712336873581
0,0796713166177171
0,0956760796522447
0,082805869681524
0,0892544773856987
0,0795146539630423
0,0847651328299321
0,0812633778151932
0,0841871489503683
0,0808679409147373
0,0850099676507608
0,0839111750199535
0,0803890793209578
0,0852663064598627
0,0796815952735883
0,085636679099282
0,0794210435563438
0,0842519494534012
0,0809526128240589
0,0824900733195727
0,0796601511129831
0,0812228585606005
0,0814038508469112
0,0794868214989378
0,0797090050947577
0,0799525606475472
0,0817779366310409
0,0834754482231896
0,0825755492305362
0,0813912422243413
0,0814763243608998
0,0795775319723725
0,0778274096748065
0,0865261987369401
0,0769124041662464
0,0863089229124619
0,0724030062967841
0,0821904498560464
0,0767582524308568
0,0822230017436066
0,0786980985945252
0,0814103162963602
0,0773749311972756
0,0802703701998027
0,0772386276281686
0,0818230181314639
0,0775191113273239
0,080993040368859
0,0799471155391144
0,0782860055340455
0,0781450120661323
0,0778677658164821
0,0804370972632469
0,0753502789562384
0,0864306337273503
0,0873533537897731
0,0831203030922874
0,0860643705529989
0,0804716954959708
0,0817191929090208
0,0780071265096276
0,0798169121246581
0,0766261012198747
0,0822463823559948
0,0750805731645802
0,0814437409554287
0,0758562713788212
0,0822010236302889
0,0786815484314163
0,08346067863323
0,076276755013644
0,084443853090436
0,0728616519090235
0,0821294501244799
0,0740193989622505
0,0859251054669798
0,0737176395889981
0,0856487409838884
0,0746716418935569
0,0895948898096763
0,069980161274078
0,0942732825765611
0,0747191089202802
0,0842002092085927
0,0870974848844771
0,0776519620387047
0,083139258642584
0,0767319562687886
0,0799463932478196
0,0823972620681008
0,0833787844739724
0,0806372544760175
0,0808263391326039
0,0795815746394781
0,0809738144256013
0,0800399860586017
0,0832192091724622
0,0943036997380766
0,0858171069096073
0,0902905215638902
0,077629195005825
0,0840128340800699
0,0972484863512164
0,0794633861610685
0,088856598980849
0,078671979079677
0,0844401320896753
0,0822722670539126
0,0824381979925563
0,0801863170646322
0,0839927693302699
0,0846354425764156
0,0849331829493883
0,0870259529232816
0,0815090339392687
0,086274823540763
0,079401252523567
0,0882937655520082
0,0864192568905875
0,0848657619346398
0,090440665427034
0,0888247413035396
0,0896287882263995
0,0868257305421341
0,0844796389434455
0,0861920173256117
0,0898731368233187
0,0932614652840816
0,0874098614890687
0,0981385348034266
0,0899921460736812
0,0901138950003851
0,0921767878262342
0,0898618937359516
0,096839389938046
0,0844466025821168
0,0920800380910935
0,102649086349285
0,0856240962238948
0,116275323143572
0,079957037689919
0,104599621002634
0,0821281816939885
0,105112775731801
0,0823006140358915
0,111675241600473
0,0883089755368015
0,108602895591052
0,085629362201367
0,101545053004027
0,0971435477367026
0,0988433405047553
0,0998919603385983
0,100585230989364
0,0959565890625189
0,104538436838559
0,106371185915168
0,0966249732606109
0,115460145375106
0,100795688780298
0,118046764173376
0,110715322222375
0,100334397617066
0,119920924318108
0,0910437457333475
0,118710971230239
0,0993810526947424
0,109460858636369
0,106963564724912
0,107436134601504
0,125999207153003
0,117018838678937
0,114662450750583
0,11870271872877
0,106162733079996
0,127391666392917
0,115968079124854
0,121777135081618
0,114660249474458
0,124601768548841
0,111932614049321
0,141624833134988
0,122718543823731
0,134371548444982
0,139106163727646
0,125704673592692
0,143512336478873
0,127487265014535
0,137635345150828
0,12642881155989
0,14562053793236
0,136069867956561
0,138307544004857
0,136860589644547
0,151806118293735
0,130863431756359
0,155258253761094
0,135364884078556
0,150460325000523
0,149969017462299
0,16785991680339
0,158465225599825
0,16611324748683
0,152727703634697
0,166768818292694
0,156384035525665
0,169430299702865
0,161239669678086
0,167288049116999
0,165846092155903
0,165907253025544
0,178773638013181
0,174687892137265
0,18015323383872
0,183512233367477
0,180941801154936
0,194661898279848
0,193576859130192
0,223781615112781
0,185782622690899
0,221312767790306
0,185656221594528
0,221472264802941
0,215118068516232
0,216011180376651
0,218104568228451
0,219714331338005
0,22857852357134
0,2248499737897
0,242415999520028
0,243845762256054
0,237689643252633
0,271219526319993
0,23846443680032
0,270699442706953
0,245977351160752
0,32005265722358
0,229120168486534
0,302002871809067
0,278279714879509
0,292100647081548
0,31565002116458
0,293369112715059
0,314145190009849
0,307035959607538
0,310885762568153
0,318570324203315
0,324005344244011
0,335828331460234
0,338847118201239
0,350695675655915
0,345046378789084
0,359455615846479
0,361902340323713
0,401696625484924
0,405607557032545
0,378035365002767
0,398428225803205
0,393632518402641
0,401139588159893
0,410692261624203
0,420288403296647
0,417562531289567
0,452133729557169
0,424978504508723
0,460684631442761
0,431154677127376
0,476099251155575
0,452802793311857
0,489800479608229
0,474325055454771
0,493261798506299
0,50145333797461
0,498540089864486
0,513250478928981
0,505425945107353
0,526222613648944
0,519613311149645
0,545360336375844
0,542709038670644
0,543900056281479
0,556373223049145
0,559015674277986
0,569546887283329
0,564258919946981
0,592697841919685
0,586635459881745
0,631566199196237
0,719222846916486
0,620907283321789
0,626295621824423
0,592805656399298
0,639994072854976
0,62847051343198
0,663134693503392
0,653253479953835
0,644086826167806
0,650089814534898
0,636689275456903
0,663666064342881
0,654701065331268
0,661996819810527
0,652712208106317
0,662430583736404
0,676254648107187
0,677334400084381
0,707063133446619
0,670211060121772
0,679050047361638
0,65275955147804
0,669355970366789
0,655798345702845
0,657924365624544
0,640626374642131
0,663708167166136
0,63945997394328
0,664101203693494
0,628906925223792
0,642154883777253
0,637263633008182
0,637129525944625
0,625551659552926
0,621225991191442
0,598917742218522
0,602934356745231
0,579826685984469
0,633316263517027
0,579077969793403
0,601298348495187
0,55366795490605
0,563098555861249
0,545113445867571
0,5437120921248
0,526836582896474
0,526466903538838
0,510081584685717
0,521073807954697
0,496640200511756
0,503246764867817
0,485278369515051
0,486748090621365
0,476448769315226
0,472338668195754
0,454019135597244
0,461371980622909
0,446982369978244
0,439276042767246
0,434570313472481
0,432696023252491
0,421567981788955
0,422564020371767
0,411649690227008
0,410409826366962
0,403502244456017
0,396784570183219
0,403259591083664
0,390231369272043
0,385891182980182
0,387229421282968
0,373540634580052
0,37160486504801
0,365183571807677
0,364969316373105
0,362049630043429
0,353127151925193
0,353911938251396
0,352140826778949
0,35228235604595
0,337193786698668
0,347636926897822
0,358131998702532
0,327661094137971
0,34154008072259
0,313010056057284
0,339605764534644
0,307997667459395
0,331754391906931
0,327112154239814
0,323405333412383
0,314310684497623
0,307900090530432
0,306402282621096
0,327648802363183
0,298904443388038
0,31580839696293
0,291000456865295
0,30778456333035
0,323410196162241
0,291291756306245
0,385684612150434
0,294322161991494
0,299154523193649
0,282450847105295
0,324285350787243
0,279182298009936
0,294230446650144
0,27158149453018
0,282851894975795
0,294165411764611
0,281734971595017
0,284681651516017
0,264212776684262
0,275937205886903
0,294133853749117
0,281845275994
0,27354396525109
0,291781636025707
0,270759432660661
0,282809426441627
0,277688219868784
0,29459271767297
0,263338098974551
0,262751585420754
0,262239412102421
0,251513718309875
0,273695558777589
0,257771118889151
0,260669587881161
0,267316868924096
0,24806229358973
0,26164049499369
0,241931048767079
0,269236575436253
0,232006288552376
0,280748753291058
0,243072081940523
0,255265438734082
0,253804900562208
0,253051473989992
0,272306417011006
0,255533723734249
0,250560584859601
0,237161172441988
0,272717654113181
0,236770870942445
0,255121098746543
0,243004192978358
0,231960854207515
0,252687921992804
0,234318909524078
0,23850638636095
0,247390159139569
0,242303119489937
0,254757784416536
0,253657325892526
0,260823813102374
0,245668772936235
0,23362396447148
0,232244831909773
0,22509489116465
0,232669679078068
0,222109853032362
0,222428772951506
0,263364560397515
0,21110128633139
0,250355520449838
0,217567347717693
0,229948750794835
0,226491381209123
0,225336404999797
0,2192243002415
0,225700290765836
0,228880261031446
0,249821092271829
0,214618156566645
0,248002983513333
0,216337484422262
0,234507238649825
0,212101210985002
0,229356181413082
0,214468307701204
0,22751452871209
0,224725607654198
0,223501435643814
0,220461380691904
0,22525378124836
0,210017552924305
0,25677435020522
0,209093196288968
0,231759257440544
0,235561406035055
0,229510802211559
0,247683398502068
0,216312876484119
0,227998091706991
0,218494474857361
0,22468239680447
0,224498288968927
0,215910164260026
0,247341650750853
0,217938289083978
0,227069427872522
0,214101273356951
0,224616726226178
0,219900069972226
0,225794479474818
0,235935803923724
0,224254473683594
0,285573838483929
0,200193402403177
0,245199170478676
0,214592817539067
0,227043524014311
0,223696853451563
0,221879908930805
0,226419615448498
0,212684278423779
0,234781663486136
0,227757623725805
0,221014434092224
0,224320950057279
0,218205529739983
0,226975410997369
0,21990287267069
0,220736515405569
0,219420966347974
0,22002787767437
0,227423904902606
0,215205813444157
0,24199230388426
0,244813094116174
0,216761297173948
0,231293911480938
0,219128373887473
0,236961191592846
0,21454554843336
0,232342679547555
0,234677661605134
0,223365586589394
0,225240554738455
0,221804643918776
0,226885925768302
0,216823456941945
0,233123999753593
0,222045478072263
0,221433090210924
0,229924434802007
0,208265901765824
0,281499551738699
0,20667181381681
0,245228921781118
0,219024228142643
0,228942587262226
0,214974663629719
0,22459527909447
0,219754231406622
0,228374484227981
0,223637128156313
0,226295317809989
0,223311203278768
0,219624691314709
0,227279564755495
0,219284255610797
0,230200570892163
0,232448657241707
0,219874966615962
0,226174139572592
0,219197620549666
0,222603628993989
0,220518810503472
0,238715288906404
0,219452407666489
0,232197777963913
0,21853465377423
0,234857008027972
0,228667294692993
0,225785902222646
0,218397077068843
0,227449563986437
0,213157963841433
0,229556212957654
0,210155872243409
0,242115584402113
0,225389617553811
0,230383272707428
0,217578800659607
0,222915610075757
0,217497835349395
0,223901611189891
0,22271523545201
0,22481873359301
0,218995027275643
0,223945003071171
0,223494657110792
0,220044870601592
0,223991060543139
0,223444067329166
0,234803384064162
0,228569182531968
0,220239427158019
0,225812158567831
0,213151970306081
0,22804259092156
0,216654415182335
0,224113588534354
0,216164857244677
0,228635642887857
0,210634697364072
0,230921590337615
0,228467792908972
0,220599590244363
0,227817978619305
0,211761711372728
0,224040469483227
0,216491470936291
0,221425985895354
0,214328598277559
0,219814415771406
0,218293379698175
0,216063399880922
0,21841739273224
0,213350704833209
0,215268550747184
0,21600558040039
0,216836730188236
0,215610557370401
0,217077168556884
0,210743417651624
0,215866147362344
0,213817836774325
0,215539847396764
0,21238689199945
0,215583206416497
0,221124785886859
0,216987513270673
0,227745500797014
0,214147206104295
0,224394236633892
0,211014457276899
0,218356802118769
0,213259677636132
0,211999122392746
0,215437552784994
0,21453359723634
0,211862698549605
0,211749289542327
0,21398589237296
0,213181000114385
0,214276203132086
0,21102677566503
0,215127569774475
0,211024914690119
0,212764711587221
0,211707357389192
0,217587526083076
0,211447414911612
0,219910165315449
0,211675819788088
0,21768252201324
0,20970915847156
0,215105522837383
0,210610085532134
0,213423216423829
0,215321608972651
0,211365173570182
0,212112142705282
0,211628977460806
0,211132680077834
0,21367617800061
0,208358141175037
0,212057566147759
0,208112115823832
0,214170259340682
0,211933895666793
0,213297074047296
0,210435370172065
0,213497625133336
0,210609234022551
0,210299338515323
0,207454343035514
0,213641114366318
0,210771406525402
0,211504996582502
0,207259258112531
0,210243913315357
0,207643598327746
0,210010520058283
0,206842070514826
0,208400063956554
0,211848914919334
0,213700657054083
0,208283124194112
0,209518689463579
0,208735219434183
0,208963684880071
0,206752164830069
0,208660859460972
0,209037404940976
0,210107552107391
0,206586205113296
0,20912547108512
0,209545673327758
0,211592909700623
0,207677685378051
0,20922836559315
0,205747726624723
0,209924804929367
0,209118221355358
0,208649346042072
0,210714616425141
0,209282244012963
0,210242114010466
0,211022118668393
0,211682329723054
0,212105522246107
0,209523528430721
0,209799874179048
0,211561235998838
0,210138461990898
0,208472960965242
0,210177955265589
0,20846681044517
0,210306526340219
0,209975692797847
0,209316254197078
0,209379747712377
0,208968012522041
0,207523625513162
0,20960803758253
0,208022471140197
0,209760414401501
0,207469815949369
0,210477076684697
0,209443336681367
0,2096760738841
0,207820456001936
0,207852037668266
0,208856101408679
0,209228795886467
0,207766362256605
0,208419708709883
0,207484890855151
0,205779874395857
0,207270785510459
0,208411183198938
0,206881378521231
0,207930570654489
0,205259983650284
0,206779361410219
0,207526306707683
0,207388438626902
0,207138443694366
0,206891283036254
0,205807715846341
0,204852776123224
0,206180291479863
0,207047053374484
0,205697551293693
0,204459547579968
0,204207312366433
0,206026328698529
0,204936082766548
0,205306772745422
0,203536944297068
0,207604922937763
0,205312134306856
0,20485574447902
0,203959719306593
0,202601605619003
0,203470539282217
0,203605818384058
0,202955750435917
0,203496553191763
0,204206574274696
0,203999387699344
0,202692852743741
0,200346923092419
0,202899274335682
0,202059072180934
0,199797027533692
0,201465337376124
0,201212401790613
0,199918870477747
0,200275135390054
0,202749904098585
0,203854825176798
0,201924963432879
0,199290864626965
0,20357332086585
0,201207842914022
0,203810915207424
0,201949509853141
0,202237906003173
0,198624461247655
0,199739597246008
0,199072931378589
0,200655354751592
0,199350822776783
0,200237673687165
0,19902001887893
0,200942951307883
0,199803346367022
0,201004971675744
0,201996176936997
0,200603910595411
0,199414182417539
0,201946079927554
0,202121870644646
0,202826526489886
0,204938384448217
0,204075893004468
0,206222669221079
0,207102660581547
0,207493488031533
0,209288655678648
0,209425580788756
0,211134012301598
0,212900501448791
0,214688319324606
0,214703642551912
0,217936235701039
0,218630984890374
0,221102094381678
0,220471309728439
0,223530016551927
0,221507916403503
0,2267209252987
0,223675229078149
0,224871470204087
0,225579115558218
0,226404389703143
0,227150654049129
0,230057736518058
0,228231005316928
0,226526742355645
0,225936556813278
0,228445444291703
0,22593201296764
0,227082338539282
0,224976415911307
0,226487726653238
0,223449165288723
0,22699633674843
0,226328753451733
0,225980778850416
0,22454900784694
0,224889957560811
0,221641260723746
0,22411134997375
0,225059266930835
0,224535593692539
0,223091785940502
0,227178061047083
0,225948466889756
0,226196012956451
0,227232118816732
0,228203709392545
0,228396919440912
0,228284401787329
0,231087379672467
0,232144432413485
0,228350978909122
0,233245753844076
0,233192679821976
0,235267825558006
0,236015088231856
0,237451590055758
0,241882472772895
0,242754372359335
0,243156909384438
0,240754850985977
0,243817983982304
0,243486354255454
0,242586883373111
0,241488806455752
0,240533745681169
0,243379676718606
0,240213547833142
0,23989298880081
0,240550521529076
0,240380243498726
0,237711638190087
0,241056605552612
0,238967830673112
0,237823205964474
0,239289652843176
0,242037981187884
0,243162784938681
0,245728731283721
0,245148607979434
0,247555437222775
0,246274555777701
0,250996401862733
0,253677951885376
0,253476456348704
0,255626446420451
0,257827584948744
0,259203324179311
0,260230323364719
0,26202886004439
0,262332362061498
0,261252011419062
0,264144556555524
0,266883096318646
0,268132961272522
0,269812318897214
0,270097792146838
0,269900681465002
0,276204569721952
0,275179212713437
0,28009820140241
0,282742199894418
0,284330888056908
0,283323620605906
0,285743834116201
0,286758514769387
0,291410580384061
0,289027317672855
0,29128604406505
0,290819545934303
0,291025200679359
0,290772915019547
0,289437672772261
0,287991507310723
0,288433711223547
0,285698750092289
0,285121859935199
0,283709314069387
0,281130627384935
0,280098147479626
0,280512879750032
0,278052161639897
0,276414891971493
0,276419022794717
0,274810711187872
0,277269030578915
0,279158331779915
0,276991397443072
0,279261087275838
0,277418868801189
0,277443407961762
0,280903655705311
0,282268728377181
0,279230811053923
0,280499665733745
0,283276505724177
0,286445700576183
0,286366078821254
0,285837432133255
0,287373739036015
0,288136334662265
0,289030469245882
0,287726836361558
0,287781803241636
0,288344190498215
0,288690188669008
0,290657676657887
0,289238858099328
0,289876113587698
0,289858933687575
0,291102086941873
0,287204918148134
0,284098235284931
0,28791713745549
0,287937331125727
0,286900798132351
0,284550937060158
0,28786164329916
0,284785828544361
0,284136769871574
0,283790516374019
0,281116470435559
0,2822685760033
0,280779507698001
0,279131412880424
0,278305335232303
0,275852837956787
0,274499772245579
0,275603448514998
0,272011429797847
0,269287503257726
0,265309726775276
0,264951981383199
0,260748949391945
0,258657358577355
0,255731553846008
0,257955592868288
0,25568870134328
0,248883101080374
0,252379999377233
0,250647839539619
0,245784187570814
0,245891037470974
0,248363838104352
0,248433661020484
0,249133033514175
0,249182120989163
0,250045556557048
0,251565119294313
0,253096143052151
0,25272722896541
0,252539354263051
0,250618750288436
0,251925851314131
0,253487215560524
0,254709367932212
0,254327415023404
0,253389298666507
0,251685254125817
0,250912520889255
0,251689673956488
0,252839786350193
0,252141100607573
0,25088260340857
0,252002544053634
0,250513690242907
0,249260671847324
0,248227676010892
0,247206203691495
0,250751718358185
0,250375131145922
0,250182595126362
0,24878958612632
0,25096211901106
0,248280202713962
0,250389101299679
0,248273283622947
0,247562846909098
0,248520259631606
0,251021838503296
0,251871349037772
0,249900710880235
0,248859263832474
0,254672784035751
0,252402355687286
0,253798013497816
0,252545053686764
0,254376061401211
0,255748431790137
0,257402823035695
0,25870568930271
0,255257291265905
0,260943537349277
0,261848729965868
0,264346974847963
0,2651987551189
0,25911653653321
0,260661985463881
0,265596418592609
0,265071425632115
0,263034901688806
0,267364567425223
0,269224136705818
0,272691573142308
0,274311184489948
0,277298920446847
0,278875649030981
0,277695440850498
0,278147867608932
0,280763344836531
0,281182070256318
0,28067578928537
0,279705736783456
0,285707835246076
0,280426667799263
0,285374725647878
0,289461506616714
0,289037749253437
0,291346146632493
0,294215362042455
0,291713857473321
0,295221240068238
0,300760931651386
0,300651381687509
0,301718515392038
0,297305486969381
0,301506177615077
0,306126363827513
0,306271519122023
0,309615915405863
0,309036842010258
0,311132489722002
0,314925302015831
0,316264970498272
0,325977637640704
0,327018314947213
0,320316604608706
0,324060284682094
0,329531273279443
0,333338741801357
0,336256975370919
0,336385226366253
0,333776475412446
0,336115019848148
0,338580818619079
0,344399500788197
0,337251102438321
0,340090879277057
0,344281603997362
0,354844534663452
0,357325410904126
0,359760372112272
0,352962035992591
0,363455136382578
0,36377345944935
0,363746263130305
0,363515274814959
0,368391947441805
0,377486526812139
0,381599217293576
0,380024350342447
0,385113780524426
0,391466308082053
0,388435064480252
0,388252639163896
0,389714616569947
0,39580123325944
0,400444864468462
0,3970198741347
0,401387934929283
0,409443637357021
0,40492946278159
0,404481951912886
0,415125893731656
0,416421840541878
0,427153546276216
0,423354333845863
0,428729757861207
0,429510808350271
0,429324571712293
0,430038275983929
0,440342422145554
0,442066573699585
0,4445905659747
0,441503565247976
0,444804587951577
0,445785314833045
0,456405970063865
0,459718217091137
0,45471612057365
0,45368005221287
0,466875792732664
0,464263097710627
0,472115044478756
0,480404487621415
0,479500995332766
0,482495636070437
0,490764851702621
0,492101926612413
0,49308075776231
0,492320988974548
0,501144507235573
0,503476456896755
0,515129395275778
0,510418624593272
0,514323559914287
0,516976531781192
0,523293847354831
0,518501161384323
0,519815747482978
0,523250077068833
0,539469612289323
0,531306879749938
0,539517991582128
0,561386765842909
0,546626613037089
0,54599032213913
0,557236574096135
0,548497346450349
0,547476847515077
0,542559000741743
0,56985117918088
0,571824967587999
0,560315419118142
0,557658773996456
0,590748051144457
0,590090900893186
0,583594597561279
0,580164434965688
0,591403052676438
0,604023354771861
0,61131353376808
0,594823638874012
0,607360994923262
0,62337819063611
0,613339785966633
0,623168708221349
0,644996213050008
0,629171110252165
0,64092220559747
0,639344541831748
0,645011298345225
0,641713931828232
0,64232831471124
0,65721158232582
0,660800849142397
0,639832014552928
0,65233667909067
0,648031234858233
0,652570475116778
0,665582390194826
0,67605702388865
0,681887425929395
0,702101568230631
0,678278310333374
0,681849912871465
0,699858138403284
0,713382583574607
0,711356726075432
0,703461661572076
0,685116018566498
0,722078230519161
0,709614071442903
0,710587378892509
0,705581917919667
0,731329815971557
0,726519591767845
0,736082153337081
0,74120034474911
0,764487271277331
0,7667076609713
0,794122722192868
0,811860911031769
0,777537875207644
0,753544060900162
0,747311389660305
0,778217289240661
0,780882433333979
0,768897079876705
0,777047555680816
0,800208565091159
0,805212058754724
0,786385749748926
0,801272840975317
0,837432282837014
0,830771618874571
0,75710929992796
0,805780394143618
0,839331616957576
0,860051185916215
0,784071838663632
0,82847208856886
0,840244590217477
0,843682887113349
0,842713209148415
0,842036056980846
0,843959757732422
0,808665583779035
0,868829077075023
0,901701503293918
0,884646115734189
0,897884807580378
0,863980956688573
0,864809071994226
0,880525622500519
0,90703718809496
0,887611414327055
0,887170367425336
0,870710227676204
0,910077059619865
0,922546707899418
0,904232953000303
0,932839285236971
0,953312825744439
0,939047887059296
0,924144793748971
0,906236688899553
0,985951657113097
0,916152097706309
0,896817097443608
0,910365062122388
0,946272691753647
0,942531391041378
0,867029518707487
0,904118791231101
1,0070350874711
0,99041991626266
0,979261788292637
0,988209554665946
1,03223252843016
0,934859410975559
0,95927522955553
1,03609160573199
1,08913660982556
0,962724961754094
1,00829597176107
1,09701692634853
1,02864383951038
1,06114463570748
0,998964625355177
1,029890738024
1,04089663556996
0,9593830129535
1,08850799925968
1,12524734184984
1,17689292999638
1,02746619078134
1,12353194846906
1,14108540934477
1,15251193854722
1,01505103849788
1,00204210395546
1,25398831125185
1,26470267660978
1,15897343553843
1,03099787034757
1,00612652201175
0,952130506464619
1,00163659502665
1,32415210178124
1,11878552659829
1,05595865316089
1,20767985155251
1,20630268488564
1,19896272524077
1,13040060986159
1,04192976016002
1,04782358018438
1,20127792730583
1,27439456271967
1,16686998770042
1,33969049383344
1,27360203553218
1,20006649325088
1,07897679721522
1,20433719966498
1,18841820560914
1,18687396991524
1,24231074504469
1,14968281353358
1,14677124116559
1,40158611461531
1,38385936579176
1,07377672309623
1,42843008198166
1,32967388656642
1,03047546438173
1,02691436846143
1,22953810056982
2,97274360456777
1,15592824648329
1,16366305667392
0,957030740115875
1,32771138671102
1,58944709313567
0,98031578423057
1,30789080154499
0,94653433800328
1,2200592620688
5
1,54673457938115
1,99011798301092
1,93376683066581
1,1374352520566
0,837699201445235
1,18716253384089
1,69473414155117
1,03178516267007
0,92040650119235
0,987262044632379
1,06231060401926
1,33608350894565
0,914714381065076
1,21817316603296
1,48157977729626
1,38684449174554
5
5
2,29266890312208
1,19250215906908
5
1,32308862671273
1,8613646749392
5
5
