3596
4000,36533379555
650,420452594757
1
2
2
0,00815865248924141
0,0152303254767644
0,0126942892695466
0,0168353895289654
0,010911633800674
0,0141839475691358
0,0135291912275799
0,0186374791177347
0,012920072546517
0,0105628002123531
0,0138282395229671
0,0136163998527746
0,0130163360581543
0,0178350664416301
0,00118353438124748
0,00657834633717124
0,00170098281776464
0,0138622664159331
0,0144814792630709
0,0065555641552353
0,0127431331407889
0,00928737569756129
0,0183169423485184
0,0128341948155163
0,0111733310599969
0,0125880334369579
0,00778138198293858
0,0160357454014809
0,0132704294479494
0,00628404408033149
0,0136172875871804
0,00914979364911667
0,0182081998183013
0,0127492702537395
0,0145023682849107
0,0124012046908687
0,0124261360229987
0,0177641100745054
0,0121919905259981
0,0199039590034869
0,00868199917962876
0,0229287272646889
0,017643744527385
0,00408717323433285
0,0117818137706363
0,0109673655004407
0,0138192194288363
0,0173190374733716
0,018351371488502
0,00725687528626316
0,015598162207474
0,0192173707453419
0,0182077925112045
0,00908110836202932
0,00709786750921659
0,00776553115594642
0,00811990739687959
0,0141071240619213
0,0123418323509242
0,0210651460364727
0,0105481579366394
0,00768328355541327
0,0118506501914964
0,0146719436154437
0,0109893584919145
0,0184952196647087
0,0111510552108585
0,0153637306611697
0,00359807938306416
0,0138683574441469
0,0188670936011406
0,0163072113087551
0,00873857719026065
0,0120733635604025
0,00789915500050053
0,00856933445642129
0,0145320051235443
0,0109402762269082
0,0109742075935756
0,0142407516496804
0,00566205309013095
0,011119973145566
0,0107813445269968
0,0128746798088371
0,0181618446496687
0,0084436710904373
0,016415022781509
0,0120601385643665
0,0086369952015405
0,0133267133847256
0,0136572133037603
0,0107513136320144
0,0131116326082955
0,0135177376358802
0,0213745473694667
0,0197652928545152
0,0104327162206849
0,0200282518287997
0,00108530608709717
0,0142790830527507
0,00757304174328395
0,0115399875116634
0,00729715343188452
0,0186854912562327
0,0138079745669278
0,0131365634932322
0,0184636724289473
0,00861884604231859
0,0105433094935403
0,0126616421755788
0,0150601417581339
0,0194560101269203
0,0167483069481404
0,02386500382832
0,00928883752984174
0,0061830479757069
0,0123351667354106
0,00835285401506445
0,008976535137022
0,00780847132684596
0,0148109201999066
0,00421368412574499
0,00737365176639856
0,0148975119210302
0,00984438200824297
0,0158186388452647
0,00709735270193911
0,0156591877915038
0,0132751157982809
0,0109381184752483
0,0158778543004629
0,0209186300593976
0,0200127392808268
0,0110930836542296
0,016342929765128
0,013047911629766
0,0123204043957686
0,0137873618506174
0,0215691098381205
0,00381562969528544
0,0152377660786037
0,0174757348893051
0,00862748707565107
0,0223787136675327
0,0100664808808445
0,014548870774504
0,0062905129351003
0,0103152219448037
0,0111598505031052
0,00752449458043598
0,00906105245685409
0,00960818400618967
0,00639363917776408
0,0145205212398978
0,0103230581194246
0,0340844972320598
-0,00550245092368513
0,0185328138066551
0,00680035012863399
0,0144031861813755
0,0145098549181189
0,00997014003320866
0,00340589953239974
0,0182899585086362
0,0184372445898905
0,0169107608388411
0,0167091266777131
0,00477380423158824
0,0238632294823859
0,0103078884345475
0,0166937228929402
0,01183400167019
0,0198523154201119
0,0129960959416776
0,0104068072796412
0,0150709290151685
0,0111628385942554
0,0133643670462273
0,0145518878874374
0,00921363631737263
0,0153469191501262
0,0151788973272602
0,00838188418957824
0,0173100476279876
0,0190641615018955
0,00584016899149324
0,0135811491087203
0,0217093540581325
0,0127763417669895
0,0197215838445914
0,0270710641074515
0,0121342955670023
0,0170110406750174
0,0273045431825072
0,0047319168716648
0,0224738216005698
0,011401824885684
0,0126065669481794
0,0122609730488463
0,0225180922930644
0,0170560207614582
0,0232874626289524
0,0144523008158005
0,0200305622425872
0,012791896155152
0,023018291145917
0,00693758965841249
0,0190353160633332
0,0143648468676616
0,0166767359287694
0,0148580719282549
0,0236912602043352
0,019515931775809
0,0153259443800436
0,0252249204750112
0,0149643982268827
0,0151550426516737
0,0267471270478627
0,0158405142685638
0,0112822633079566
0,0198072249932719
0,0154474183381904
0,0184722236497198
0,0244805632311807
0,0200429514112813
0,0179298232179963
0,0186108885815209
0,0178006241835224
0,0196663928964602
0,0218981299508597
0,0204117319223668
0,022673733933107
0,0185912979184958
0,021592948012988
0,0212212433774265
0,0229334036776593
0,0212908157933566
0,0262115291166169
0,0198364516397723
0,0209128609421017
0,023481322574869
0,0318043565104963
0,019331643309885
0,0182906226532354
0,0189553269494003
0,0268680675887114
0,0141602777387186
0,0181387245773578
0,0263455887042723
0,0259781194893307
0,0345616478124708
0,0225738895807514
0,0251319999921957
0,0178900039988973
0,025465368682557
0,0225197815792644
0,0260588315546419
0,0188330615051759
0,0304061315663069
0,0236695770599164
0,0232283641349699
0,0222159864944772
0,0292570561203866
0,01919073365184
0,0281728079439142
0,0156905847489369
0,0175321332425007
0,0255208445905308
0,0271204926517979
0,0289094519590995
0,0293128238793846
0,0238997037132144
0,0322446731884644
0,0335790613078658
0,0207348826811894
0,0314835832251854
0,0257967547851132
0,0264954514143986
0,0278319393831221
0,0365266544834314
0,032484740397608
0,0338341802277317
0,0390672166748407
0,0440526153051906
0,0212311501563215
0,0323307215366281
0,0377453334550572
0,0297271380461377
0,0301225170016345
0,0342070828520496
0,0372078751721975
0,0437571127635961
0,0361153296286134
0,0336105744213732
0,0274310989531048
0,0430544270343842
0,0420985366159353
0,0410239511610762
0,0384149063244505
0,0400117556157093
0,0380963925022553
0,0403811815085256
0,0409414520752083
0,050097896153062
0,0480085209388548
0,0507764477763083
0,0462462656542756
0,0567418582666216
0,0391698694225448
0,0501069204231055
0,0540496646472247
0,0553870272475419
0,0476075514270599
0,0572151214515638
0,0540076845268854
0,0533395822383403
0,0550937895785507
0,0627168065171826
0,065813856273279
0,0729527114198674
0,0639711228376329
0,0559062691646934
0,0574803037520115
0,0637272227095107
0,0671085179094851
0,0729307413897446
0,0717969399370493
0,0755865934058943
0,0816228013261491
0,0855528773859041
0,0852452518858213
0,0877038051117398
0,0912634366698242
0,0831284121509308
0,0804720212787452
0,0957229343755853
0,0960260255966286
0,0997361721319258
0,0948380826062444
0,0980668886189167
0,114550791957151
0,117155687032361
0,121649792365579
0,116436989967957
0,117702502500981
0,128306432087473
0,134321403630012
0,150828254499323
0,128003064021375
0,137352806639255
0,134025783236041
0,137790618540606
0,14439226512119
0,167640464154475
0,168402824472008
0,155383641013618
0,157081663193158
0,166024935103262
0,178715705294928
0,182223768352103
0,174112264758417
0,190571199342021
0,195295344181481
0,197633126268026
0,204151550815634
0,205408634622499
0,203559947903355
0,228133087986188
0,221311483761993
0,224400793494408
0,226884023488259
0,232119644127616
0,22981863252461
0,246472592244493
0,247368191595885
0,266956312062375
0,25402577748172
0,259286125320192
0,249485062601498
0,258989929859145
0,263698676427936
0,273879997365238
0,278378213876259
0,286806611092877
0,285492577510144
0,290898580389268
0,290417522119275
0,302906368566393
0,300620919999827
0,311327374556293
0,301552785338312
0,322342847445672
0,321302065937388
0,313069954557429
0,3312685771405
0,34093749210153
0,330594834208322
0,37345771195199
0,338337379608747
0,336706157300195
0,344996946901474
0,351401484468256
0,351706426641078
0,362929208903942
0,355964995784524
0,372806097397415
0,384496041300788
0,398353183965792
0,37860327903133
0,395324793609573
0,388586405517181
0,398679542758198
0,384954770875885
0,405115767482924
0,38728764044735
0,402082305349538
0,393665191452866
0,415117713634709
0,407831310531458
0,421448381944552
0,404547642430674
0,40893089578655
0,425597906073722
0,437815977376248
0,446238501507497
0,446853156155117
0,431462009095692
0,453312512621201
0,43704860639595
0,44593858830557
0,447079689162521
0,464506352698704
0,463155043491635
0,493278346601489
0,481758185760218
0,482120282087661
0,457740933558063
0,478018781760632
0,4739011566441
0,494300803057712
0,526895604455425
0,506809941409313
0,496009601381581
0,520074691116082
0,496410037400948
0,509943964245013
0,498723177528298
0,505875392712166
0,507982335229041
0,52014651178805
0,536199215791709
0,554753133621438
0,526705698773855
0,551462613591581
0,552915446194039
0,557950080672014
0,530880536973431
0,538157419951086
0,545819130460803
0,565100558775211
0,5645049440927
0,578498764375058
0,598528717972846
0,607590528439926
0,589423000161001
0,598987967300226
0,594550917334782
0,628331730771748
0,61169492328898
0,630847055129328
0,591552511171624
0,611942534352938
0,591295453331391
0,60555318644648
0,628693302898795
0,641131989600499
0,626506455482036
0,65799879309693
0,646679545687043
0,633853404189762
0,638744460080705
0,657404419152792
0,640102161918867
0,654429649903043
0,671507751831256
0,734615799411377
0,672881937281603
0,688483560973415
0,670947887082606
0,707575531059809
0,667160932384641
0,703842959049963
0,694745037806228
0,707096995255496
0,675795845996166
0,717640772993073
0,72577300562854
0,750532045053164
0,751782694334777
0,756466053627775
0,733239560242726
0,737553066873317
0,71089535497977
0,774932585234853
0,750249547159074
0,772510323383611
0,758889646321483
0,746052506878079
0,717559955604077
0,773445914607591
0,753089985359332
0,821593458680605
0,789435151627837
0,835658801931226
0,801267334768159
0,787824041081969
0,804933500484818
0,855504865958705
0,842933438931737
0,873033949973229
0,787971065502153
0,824381524079871
0,820841018735529
0,833056591339906
0,84655954353493
0,896749212769826
0,801733620574365
0,868851532087102
0,815113155058378
0,843436062363699
0,819216888781395
0,853878192544046
0,876166204599579
0,85332561342947
0,861140809582522
0,940651596924309
0,903556566412747
0,890257934721766
0,883884213185437
0,940208120040225
0,979933774811672
0,939377966199988
0,944885102468328
0,967966567898823
0,927826154042461
0,970831232190705
0,947986051791248
0,955972196802392
0,893414067600651
0,983231097535549
0,993270233022651
0,975186647444286
0,956605077710836
0,993288490053638
0,926791789462193
0,92462377105908
0,949621415900297
1,00663662936473
0,916024140718373
1,00798338385378
1,06142875413829
1,01944968355855
0,998494464668814
0,997245820861809
0,959104007404598
1,00907712466837
1,01422876444535
1,07078802091792
0,953195792780185
1,05096194274656
0,987562275905184
1,04567464282105
1,05981982251712
1,0283296979412
1,04012303590788
1,1028853251864
1,05076992267079
1,09979737817794
1,08795440163678
1,18006315399503
1,06833208131204
1,11879968080165
1,0994957626768
1,14737181480918
1,09635379266302
1,10273453922104
1,06959028410694
1,10652558677826
1,08948807792077
1,1501113884832
1,10277270128912
1,18447139263654
1,1642793756122
1,22608272455258
1,23291991881868
1,17934189882333
1,08029712049752
1,24539289287505
1,1635613414287
1,18045358347589
1,19074180187692
1,17000901209683
1,12820757580511
1,24489086057116
1,22186878935777
1,22048662680243
1,16597835489788
1,32470954704018
1,24242818157636
1,20398450784079
1,18872246275693
1,29315922176795
1,2840259585329
1,40529588065619
1,31212867499811
1,34313681142865
1,26271301215358
1,3213469153053
1,3289597958661
1,34315193179429
1,27745914755205
1,2841991694522
1,23036354197293
1,23458706847288
1,31321770840617
1,33252938244771
1,30057865733502
1,47468491236552
1,28688294439323
1,34906132495964
1,3086854087697
1,27790619149627
1,2224937564315
1,34072918661101
1,44482208155972
1,4459813674908
1,35893414143232
1,35676073801198
1,25796921426909
1,36942346505193
1,32906284010038
1,42182055041897
1,40586481574704
1,47961128979923
1,49595464817997
1,34796899470791
1,25583796296401
1,61250636934641
1,32332564717855
1,39360440429685
1,40303024457823
1,32320415202845
1,3444457403489
1,43526987459277
1,37432238096391
1,46535627005541
1,49038676930084
1,62601175866814
1,49064654099531
1,48847742206678
1,39091728616157
1,42164175858782
1,38236241902882
1,52581483494879
1,42502879145361
1,49743397721065
1,47282656479379
1,36271156053497
1,3752005669635
1,46404379315353
1,37963006588733
1,61264803178053
1,45935277410011
1,43287483328347
1,57717575258093
1,55160240141369
1,35556958218948
1,51320963728204
1,37634956522721
1,49742456437355
1,70115827017922
1,42690343221792
1,4272183135832
1,56883440795672
1,47550875244947
1,48428944622912
1,5402004015494
1,63348569634403
1,49753832095546
1,39935267105959
1,36092949228531
1,52451867174643
1,53262292516862
1,70627022287184
1,50954419121024
1,49461374727056
1,46766624658967
1,4823812806137
1,43078383505023
1,36787673230877
1,58078044406989
1,51381904050157
1,48697187548927
1,66539095785971
1,45401580936418
1,78500100240952
1,43709117373094
1,29885303327517
1,5517542279227
1,59821625463536
1,45373105740585
1,52864064697718
1,52697540989991
1,56644349797276
1,54812822040104
1,50797381996921
1,55855968624024
1,58788643761219
1,41872688726617
1,42378215638558
1,54324274181947
1,43857566296646
1,38334604590948
1,47551101746261
1,54061395540085
1,46448312931407
1,5454748448907
1,56434580299223
1,50704029735123
1,55608891216155
1,54353832765154
1,51780127535751
1,39049096798738
1,47562396659834
1,46199187763439
1,48533685765119
1,51649243483664
1,50891326772016
1,40115626467407
1,44230004503627
1,46221320788739
1,44051325900266
1,48802509743681
1,43399722750397
1,46981898190059
1,49744026640234
1,46623785116009
1,49104375322292
1,53922890581078
1,48248128252389
1,46248908000854
1,38839208293748
1,47207144161614
1,58707960771465
1,46213040241476
1,50732552562921
1,42561086114088
1,48613247379379
1,58431632419712
1,54500806395927
1,58610482968258
1,479275418046
1,48736380852878
1,49956598921783
1,45582682463928
1,51137271989452
1,53629965779879
1,5753454307223
1,52630711098132
1,46792253794283
1,44986817249035
1,39247619366998
1,39591466410697
1,45852503495177
1,49938631850276
1,52354602323663
1,51388495438796
1,54776979909302
1,5053620521021
1,49239138640477
1,53492146070029
1,53531542467151
1,4699024130854
1,57903494551102
1,511842386741
1,45894903863052
1,50739631368853
1,464788874242
1,48074439972873
1,47633929570565
1,42790422642752
1,44930779061877
1,62961938290388
1,46721484114649
1,42317197753408
1,46409878744635
1,56597743012231
1,52168924561884
1,3789346503219
1,41549988626893
1,48269481391571
1,5582687314098
1,52437554959905
1,45610191149866
1,49370031089898
1,56136322917163
1,48574172790744
1,49837887631917
1,43550297680025
1,37809084638742
1,47369683370158
1,46426791885645
1,47459181600713
1,43649597488817
1,52776205002455
1,56368521834294
1,4228728677805
1,43633793752606
1,45405845313745
1,45856640383215
1,44566611806638
1,35992406807375
1,42393089952544
1,44157899888822
1,39228796532409
1,47637316578495
1,49610515577965
1,35058306064068
1,37812525521152
1,45887419549438
1,48051091498257
1,36939620339731
1,37521551436417
1,39126506141731
1,37889647845206
1,45507437731742
1,48789804071781
1,3439428497083
1,41640289270317
1,4501411063416
1,38422714721036
1,42558823269375
1,36799885788799
1,36065711493985
1,39559540816902
1,3508503512541
1,36727358840348
1,34849981125502
1,36477358918587
1,32866420384508
1,3405492669916
1,36535056881318
1,34369034458505
1,38257729426543
1,30832951597402
1,33670556611149
1,36890679160736
1,3089898363543
1,38755899700062
1,37435814278979
1,34730780885997
1,34031324577861
1,35502987887604
1,31620659437945
1,35217663265976
1,33783452669469
1,29087978647889
1,31536442576892
1,34755200799129
1,2977959971945
1,35876385343522
1,35642514575309
1,26498061783372
1,26632334973967
1,2641715613465
1,26795517490054
1,31586508876796
1,25262994262011
1,26065578763159
1,27387259620709
1,23460207828612
1,22836519302539
1,2181509966329
1,20419845648236
1,26135147461391
1,21102022057238
1,19285550913568
1,20914800837959
1,18465230367751
1,1790000730163
1,20049823511133
1,12853585954598
1,13916707044014
1,12097539379115
1,12718988589041
1,12995442342244
1,11423085197747
1,10815396552178
1,13331961133533
1,13876939507331
1,13609100978215
1,12283360530938
1,12250868487899
1,10527531230368
1,08326469630494
1,05986510543034
1,05452193620539
1,06680271447038
1,05997244340835
1,01738185214783
1,06083098072527
1,07189577283436
1,04423207287076
1,02110172535894
1,06511035110292
1,02480178197872
1,00124977329688
0,998207138628495
1,0092617913534
1,01315061071281
1,01706562761669
0,98356660477529
0,990838190301248
0,964983295243941
0,975784034816024
0,958339175942136
0,957147973100183
0,964133866640704
0,961309659013079
0,951594977476733
0,968594883371715
0,912872495649665
0,922705063771992
0,89930490405937
0,910303193935166
0,940112590606005
0,896095039135295
0,868613596282565
0,885545883549636
0,863826473954833
0,879962783711985
0,869178443465438
0,862921662674747
0,850482007431731
0,848774867066321
0,847538819362542
0,840041562390038
0,820605760474872
0,844335031097131
0,829551264633179
0,824087756731488
0,803250210147996
0,808923635379819
0,808407227872204
0,812172414120752
0,790833895496938
0,803765712644938
0,787321448936825
0,777921427374055
0,762048332120906
0,767037898019618
0,745969675889179
0,769876847015655
0,757186536576746
0,748780061534367
0,75777127827761
0,75153302607303
0,730072353749961
0,724844094399703
0,710783290668465
0,716726711556414
0,693983386319749
0,691481609973897
0,696301103862947
0,693254555504575
0,677113567906257
0,695210047665112
0,685270554318837
0,678393657308924
0,670135098136151
0,674290898544856
0,659600075593689
0,657725820051582
0,657416380130259
0,657073184579773
0,635975011571723
0,643443263766868
0,638503797256434
0,633111574394353
0,631598537268731
0,635144765379452
0,624996641338108
0,620565529651191
0,607028986455261
0,603504998465537
0,601375426067105
0,596559916742825
0,600734517263819
0,598571803018249
0,572942910333467
0,581886030867479
0,566919749142378
0,570824877230288
0,563700940653697
0,561230565262015
0,555746937262511
0,557594065127354
0,548342216264405
0,555316617672102
0,537722487898797
0,539818766207849
0,529305809211053
0,522807377922343
0,520014944687844
0,537120402531233
0,522270897709915
0,519803808572712
0,508556445466316
0,508986545288467
0,509047972110046
0,498607342713007
0,495581900313164
0,498204496674013
0,488615855809794
0,484153451697387
0,477400253318484
0,471217422576981
0,478276926458317
0,479642329166782
0,466197139008236
0,479118918932911
0,465994917144198
0,4575399016701
0,458764957999051
0,456456509317752
0,444853873533265
0,45057147883037
0,443472759801191
0,434435681197208
0,431706374538434
0,440823570171135
0,425106431156509
0,428770904585949
0,42375931786012
0,420568035506828
0,411188072433067
0,418102969843637
0,414689765316169
0,408141240150701
0,398555215426195
0,403836000074517
0,395228344654218
0,393874586048214
0,389836829666737
0,38656675378217
0,378571728285389
0,383490363891423
0,383078964828344
0,371692949480408
0,375035860786523
0,375272705678276
0,374682612208733
0,371441797732841
0,363371805270207
0,371420220424515
0,35653818509512
0,352368380747486
0,356186003959163
0,346744683553616
0,350113477585408
0,354005592205303
0,343017699247903
0,349150802552632
0,33731462215996
0,336143601301436
0,334681507462862
0,334103631273026
0,331878452336062
0,327647216045587
0,320658769952267
0,32212649766594
0,32230863837389
0,322753571970607
0,309956973254139
0,316906189764085
0,315712166480091
0,313192244728334
0,302837262027486
0,307336199229457
0,30512465162427
0,302130676862487
0,298446494435147
0,301006300732671
0,297455355576646
0,290897400777326
0,289464585659458
0,290908516481092
0,288135701059604
0,284994065019815
0,282746823499901
0,281825698136544
0,281634947775532
0,281277809264863
0,277367262450241
0,275488408869993
0,271507264401027
0,269823522241778
0,265978403958993
0,27170126120881
0,260671616382515
0,265658611693888
0,256716092866328
0,259882760619349
0,255825232324453
0,255433742627458
0,250786806127941
0,256125559089207
0,252245237982386
0,249068143526124
0,250667205275494
0,246871791468699
0,245600204874341
0,243659145705071
0,243976776443794
0,243816990654987
0,235699426820282
0,238523476822647
0,238006725680657
0,236271052676171
0,230115581909781
0,229835416558962
0,230781664395981
0,228911767843289
0,230149822998065
0,228559772099678
0,223521547203109
0,222272090551753
0,221778904916907
0,222095403021423
0,210931948845482
0,212765702363961
0,211025689554913
0,212874106431289
0,2171530165247
0,210630764640408
0,208820256845523
0,215593160407312
0,207548396357041
0,211095440892363
0,207107166106165
0,201436904472066
0,203314494306315
0,205861995532587
0,200675492517629
0,196376421444408
0,198958582049166
0,198977207958782
0,19747645132218
0,192030616205709
0,188269718123322
0,187896647160457
0,190641065773355
0,191335760765827
0,183227257600503
0,18034704143329
0,180535447993019
0,180701470148411
0,176130887336245
0,182669154404762
0,179848468856022
0,179986563263143
0,173134497855613
0,172464996535178
0,171522022320522
0,174837422793125
0,170992796026878
0,175150268242014
0,170631758172054
0,171375951159198
0,170362164792056
0,169475294706233
0,164415981242556
0,163704497319988
0,161519758738641
0,164162927721942
0,163112189857359
0,167399848108814
0,164277541637721
0,159237631083628
0,159990592145544
0,159093359914373
0,16159651883172
0,161712769099668
0,155364061583744
0,157011874036252
0,15760670698735
0,151948825993558
0,152505822001168
0,153650642056678
0,154439607625828
0,155865267160832
0,151256200804372
0,152608526994801
0,144330163369754
0,144376294122704
0,144287394708887
0,143593052926761
0,144640387239561
0,143966394318283
0,148472520966018
0,142418664675274
0,135831741639366
0,141319867405665
0,140898610734348
0,138940482990613
0,133440202053057
0,134557608036701
0,134392847905786
0,138078591419894
0,13305066507992
0,133677450578477
0,13148605655642
0,133478323889615
0,125331455837027
0,133487970236724
0,127363601374629
0,126635817860813
0,126061711007863
0,128165702099652
0,125498143642585
0,123464797379066
0,122852397749978
0,126103654331454
0,124176244234114
0,120642055260618
0,115653218610909
0,122539027421025
0,123307294601511
0,117981971082936
0,120461658840742
0,118943519120365
0,112098573930576
0,114274135389251
0,112177176762607
0,114413205067099
0,113610993041086
0,111728479454601
0,112429195313275
0,118598233718471
0,111786544736854
0,112134699828971
0,104246188859422
0,111980669840692
0,107120897907542
0,107196580382066
0,104911186501465
0,104977796483441
0,109709747276581
0,107890120124524
0,103858019557048
0,106707641242325
0,103437216397166
0,100191388104311
0,10267720118347
0,103414298132422
0,103886197422029
0,101264389029035
0,1001735090778
0,100751158816257
0,0998321417341879
0,102260459972838
0,0984470117011785
0,0987183114847887
0,0968144492544184
0,0973929801934469
0,0947949717442692
0,0987719218252275
0,0948841116137417
0,0954767954875678
0,100234938369392
0,0964113100678672
0,0936840491154436
0,0962324482345696
0,0894279613989026
0,0954503254591516
0,0964440848279777
0,0886875875805635
0,0927041317060578
0,0917392108373703
0,0914342470859259
0,092204746477436
0,0932471408473022
0,0925424276644496
0,0861678671014263
0,086369340600115
0,0871763744115843
0,0844445039476387
0,0913194290340612
0,0849416695385225
0,085791252652001
0,0865742670702549
0,0867971272171309
0,0851996740470496
0,0845855682416967
0,0836504730201362
0,0883140001153236
0,0831198792219118
0,0818662475909648
0,0831156544389062
0,0805148930939003
0,0837700061070219
0,083863372252279
0,0848009382180385
0,0852449886812197
0,0816469304423992
0,0833454925195931
0,0861520811858519
0,0825273306603938
0,083168529287119
0,0804780158989447
0,075946279893514
0,078618148737483
0,0806114990113855
0,0810409791604673
0,0787270453424363
0,0765553940525378
0,0810940249022401
0,0760469376724592
0,0800836419051722
0,0784147510315027
0,0790459772243708
0,0781743296793464
0,0813911341820175
0,0725857404955492
0,0746749250538459
0,0774968918557887
0,0768920219188807
0,0752264223449241
0,0728309006798956
0,0727021625075445
0,0753097623952186
0,0716077155255958
0,0751981581331507
0,0739754677786179
0,0742552918948274
0,0743132792792203
0,0753534565816334
0,0750030731066863
0,0724808360333641
0,0707731973818711
0,0696232955026119
0,0726428580515706
0,0742953600806445
0,0685642351874432
0,0690668393403603
0,0714130776107911
0,0721695710540506
0,0690366587004507
0,0712687283653929
0,0700519732259562
0,0762129387374165
0,0691431119506329
0,0737195914239619
0,065925831154967
0,0701178060112386
0,0662583419188443
0,0689321253817117
0,069298266347188
0,0681939908622062
0,0681439435713252
0,0724652456075319
0,0681869058144273
0,0677731285453961
0,0645225020288337
0,0672864027148494
0,0645675965483796
0,0707859506485284
0,0657196865295767
0,0679943371098344
0,0687377079589184
0,0703084907267283
0,0662408147213627
0,0651880758491757
0,0673073617953855
0,0664301881296127
0,0648812989186832
0,0666991513262515
0,0655456025347744
0,0671283205013836
0,06287259134517
0,0660124361648438
0,0656882075520428
0,0634187885239966
0,0634847196878533
0,0597566778898325
0,0612867466587848
0,065313022145447
0,0660941573314355
0,0662132125134812
0,0624662390517446
0,0625031706017585
0,0653263586913977
0,0607468079396408
0,060746137648247
0,0633808612512933
0,0611407704334757
0,0624331164561177
0,0626576640307413
0,062157992962131
0,0621382581613738
0,0620031938929672
0,0626894378085103
0,0599218180818313
0,0637425157709271
0,0617857677663608
0,0619390734500793
0,0619027778593294
0,0648052654967016
0,0602187473749422
0,0589083077704
0,0643185199529221
0,0590130198702071
0,0607237432824675
0,0602283259333904
0,0578335288552901
0,0570521458817045
0,0606548988566576
0,0622845819159928
0,0596798533048194
0,057888059179648
0,0616842044031073
0,0612102867595594
0,0584512017003511
0,0611555834661373
0,059218113961384
0,057243300113059
0,0600050703861532
0,0588660000524941
0,0594673624137214
0,0580191261156238
0,0540703218853775
0,0593378780860277
0,0629064777037301
0,0610069735179569
0,0626245379403026
0,0585926158308376
0,0597697063183935
0,0562654256934757
0,0623030059008168
0,0589240582331163
0,0589749257097321
0,0582607988422007
0,0600867562943002
0,059512384522888
0,0573230586014266
0,0572565286710575
0,0544995251231217
0,0576720059076871
0,0564817820175096
0,0542887564969694
0,0590313041881452
0,0566181430834137
0,0606747304643552
0,0562770494388485
0,0557044385407082
0,0575679969012306
0,0591223887427245
0,0544819736465166
0,0566037573394388
0,0581186216359269
0,0546609588497956
0,0547534071190639
0,0552309828271719
0,0552849614387702
0,0568401108981719
0,0552058558052747
0,059106716501765
0,0555695676855999
0,0561837531082804
0,0522190710002786
0,0540792374332553
0,0548427137473218
0,055473657820069
0,0571058694786671
0,0567089814070556
0,0576196332523516
0,0590141745127038
0,0548577020948702
0,0610106089673268
0,0572301388314801
0,0565018709015735
0,0554597329430427
0,0561257990038359
0,0547668266155677
0,057887569415905
0,0564854805861522
0,0541192445582049
0,055624878162958
0,0594902368477677
0,0565023131121263
0,0569456483830803
0,0533708287610961
0,0560254175476433
0,0554974046947273
0,0596773839964862
0,0562168850399639
0,0569679232249057
0,0543557811004514
0,0572876820335811
0,0530994921065014
0,0567852528402666
0,0546999271709051
0,053730009738677
0,0540853824696236
0,0565206997547881
0,0575462478838186
0,0584991656182718
0,0568922561013271
0,0585535720834494
0,0551840889780868
0,0539299258144341
0,0557893874050006
0,0547310764242838
0,0551416453713647
0,0606499552821691
0,0554750822650925
0,0573920719687815
0,0571775134242656
0,0552543388156942
0,0552468022845917
0,056075962327917
0,0543898236983138
0,0567000065028054
0,0532306235361625
0,0552700118476498
0,0581748145683849
0,0577328903099357
0,0574843981392531
0,0567301323818684
0,0545950880981134
0,0581618940189454
0,0559701263664527
0,0577241424181928
0,0594986318493593
0,0562384699432823
0,0568964586155104
0,0578394864425305
0,0587804471261749
0,0556043337376745
0,05744629488922
0,0578941307985079
0,0555769368955438
0,0550897012546058
0,0554241179576008
0,0585678567481182
0,0566849445133805
0,0581927048145694
0,0567049283343532
0,058284091538092
0,0564016192889589
0,0559969690472122
0,058213163800542
0,0588829149247079
0,0596744317341117
0,0585541371255849
0,0550894069157616
0,0603646947643995
0,0580877929162679
0,058618054774146
0,0587914720531483
0,0566616207867127
0,0565059310911228
0,0591496213393966
0,0580302317933253
0,0595366994169831
0,060977788320125
0,0581182250148627
0,0603280680113856
0,058177670033591
0,0575433153388289
0,0600102440083769
0,0591647340281168
0,0592124108043759
0,0637356215876617
0,0607041248457497
0,0573344861986899
0,0566173597670241
0,0599381306968993
0,0607327858893703
0,0592430463276238
0,0581486132142868
0,0568413555560709
0,0580913499237605
0,0568636125779882
0,0566252027343312
0,0577006485941596
0,0586356372568584
0,0578318101749008
0,0589378887695885
0,0576121781865177
0,0596611489343396
0,0618338798901469
0,0592270101946016
0,0615520072788611
0,0607743194551936
0,0616346821554751
0,0612154942706669
0,0599022860932762
0,0617169801901893
0,0603503079329539
0,0605011152454594
0,0586625681894499
0,0627819720687087
0,0612822518599028
0,0603502318766478
0,0609284489415139
0,0625010211569701
0,0619272300535397
0,0604830692262348
0,060757116321748
0,0618912821770502
0,0605207541762011
0,0628857235954572
0,0584550118661026
0,0627480685353716
0,0613021807416339
0,0643019882989223
0,0599755379406295
0,061609327658281
0,0602636639514239
0,064136344570053
0,0612869202151201
0,061968117006446
0,0636806900318775
0,06268488049969
0,0618127495184892
0,0607595187511352
0,0607302453575057
0,0641433454661234
0,063498429081915
0,0637878805099841
0,0628628128589119
0,0621434421559879
0,0633518309533792
0,0632256844053484
0,0635062797360726
0,062061034206486
0,0631747602012864
0,0631001146168503
0,0660813412621362
0,0659365884849433
0,0645494666525321
0,0633425485211682
0,0624821970366043
0,0631204005248551
0,0639305305673759
0,0626287676987676
0,0648901292891908
0,063660981154584
0,0638992290490858
0,0612814996526442
0,0634119529229352
0,066603475251488
0,0660587324500611
0,0654094715599373
0,0672118616123986
0,0657188499305793
0,0642759270649738
0,0634737832594
0,0678414328046063
0,0669044570561941
0,0647358961647598
0,0658462843529683
0,0652243843603514
0,0658976769285395
0,0656690435934205
0,0647080722343854
0,0681569956406577
0,0683650983715669
0,0673615591041145
0,0693698473692534
0,0656649161340144
0,0661376825266336
0,0658970746727276
0,0686246195778939
0,0699129707551944
0,0678469254375019
0,0672018909486344
0,0675195496748542
0,0681431518960917
0,0690921364521377
0,0662012338259729
0,0686121977949276
0,0682958117323557
0,0665979586914687
0,0655617475345581
0,0710393055716228
0,0698812966198504
0,0695146789647336
0,0684566267921961
0,0703021141131838
0,0689197681608669
0,0667599292746578
0,0664430147508091
0,0658399325076892
0,0698623890105654
0,0699060455437615
0,0707216238930638
0,0690960860975585
0,0693325725543717
0,0714145301543507
0,0718965774959057
0,0705686073036941
0,0693845803696439
0,06880978411158
0,0699383785243283
0,0720273871421625
0,072321753788688
0,0710606955164513
0,0732350371267066
0,0730268546514255
0,0687268272844587
0,0718631484434557
0,0705681303073982
0,0707932075391146
0,0701333370508785
0,0736233618882576
0,0710932177644595
0,07473122862651
0,0723938326021094
0,0729448952981852
0,0727853953908463
0,0738353577234809
0,0754545005129708
0,0758393395118187
0,0729698201351539
0,0738502402605616
0,0736890305813237
0,0720482010312469
0,0758755320937027
0,0739795354612421
0,0727750305206865
0,0745768408661418
0,072615955310848
0,0714233200666632
0,0751894713902139
0,0764318901504318
0,0725831654400286
0,0738254673808516
0,0767599766819032
0,0779436000070664
0,0732542393563948
0,0759783123314439
0,0761262298395943
0,0755265045997673
0,0742778874444313
0,0771520728621927
0,0765846627898549
0,0680190856091642
0,0735062821732347
0,073665441963556
0,0759146603958138
0,0773254863610468
0,0780241182800908
0,0784182733181979
0,0739786749573105
0,0727350316879513
0,0772232061108323
0,0774556326235268
0,075804968151455
0,0785818603084883
0,0782713334556824
0,0777978226150381
0,0778426207094178
0,0784858786807206
0,0806842368302734
0,0792740163753057
0,081426763219187
0,0782087486121537
0,0782400846823381
0,0796279178587213
0,079509887510385
0,077639220409838
0,0794431106980773
0,0810842440432764
0,0785390892914837
0,0847905668171483
0,0819861158059242
0,0839842872910208
0,0849586464086039
0,0830875024256919
0,0838856120733247
0,0790859218559262
0,0796807895690604
0,082909041482539
0,0828728103626109
0,0857691974724303
0,0838283316805645
0,0810252089646712
0,0810473949976286
0,0794245323981774
0,0840267550688131
0,0789870224260797
0,0854977724649801
0,0809269763996717
0,0857213934752972
0,0864877907649304
0,0840605307556192
0,0830768688031527
0,086367870478183
0,0880080850780134
0,0837074431977644
0,085642464407551
0,0866522511259739
0,0859584812073343
0,0868193021128201
0,0851600967738106
0,0853040668078458
0,0880399218620995
0,0840562102655456
0,0892641842637961
0,0903988724638627
0,0859812592681027
0,0879043519994931
0,0906589250497627
0,0882447091649286
0,0887641696749827
0,0887499901909233
0,0882227160679074
0,0891969338933994
0,092534272650384
0,0909669869402818
0,091853357155545
0,0917837562232482
0,0930500124054012
0,091799540269496
0,0921923258054657
0,0918643961903827
0,0927517775234507
0,0905372557393053
0,0912911504331992
0,0914549756645661
0,0940766557877967
0,0926970092993501
0,0929462710038937
0,0923311089200498
0,0930958880352283
0,0933519736097129
0,0949747355925299
0,0967519558692754
0,0929928909292486
0,0931876493796998
0,0970918271259149
0,097701329373518
0,0951616132225324
0,0944906106853647
0,0959782281444222
0,0951822791885058
0,097120467118544
0,0981239787414043
0,0976279083983894
0,096634612970281
0,0962154688007799
0,0956663443920721
0,0982742576121028
0,0975420835213582
0,10037504815487
0,0999183436531585
0,101670492014453
0,100476138656142
0,0984352812166185
0,0984151054453117
0,101248670438223
0,0979367287773395
0,100787739363358
0,10107830156108
0,100270146893871
0,100547395696858
0,102708351263317
0,100812613822635
0,101351547842219
0,102104044858727
0,102475982347743
0,104631273298869
0,102931272020422
0,103477993072437
0,10224293152513
0,101985915582659
0,105268471962632
0,102517627900072
0,10615134683548
0,102091181544744
0,106229795842871
0,105389344936273
0,106596532155383
0,106366441634782
0,106060477728841
0,103821941920734
0,106615199350504
0,105897426250979
0,107469485057965
0,108032607652326
0,107737132696248
0,108946977230058
0,109497656560575
0,10834979884303
0,107861795648795
0,110721643562585
0,10779706884959
0,111109862494337
0,111590530503162
0,109505116405783
0,111194501202001
0,111340066182348
0,108902422440859
0,110817957634001
0,111644906758094
0,110130819666502
0,113299387846095
0,111700313026683
0,113750749678406
0,111808826339678
0,116765295264251
0,113762119206375
0,114084453204142
0,112866718503844
0,113335765540424
0,116181798323842
0,113817517529754
0,115373710514525
0,116547419483598
0,113736328289908
0,116321385754892
0,116572391771494
0,115920492945957
0,11659090481342
0,117662395196265
0,117377230008089
0,117572951136792
0,116320651764056
0,117567266851814
0,11856880142499
0,117549449127961
0,118092231106342
0,118879908068253
0,119190103224773
0,119859870676855
0,1203203095965
0,119263402618962
0,1193693486759
0,120295966297363
0,120352117554222
0,121715403746709
0,120861196007751
0,122033175962633
0,122505061313031
0,120273846888214
0,121573519583377
0,122350172545016
0,121681389639156
0,123260764465363
0,124340234471795
0,125470205758702
0,124258094310095
0,123590210174582
0,123006014430363
0,122026686021627
0,126234952424757
0,126571297132915
0,122346940657569
0,12528129520923
0,127033983802043
0,122840690162079
0,126498985555817
0,12682722260431
0,125367654468252
0,1273886444717
0,124768798173947
0,125810180815943
0,124370002302174
0,125630194274936
0,126186511808437
0,127146646499442
0,125447246878334
0,124108950016159
0,126097282721978
0,12641052592396
0,128586164218367
0,128219685751916
0,125840414211112
0,125962680494707
0,126955889995694
0,129369022287753
0,128476228425478
0,129819487830021
0,128737703474713
0,127126658072616
0,129565719914084
0,129435013391184
0,130860674967015
0,130607368980694
0,128531733560919
0,128729745973057
0,130174216747548
0,130402969069785
0,129139548671523
0,128077647314894
0,12912092575285
0,129698266712439
0,129238705902735
0,131374248897928
0,127433862650041
0,12673403091085
0,128670040176307
0,12940594385295
0,132727615731952
0,131020973264525
0,129067207766069
0,129745849294142
0,129240587027709
0,129182488562462
0,130887767294101
0,129558595219275
0,130339418037785
0,131936123060578
0,129658397979914
0,128361764251205
0,130710134971382
0,130218998975618
0,129671928048392
0,130423377133584
0,128222642161306
0,12575820135174
0,12977626829119
0,131429378589933
0,129746026794282
0,128363873197289
0,130893386912743
0,130619010461964
0,129158436804936
0,128619316372811
0,130316332910274
0,127970780112801
0,128502237704515
0,131454564933167
0,129986848786817
0,128253467624202
0,12828175003238
0,129155954135782
0,127863572085863
0,128998119871055
0,129180132933713
0,129844619762195
0,128744039295425
0,128770272490811
0,128796232552022
0,129450795994204
0,128248897781123
0,125162898613184
0,127932313572898
0,12762962496781
0,126478747756411
0,126909968578249
0,125590793123696
0,12633404739504
0,125152443844233
0,126302104883249
0,125259867479638
0,125618763344358
0,125631657209831
0,125226505693242
0,125038725891801
0,125612868446973
0,126244582510099
0,124399165712813
0,123021404680746
0,126421369319657
0,12473132798511
0,124596328379924
0,124689047225334
0,124370840708253
0,122667334995423
0,12074660641081
0,124100279577082
0,122712944970455
0,121366094656767
0,123854378147375
0,123114998953291
0,122826321391519
0,122182708211593
0,120640700740289
0,121076820631692
0,121983060473769
0,121605934991651
0,120934523653871
0,119687438160133
0,121273728805732
0,120358017303792
0,118350520364818
0,118807176829982
0,11780609448692
0,118987407052953
0,119709584083494
0,118073172797553
0,118225145209905
0,117785142690176
0,118574668288842
0,11620406931992
0,117794815487037
0,118135837087157
0,117273461584964
0,116666610916338
0,114082482925389
0,116284902025655
0,117784160932613
0,113779155317957
0,113756388717988
0,113826920683453
0,11347039640286
0,113554080650878
0,113273004443915
0,114102703386276
0,112832585597456
0,111573143495106
0,112103520753238
0,110333566573496
0,112279342756724
0,112558439620514
0,110511529664589
0,112819323960099
0,112405527120158
0,111855214762156
0,110455164710937
0,10954970671804
0,108128988020425
0,10853921872469
0,108806415512034
0,109364069244847
0,108431534799213
0,107609344573797
0,108629324579417
0,107187902991387
0,106315330357676
0,10332407335732
0,104503572526415
0,105242015381846
0,105412106336207
0,106241168975693
0,105967395940536
0,106444317561441
0,10609691948197
0,104194401930936
0,10357795674101
0,104959252706153
0,106198776090904
0,101775550359866
0,0988845505226574
0,102161468607107
0,102273994620315
0,104071360260935
0,102894565685856
0,0993974838013955
0,101639871741707
0,101438607571438
0,102714060212576
0,101419641080542
0,100046105387127
0,101016633601994
0,0988850565361819
0,0975908718579
0,101148332551917
0,098770322776652
0,0974613885672768
0,0996779749779728
0,0983088140705139
0,0983292860256755
0,0968916537926814
0,0972032465716271
0,0986407845480089
0,0964774678483314
0,096043455386492
0,0953209076453173
0,0954970705280172
0,0983010646919206
0,096864504586532
0,0955243227831603
0,0951662314747157
0,0945566818900417
0,0940853926915887
0,0926476735492403
0,0948004947443361
0,0937487230029069
0,0918547935643744
0,0937785357160391
0,0928714128885466
0,0930162561114248
0,0913737344115715
0,089625831894336
0,0906826651656317
0,0930340508146995
0,0915744536922463
0,091419437230009
0,0903402998473496
0,0903594461009141
0,0918849975969354
0,0902236116828215
0,0899997882226759
0,0909653231768099
0,0910143517575053
0,0888371654006652
0,0891331151425803
0,08874735663453
0,089725234458111
0,08937211332816
0,0884851885450831
0,0895601212676378
0,0883456563927027
0,0900470893092469
0,0900132841115907
0,0866075412720446
0,0872794618944955
0,0896083956288351
0,0893193553244058
0,0859381262458277
0,0860979173203645
0,087201346159084
0,0849577730988133
0,0863904797417167
0,085797933512786
0,083937021150746
0,0844151680305728
0,0861822108409165
0,0859200297860146
0,08663781153524
0,0863411610703181
0,083897929112159
0,0823654253756868
0,084351903958266
0,0832818547006219
0,0836891322985831
0,0866082444565761
0,0856333895790826
0,0852184492235984
0,0843921565582686
0,0840526718102709
0,0854612132721312
0,082974512922595
0,0827544959883323
0,0841554644798361
0,0845946280274982
0,0839599007442425
0,0831344508074795
0,0844701643923808
0,0841619095622641
0,0830607378980683
0,0835429028086873
0,0818170741912575
0,0828804458598629
0,0818134890767056
0,082400666263714
0,0829407121440855
0,0813209180983894
0,0815181703502312
0,0830603276947189
0,0833929149265247
0,0802465911939265
0,0813644516107976
0,0818022929712323
0,0808795511576176
0,0830660382245958
0,0830862779012507
0,081166152377102
0,0808907615911255
0,0828924457510391
0,0813732241761422
0,0808772508601028
0,0828897316826392
0,0812024365487622
0,0815164043927944
0,0808956219896437
0,0788163159305691
0,0819438385774214
0,082421030298725
0,081340314561669
0,0798064987771541
0,0802947990261908
0,0795226338788062
0,0806803941739722
0,0822176295803411
0,0807687289824841
0,0818373439091754
0,0829145966086844
0,0819476443915088
0,0814680964488214
0,0800953531583961
0,0818664609640762
0,0829878589028328
0,0812227314527323
0,0805837392290249
0,0795831506963684
0,0804874519652607
0,0826421237819966
0,0811176334792006
0,0816477598250454
0,0818163875408294
0,0814123653341261
0,0816548499301004
0,0827438994749781
0,0836920912992242
0,0832565717988569
0,0837480007709282
0,0811495503741155
0,0827640453638912
0,0868418867097598
0,0809576775108825
0,0812360523782831
0,0836743644333155
0,0837622367767336
0,0799996836373825
0,0822034055832312
0,0849055623299705
0,0807930658344391
0,0798746970884714
0,0837852421542586
0,0841627074802147
0,0850041337565288
0,0832776391399882
0,0830592930751242
0,0860718202513084
0,0858950161843546
0,0824250402747576
0,0843445393738809
0,0845443848176358
0,0839898972986905
0,0859659223740515
0,0857411135701286
0,0841766093971608
0,0853695729645885
0,0863505266639619
0,0846630285703655
0,0842033090415256
0,0867781758978419
0,0867648208500851
0,0852258227041049
0,0868595925517451
0,0867832920763804
0,0883256696544512
0,0862575995629867
0,0863667790996195
0,0893857831827149
0,0875210228650961
0,0886058020529229
0,0880923303602564
0,0890158259515393
0,0897551122983094
0,0898837309632954
0,0895490456315758
0,0898321430101057
0,0915279053912775
0,0914118728325897
0,0918540444201765
0,0944715321775157
0,0932436268203744
0,0905423392828263
0,0900882750233147
0,0944218962892417
0,0915056571770128
0,092520182010043
0,0970834062470582
0,0922887845603824
0,0942761048087035
0,0975548556216366
0,0941068477152963
0,0957488770256062
0,0962992955559471
0,0957846929180568
0,0986530118829791
0,0991442800288104
0,0982810352394984
0,099791068391599
0,0983375707523421
0,100573611700796
0,100979316444763
0,0984949821192394
0,101443938779481
0,103749391747869
0,103356615249231
0,107386246363539
0,104097363392581
0,106106403617199
0,111799782042674
0,108591059712598
0,105642931515785
0,106953576706235
0,108241768285401
0,111560288386821
0,111697779607953
0,111344553969047
0,112253931567506
0,113246547692928
0,114616969584333
0,116854941934519
0,113056481171506
0,116205608205383
0,116107683142175
0,114709193816593
0,121444587511878
0,122654776514278
0,119819219570801
0,124234385806444
0,125614205253558
0,124270071253659
0,126324733839195
0,133238227487463
0,1280179989324
0,129951929035662
0,133987995739865
0,135943339545838
0,137986692960038
0,136641427889566
0,135563235967007
0,139481708920257
0,135802901530166
0,138859955052236
0,145243985226843
0,147314680493042
0,146844265491878
0,149336515978422
0,153116907889962
0,153070889824424
0,155605075823338
0,165800207089001
0,161454702455631
0,163596366982974
0,164915298352443
0,167814941523897
0,167780900514143
0,169308185195682
0,171824828965456
0,176678728441935
0,179130455937142
0,183986843933025
0,182208171403187
0,187192473958621
0,189977981389542
0,193746857144024
0,197727165070197
0,199896508755365
0,200316063669924
0,215975106461979
0,21034941918095
0,212492667451761
0,216572846876508
0,226096936071585
0,222428583951881
0,226830225867227
0,230657430070755
0,237948055868508
0,238542467545599
0,245584331163008
0,251955956662314
0,258822327640533
0,256575637741494
0,26287472581432
0,268623901188608
0,279807981344707
0,28052146174026
0,286120725390718
0,291244181794242
0,297867762592912
0,302311706126036
0,305161723926026
0,303284781620317
0,325527521040327
0,323178734704294
0,332278279367704
0,337415417359195
0,34452952952222
0,348985776398235
0,359245404884336
0,360919895620395
0,372887785302022
0,374275418562295
0,385091822300096
0,380372755177568
0,409676332407125
0,406322633586523
0,416290923477857
0,412441055791174
0,423678861786737
0,434447820165672
0,439382473757612
0,447691457678944
0,453202632506249
0,461712274566423
0,490649068095156
0,474666629896133
0,488761192702316
0,488455067079141
0,507940293637109
0,503823747615109
0,532522389785251
0,531856409316729
0,536412392810123
0,541063852582714
0,549650445472461
0,551068209429305
0,558630916345342
0,584021915376228
0,583223967163733
0,586399618728793
0,593732000742105
0,599298272214571
0,606275778857854
0,603921685979942
0,629567288604273
0,623803040737545
0,663419813217521
0,648012443718194
0,674195335953102
0,658780433803732
0,672797389641078
0,674238880487446
0,664825592059111
0,67882818923182
0,698551790507803
0,683546697262799
0,717635088353091
0,689189409703413
0,712380404113475
0,703329370949818
0,723596104005557
0,712290308005348
0,722066644748866
0,709833280731218
0,740731148208787
0,712345086178688
0,7245509575524
0,76153391353454
0,716406686805039
0,712350569057959
0,72864037288866
0,712781645720509
0,714139469940846
0,70887803352822
0,698491952707385
0,726652059611467
0,714716991074205
0,694200502561666
0,686607641230784
0,705044016751664
0,692864523695014
0,66506247232259
0,662507488725762
0,657068254250155
0,659081341375897
0,637876965484607
0,655102967792993
0,646590215661236
0,616422391069852
0,599524757421487
0,592357968573201
0,597545574298273
0,592982242982319
0,57198078613793
0,565142907839833
0,558516914012613
0,549279816122982
0,537398516373283
0,534875866713765
0,52321700640939
0,523724758275098
0,515935537688633
0,505068496300796
0,493653609793536
0,492129478090205
0,48045550100084
0,476801031209006
0,467184235995787
0,466903941362842
0,461104374571306
0,455780389169566
0,451553557711044
0,441239055159458
0,435845152339144
0,426727544383571
0,427135485758921
0,422035062520656
0,417150155581566
0,409996450522976
0,403937881135202
0,397685191143803
0,397567681300674
0,395091653671382
0,387980080952168
0,378954297587807
0,377355528180053
0,380359883242894
0,374248150738739
0,369801080904961
0,362781051357003
0,374140664840327
0,366863072355003
0,358166631790961
0,351216438895315
0,351975877230988
0,34847027894294
0,346103107007801
0,341588257114304
0,343507008853434
0,336892630899076
0,337139374522545
0,331300497587714
0,333386215689821
0,328157263541921
0,322182876041591
0,322662741590958
0,319387383519944
0,322337206654457
0,318929767606929
0,340800937866823
0,315808675015777
0,301747806940736
0,307539872454987
0,307158817553053
0,315567161286151
0,300239693572452
0,297061344404776
0,304062355432504
0,305267582469083
0,297428567163694
0,292776174290366
0,295155285976591
0,292245469542676
0,294436901082761
0,298998937773458
0,287744272716863
0,2899155206674
0,290407907457601
0,290472309217712
0,286183085724301
0,296944865979802
0,27599252963865
0,279402422060439
0,275863024168568
0,271950293681752
0,281654868637449
0,28027996541832
0,277229999036731
0,271282127572169
0,271869917427705
0,27405806219108
0,272097903730295
0,271274586753092
0,264295439184294
0,262682600441603
0,268932058021789
0,264026628897795
0,262285606291354
0,265661505101566
0,266302830463017
0,260929226710646
0,257118755004125
0,260320676553394
0,262704749461839
0,259300133174466
0,255700159520271
0,25537096757915
0,255730608902025
0,255853819779101
0,25208170045149
0,252066993152101
0,250612874178303
0,245578484791007
0,246907526525102
0,262732599621192
0,257709195150967
0,243873406610148
0,242455211274448
0,243219434531032
0,246256761551765
0,249787700378866
0,241505637178235
0,246192430847662
0,245786028071866
0,242588152026746
0,246671617425935
0,246917526249599
0,237961833561877
0,240869276106511
0,241524799974638
0,239245551262208
0,237335158737152
0,239009394073637
0,237861539336408
0,240348037825639
0,240704254686723
0,239263965473746
0,237459732902721
0,238356690459416
0,239956317141979
0,238912085101426
0,236926325391265
0,237674087477098
0,234872609131604
0,240543277847915
0,237880843220213
0,236796909621112
0,240863374670046
0,238315996002544
0,231189727905674
0,238249731183633
0,23753049186661
0,240039313420153
0,237606414811424
0,235615612680064
0,238937968124556
0,235940672818292
0,233058899712078
0,239305946793979
0,243267870867721
0,241251609479009
0,236565067218923
0,239812708742454
0,237765381992735
0,236760969672046
0,236861106646567
0,23818776780717
0,241598971934783
0,247710343037485
0,236834470838925
0,240218785581112
0,237970226444904
0,240457810922212
0,23921883425403
0,236207337321661
0,238592381530779
0,23787663692858
0,236502009313547
0,241493994522624
0,236882641930099
0,24359051825637
0,234074461639503
0,234841679292975
0,23399258859142
0,236028211305359
0,240416968420545
0,235136474815554
0,233210441729963
0,237709947863004
0,23912218884229
0,237973272784321
0,239646599050719
0,235099028898584
0,234246365648208
0,238241746719582
0,236061049982097
0,237455014198595
0,243350505008114
0,237235201406502
0,236992690918961
0,236769528916027
0,237731270196358
0,23704424926971
0,237893333668631
0,235360720462374
0,236876557173535
0,235156963141113
0,235774617778357
0,238986182458053
0,239568597793457
0,236167875719815
0,239918098320065
0,236432606279994
0,237338982670405
0,236623240137844
0,233734703632777
0,235673189925862
0,236550216863929
0,237131863338558
0,23591443316437
0,235770977085862
0,234902328710292
0,238814494900807
0,235687609496772
0,240541170362744
0,234792881415357
0,240050435899602
0,233898611918446
0,234236945228591
0,236706722941406
0,242052058927197
0,235085457310911
0,237095049506531
0,235048036022394
0,239462866753606
0,234985298373675
0,238425065645033
0,232312517720112
0,235618636939575
0,234331884453141
0,232748694102071
0,23288169853676
0,23902929405084
0,236881993656012
0,236636103219242
0,23658468499361
0,236318730358109
0,233645988904743
0,237991157445775
0,237472749271729
0,23647897338424
0,233801417792893
0,236162739075834
0,234260868106691
0,235079818799585
0,233458748613177
0,238759025959632
0,23526251794281
0,234950479947728
0,231834706513794
0,234387654932618
0,239795884842347
0,233262470106616
0,23833959880162
0,234688953042375
0,234409978636461
0,235057148801233
0,229477543921696
0,234342321243063
0,231847707693315
0,232000481468995
0,233431950345584
0,232044886231506
0,228482759010689
0,232857271348085
0,229616073092417
0,228268590901812
0,233302923766007
0,230175088893532
0,228773564286303
0,233444063115106
0,231050095350934
0,229432522746172
0,227604732779958
0,22953527837976
0,231928618351745
0,230977838209252
0,229165829136494
0,229867631105233
0,227440363213276
0,22921718292854
0,230332472098991
0,231203408074308
0,230978656113561
0,230815200191324
0,230366996172218
0,227904100734236
0,228869642025859
0,228464022617246
0,230083664312147
0,231318664530471
0,228037251546185
0,230069150903535
0,228123297931923
0,228456158848325
0,229398014600999
0,229255613879847
0,230975786661054
0,229204930178798
0,228897851415877
0,229003856413041
0,229509593495491
0,227061056973425
0,224871068291932
0,230272073423015
0,224799541192319
0,227909620377718
0,227050860355841
0,226805971832128
0,226677428533098
0,227752524843368
0,227818491721772
0,227336711918939
0,225788496271523
0,225974540400373
0,227456936904799
0,225499316260337
0,228375590793053
0,225937054815668
0,226493149980586
0,226769583365996
0,226856020564878
0,226074368949699
0,226854192022749
0,222357234390851
0,227584972064212
0,225764020684169
0,223794831358968
0,22337449330521
0,226531491348739
0,226569369124744
0,221848033691946
0,226046644209866
0,224188242167484
0,223112874255464
0,224006552099126
0,224872346243915
0,225957231056296
0,223829286561225
0,221390258433434
0,225499819300178
0,225003885125136
0,226655864848496
0,224200172231625
0,222375286818215
0,224705133825203
0,223806432750217
0,224189962950282
0,223163764907537
0,226237247291851
0,223007014848498
0,223878310190723
0,223586803664175
0,224311016500725
0,223385561267243
0,224284002994077
0,221503450231941
0,22388381624921
0,225490865539552
0,224557560792874
0,224967822485866
0,227077583792144
0,225010132207204
0,223456692788526
0,223317289035689
0,227602289767258
0,224148062312093
0,226166609619352
0,2272119345364
0,224814408785399
0,225652338158737
0,224949097633541
0,225183656320688
0,224181088237175
0,226262466592984
0,223839234060023
0,220439267606648
0,222990409282631
0,225015435211657
0,222543696004627
0,225083531178528
0,224458665265396
0,22395282727258
0,223355202336664
0,222789802015234
0,225724076785397
0,223817000739501
0,224403494146219
0,222317740108514
0,225658485410125
0,224458536641506
0,221392228724953
0,223861906428308
0,219463729783613
0,224861721808716
0,222508332132717
0,222753416160637
0,222340730756805
0,22303892527534
0,220995670177291
0,223347859887541
0,218795746738775
0,223457262560173
0,221952119894096
0,222645737888699
0,221073984056593
0,219904560325565
0,222535702977212
0,220243796705497
0,222854587499587
0,218802123202944
0,220123096319918
0,221610416263878
0,220207608755911
0,22073135003976
0,218851940482488
0,220085121952679
0,218389412108554
0,219508598739482
0,218818514181637
0,218735754725723
0,21860621236798
0,217639373703363
0,217038211551441
0,217484714079457
0,216351446269871
0,220294270449992
0,216986706890941
0,215330455884697
0,216637396570821
0,217177273449972
0,218217600977721
0,218085141800652
0,216568922145654
0,216472510732206
0,216542000848139
0,218307375758619
0,21680315284321
0,215326863636716
0,214325645429883
0,215407413280887
0,216161623520655
0,214816110230712
0,216120976642622
0,214791644633327
0,214882881789781
0,214001454191348
0,21542200578972
0,213193733352168
0,214886365170515
0,213414513129539
0,214406298149512
0,214567162014868
0,216572968596714
0,21504004939966
0,214768071426268
0,216992641638941
0,217611105818793
0,218996702313671
0,218069291911882
0,219367844101643
0,221751157885935
0,219395960926321
0,222303417555933
0,222540220032263
0,221894778532188
0,224502194259155
0,226726694375241
0,226809732901317
0,230144424406583
0,231119845468366
0,228831759547025
0,232399493567062
0,233262439923812
0,236050183985514
0,23797930838978
0,237665468870162
0,236739833136842
0,236278692237009
0,23750800270136
0,23901171789845
0,241366482249842
0,238784027209951
0,239274639468639
0,237589768633881
0,238543664080982
0,240750423596703
0,239045370958252
0,239123513079268
0,238481233009852
0,237319834148595
0,238015459125399
0,237369571646439
0,236572793997046
0,236146889371299
0,23599848504633
0,237004737524627
0,237793477141983
0,237127162631682
0,237184545178013
0,236563128599065
0,235910397794767
0,237805400314303
0,236866595372579
0,238826477347703
0,236512019188546
0,239624735323683
0,238314319289196
0,239119258353309
0,241399210650545
0,24348338739763
0,243309687253449
0,243743361478981
0,246476728251096
0,247742495577458
0,248633119279676
0,250502607856331
0,250570407950796
0,252373640915785
0,251832718889548
0,251822297331181
0,251706746593973
0,254433113486163
0,255967400638668
0,253900635083851
0,25244525105556
0,252296429293902
0,253820231578038
0,253003707784519
0,251301547454575
0,249506558949176
0,247890108481653
0,253088770454618
0,25105563248154
0,250814891522432
0,252140156427329
0,251247859337595
0,252335706377135
0,255217637843664
0,25697316224618
0,257696711734449
0,260039649943245
0,261178046138629
0,260846846331155
0,263471250094669
0,264948304593619
0,262999590092054
0,266056656060334
0,268288652491465
0,268345988341967
0,270806900952184
0,272319215465329
0,273319630240478
0,27311688806757
0,274778398881241
0,273011551950932
0,27776809836824
0,281665460125736
0,283528849166911
0,285569752225535
0,287786877939111
0,287445076578592
0,290701109954935
0,291489809593801
0,294062842768477
0,292433482943558
0,298210469685093
0,2992012442285
0,298435948054155
0,297623420826938
0,298282668834624
0,296928241788441
0,298651955436697
0,295511366737767
0,294427085586795
0,293176653170509
0,290153697141619
0,290780044040085
0,288086884750653
0,284871555630876
0,285551809266738
0,284719427794077
0,283092665599043
0,282059254088528
0,283597614458592
0,284034722189788
0,283071004890049
0,280342666934885
0,285107672340473
0,28516045692144
0,287107856006476
0,285874234156424
0,287911148203249
0,289975941975215
0,288823669599698
0,291104560321513
0,292189733771396
0,292859964614004
0,291589217442796
0,2945273440646
0,292545515551268
0,295670567606492
0,29540058807561
0,298347767684941
0,299068482234114
0,296564958084088
0,296352451713595
0,296108390207853
0,297382373583439
0,296090604072169
0,293011933122591
0,294452314820217
0,296103893398171
0,297589708818033
0,295540050263269
0,293735987851122
0,296321430555155
0,294138145039664
0,291792808358322
0,29364885239756
0,289872461552846
0,290906810033034
0,292270722505996
0,288489200484675
0,285234130042131
0,286535787374523
0,290164096948324
0,284778495473812
0,285291037559333
0,283682223900381
0,278453732781656
0,277075037685018
0,274275910074333
0,273603979325412
0,272688962689675
0,271880663686825
0,268448426455373
0,265670063967625
0,262392065285523
0,265687219776163
0,265417319250579
0,264658844162956
0,261368113556043
0,261532242561774
0,262622547565336
0,263124851871913
0,262263839106231
0,265753641880982
0,263166300644319
0,266153583472408
0,26773622663861
0,266062030091647
0,266984305776605
0,267806366166243
0,26954802676207
0,270878931810236
0,266317027819047
0,268935315128329
0,269211865644477
0,269519399948271
0,268234838033279
0,268014236171465
0,269380312058262
0,266983697310589
0,269853299518818
0,26955425526842
0,26793888086439
0,268130983310529
0,267211442974094
0,267645799596147
0,265801599099924
0,267517120529012
0,268836010610896
0,266927124216383
0,264882124131597
0,268260874172281
0,265997922660873
0,270528470075719
0,269108193195908
0,273077883827037
0,271529420601027
0,273673971206421
0,270143456838135
0,271835099541078
0,272958491489432
0,273558143394908
0,275387717824691
0,273726204232899
0,27794917179445
0,278834292841217
0,276152426520475
0,279466528069056
0,280209037841182
0,284007920668866
0,283428236352054
0,283517773747348
0,284370103353072
0,286924919956006
0,284625030694572
0,284657668221577
0,292114576593393
0,291064389230802
0,292710044819104
0,297800022753149
0,293846242113755
0,30020574664598
0,299755026280358
0,300190538093445
0,302192257970046
0,300334075429742
0,30325051427421
0,308037652241842
0,301879342308324
0,305028673329658
0,310074243168625
0,312836058534745
0,307349595560524
0,31503726419789
0,319394269085795
0,313245324798352
0,31490126636954
0,324855796718621
0,321614625992409
0,32666067574018
0,327282099484582
0,328877832628324
0,331234825102416
0,333274108202007
0,331555826939769
0,341873844980712
0,338397447135366
0,33597805111579
0,338548971901594
0,345358911929703
0,346008965346871
0,350698304823511
0,350063346121015
0,345959669639223
0,354335011513121
0,359916511955878
0,356657502774199
0,356530321766408
0,360344196384362
0,368468829561785
0,365897498494176
0,366556060844496
0,367157063614441
0,376711154196668
0,382655587173857
0,385834803927539
0,379677916068787
0,387623238263851
0,390165751696985
0,39048194586974
0,388317626819289
0,392815836348667
0,39792379381761
0,40577074155655
0,404812931557836
0,411175949962282
0,40811423646716
0,419271434663763
0,412960123780057
0,41443012640362
0,426105604824145
0,428781253890583
0,429054794551116
0,424168227906943
0,428034910924409
0,439461884635137
0,438790404813531
0,43811466740463
0,450279484244561
0,448997929604327
0,443777621251076
0,45317156141386
0,459276859675043
0,465434671061729
0,453325389172868
0,465344781491322
0,475800114558236
0,469642923870325
0,474853945263995
0,472683005189493
0,476283760823063
0,486404595278567
0,485530333585468
0,489864716524174
0,488238466175301
0,502440321051216
0,49508699253888
0,499849515327673
0,502851648548351
0,516710037383092
0,520245227927845
0,525874550875779
0,523717756654291
0,522378968212046
0,528077605927723
0,529298965291551
0,543060240777575
0,550715167141514
0,537508100086825
0,54836674433856
0,54680935471302
0,551386749514961
0,569108769772051
0,559752269980586
0,558555871315419
0,580843306136239
0,57157244467579
0,577164902864862
0,597530661271719
0,599428689427427
0,589036806912286
0,587833386385372
0,588749273949703
0,593221370173591
0,608980436331498
0,605855722039838
0,599944362012015
0,616904927411161
0,617992949969392
0,624594231473359
0,619295388948191
0,628681558446614
0,625097528574998
0,648296673051573
0,660595267151546
0,647974781890446
0,647298646196984
0,657409896580106
0,646772974954423
0,670653813696673
0,676925944991993
0,660572192459156
0,682675070788116
0,696363900099355
0,6975435522032
0,67770880451541
0,676284746674016
0,702951140458271
0,709368324534491
0,695414481250943
0,704881143142585
0,705821632179779
0,712208086351295
0,725625879486077
0,729821528034469
0,747974470321645
0,717820591744134
0,716349709702678
0,73609024508142
0,749798611773505
0,738070233311497
0,721049876822357
0,771825686600843
0,795692629150745
0,742293332357119
0,77273940701736
0,774507826800672
0,792554157212033
0,804735141269515
0,767488866535738
0,737531385716057
0,793542912657768
0,796603013603415
0,774433253932245
0,803054364415117
0,812126235620934
0,819729281533717
0,855839345397386
0,851116249187437
0,822324070761186
0,836180183194183
0,847343586484637
0,827864955804395
0,862300448259893
0,856689752096409
0,87604696349034
0,833929620985314
0,856498445774398
0,846857752620391
0,843343353954586
0,878659192933388
0,910773347747241
0,843947964372279
0,896472885741449
0,900062402246655
0,89081146910716
0,917799888712514
0,930658782826522
0,923565310209188
0,955684847826373
0,893503302117164
0,91461811811937
0,910073231802016
0,893555270591277
0,91874004450362
0,941550573525151
0,856642922764762
0,893703998318662
0,899559961919321
0,977037925230795
0,964222485103479
0,953481337343514
0,959948105290113
0,966725203798368
0,981744931508709
0,918489405104589
0,981913679251028
1,03961194389444
0,969155903160991
1,04449260611398
1,0198785020692
0,950252734113302
1,03693481261726
1,04648795651913
0,977790844262803
1,06027156563218
0,9573215618617
0,947170860224051
0,990981199351045
1,06750046910473
1,07464669430307
1,10418340102442
1,01394046205071
1,03713937784741
1,10140492419014
1,119069838061
1,02033990951348
1,1720633360316
1,10482865326347
1,06995502023893
1,14014215834379
1,08319490663163
1,03905456261463
1,10333206520014
1,12853995063884
1,07249240920956
0,996173014431941
1,06209493431942
1,14379664045943
1,22653909023028
1,15600436677601
1,16841291201578
1,16443481244936
1,08292977676917
1,13597171892838
1,18063117601717
1,18976946053773
1,28793875543255
1,10439294581096
1,28988518692058
1,29026165103614
1,32145057373386
1,23077156498383
1,08371724836394
1,00855638836987
1,06957598413111
1,21744126113613
1,2214511565721
1,11462690946681
1,12070963218325
1,10016804093137
1,29610774594299
1,25417260329596
1,33852409322905
1,13220267446698
1,2790774440972
1,26214684942482
1,10477833922314
1,27004464517257
1,68848065245781
1,7903240393507
1,29162771555892
1,13069823261621
1,12055620930092
1,19505867851364
1,21182025262002
1,35193471432624
1,8056470143286
1,2860581099761
1,31253638332949
1,22157864679438
1,41252107106492
1,30191580635534
1,19356240630019
1,32735304343965
1,41017984434168
5
2,01885122258925
1,22155704784804
1,47400739373512
1,95783248035944
1,46606910890847
1,20889140960967
1,37291838493818
1,19443458553669
1,18461554273002
0,938584532833831
1,39522002385158
1,65764052876934
1,5381759097613
5
2,06067896478961
5
5
1,05202121858513
0,797997820645149
0,994005474833824
1,26861840192201
1,43999369436388
5
1,29430928459306
1,18910802121194
5
5
1,24023957321989
5
1,3435739133014
1,09206383222681
5
5
0,983988060934139
