3596
4000,36533379555
650,420452594757
1
2
2
0,00793629531694751
0,0127563007785635
0,0112278770148614
0,0161553812384414
0,0136582239343357
0,00411800572069485
0,0156375532089785
0,022039545975979
0,0165847456951783
0,0136330210981989
0,00747759155100737
0,0142201729039158
0,0126369892672164
0,0165323874411735
0,00955425518207895
0,00792148029057855
0,00765663700283872
0,0146072567270215
0,00887701836976546
0,00579003991875017
0,0146384070255922
0,00731970061885321
0,0151931390799376
0,00943242048366191
0,00574282913919737
0,0060227313771603
0,00420490252390589
0,0186873431051826
0,0236768878958411
0,0119759735624901
0,013917135894508
0,0161094291221853
0,0181527140472181
0,00772919373565847
0,013173727584335
0,00907697054104712
0,0122089660246913
0,011196424514881
0,0136052788953942
0,0240399174938606
0,0140648997633968
0,0255889787145673
0,0196779105621303
0,0101875665314461
0,0128538747165139
0,0143574961567804
0,00822510797562298
0,0163391464732087
0,0158699753536667
0,0131612213068025
0,00978097424228598
0,0148579213170014
0,0219006635057579
0,0113062107836891
0,00781208679645877
0,00926195867705669
0,0210675492029122
0,00655263404334538
0,0136235097260534
0,0183844359976675
0,00944337188368241
0,00808727115083167
0,0134071161957125
0,0149687212402617
0,0145631463037349
0,0173018710294382
0,0139661654367962
0,0149033134744054
0,0129026857097407
0,0166268212486411
0,0167131687572996
0,00866854491811444
0,014295539033545
0,0104963886467469
0,0109130735676948
0,0194198734185223
0,0114957948401868
0,0155243287632245
0,0110155316966284
0,0117934621961176
0,0195056220040271
0,0144092777741578
0,0143036282368719
0,0140611997334182
0,0151392987268856
0,00631991247067599
0,0194668000358602
0,00941317973430349
0,0172993188894189
0,0097132002749532
0,0148437566886248
0,00771907177096275
0,0155511647350016
0,00677880967421001
0,0250014736304078
0,0225020291808955
0,0183772926641989
0,0129792217056648
0,00838349708428885
0,0148562210793842
0,0116752622215714
0,0291446483948189
0,00390465688751087
0,0211469285541896
0,0111612144544282
0,0146615636750109
0,0252213078079209
-0,000506665116246326
0,0110824867342987
0,00506954318351898
0,0180437339644907
0,00846369901241016
0,0211502089822199
0,0209538083705312
0,0160297004185972
0,00991227615230251
0,0104943156816465
0,000549500724593816
0,0183234204090375
0,0106784360945623
0,0143696715084724
0,018914876639932
0,000916656191876322
0,0219200305296665
0,005299831350225
0,0189755732924165
0,016805933298307
0,016441208300265
-0,00114894489146275
0,0142300141473685
0,0124082563827953
0,020966866233847
0,0112816772443972
0,0256445297439801
0,0146933828530087
0,0106886812107373
0,0150473957229805
0,0194346045994973
0,0210427505672228
0,0099226642869591
0,0110792580409381
0,00721206052418286
0,0110296850356243
0,0200398355956336
0,00889498660634802
0,0109162003565983
0,00908143815878394
0,0166991048622895
0,00283985076830387
0,0127183842178207
0,00388788941807464
0,0208212488444911
0,0124895928155525
0,0189269425813084
0,0185213016623508
0,0370032210527283
-0,00903415825467358
0,0322675488728795
-0,00103734382040994
0,0138527198377848
0,01025862179311
0,0117340405300804
0,00571446514412464
0,0143215986995737
0,0165988953153785
0,0162630797858867
0,0269295901054951
0,00574158498116857
0,0188456442035297
0,0119841952194669
0,0125805624987819
0,0153749166008613
0,0271580718189073
0,00799938778943936
0,00635322072802335
0,0189632595477531
0,00696101878500867
0,0176198907759409
0,0168613602439343
0,0184598375398476
0,00827640747589276
0,0162917743945943
0,0112473916665471
0,0130376504473793
0,0191969299047787
0,0164099058533802
0,0118511909302019
0,0208356253779055
0,0083508147656466
0,022616638891691
0,0191163636446863
0,0153095193529515
0,00923184465255812
0,0250965175457467
0,00884806933681295
0,0294343610255617
0,0135932925342851
0,0124525073238327
0,0198172934018233
0,0180983928021834
0,0182974400717178
0,019948784077346
0,0123215295854524
0,0199340484398091
0,0162319267164894
0,0226035179027297
0,00626495448231631
0,0219131025128961
0,0122525880941778
0,0208298941880635
0,0182843114634212
0,0287890161334596
0,0247394742819746
0,016210831653511
0,024000132535435
0,0190616374856311
0,0239422914015117
0,0237423611548755
0,00892284797670443
0,013223958408909
0,0190355529208544
0,0149653309546678
0,0127807369738263
0,0232616472996087
0,0213989699800623
0,0189069808638509
0,0173229333076773
0,0176212443783283
0,00938304785282529
0,0250315731337948
0,0198615678580248
0,020220276983122
0,0172876659547598
0,0228537870869426
0,0188599811243101
0,0305546357493405
0,0212282009993578
0,0258999152961088
0,0193335615839239
0,0171230324215468
0,0200345779341873
0,0329102380844182
0,0202246696394735
0,0202481553167414
0,0106120237151753
0,0307170390571875
0,0109417878037394
0,0205303496425051
0,0274350449006793
0,0259654353090311
0,0353719456480972
0,0215091177621329
0,0280385590882608
0,0166597428169356
0,0233124881712435
0,01786169405719
0,0302896236431066
0,0255791675478639
0,0282177729757289
0,0214623797040086
0,0247983324686226
0,0191981587274397
0,0356432341141931
0,0170742353517918
0,0336414766615103
0,0171315889445787
0,0156945094092894
0,0314633604101963
0,0129823008785321
0,0269340896225853
0,0239702129898485
0,0167808072947566
0,0435448026540592
0,0150059699038365
0,00938103699140667
0,0322497135385222
0,0263048354206587
0,0233898976758131
0,0260195252691006
0,0366153425722913
0,0246533663296334
0,0439168139787885
0,0249418545327695
0,0476365640422795
0,0166121555884288
0,0305927304526312
0,0339844257730704
0,0173237631436846
0,0221489823131748
0,036251299763317
0,0351875272727377
0,0351831794519094
0,0275849133210056
0,0277926744672153
0,0347363480558996
0,0349210424725009
0,0371451693010072
0,0285351449153997
0,0339032865321426
0,0321828989089672
0,0337846801527553
0,0372070636430369
0,0405530077720561
0,0408520152843725
0,0420554603469806
0,0449387049310113
0,0420616335185381
0,0508393757009868
0,0327210372205161
0,0464470830864069
0,0551519571372997
0,042094975187014
0,0441126056631164
0,0423838690947817
0,0473062153112419
0,0445856907552446
0,0496926115845666
0,0553625903912508
0,0580469990945422
0,0631565462368419
0,0459653783214042
0,0506195740701054
0,051303059284039
0,0602394172767827
0,0575387811812716
0,0653474243396612
0,0658208138769609
0,0681093792511911
0,0674163998368394
0,0775001840038168
0,0708545226347509
0,0725055175898015
0,078091023439721
0,0786354263601737
0,0629457022939061
0,0841401440361656
0,0789649395925679
0,0842139083165254
0,0820945531805623
0,0884299113598739
0,0946888384039885
0,100446009451024
0,103032871228681
0,100387218444241
0,0993984579784715
0,112632636562525
0,117630797215967
0,125610942501787
0,0990282115280016
0,114629311930019
0,114821496276293
0,12730094005048
0,142449868035263
0,11960933590219
0,139427198976543
0,117766623038779
0,133761020684785
0,139141851399487
0,147267118912559
0,155798130720423
0,142498547825774
0,164939558398983
0,150911085663517
0,170088502288595
0,161653481291002
0,166880384422952
0,173314413896673
0,190702180962072
0,175948592323783
0,178573443861232
0,185717310336065
0,194013597411491
0,193712365743482
0,218564695090462
0,18602713834617
0,237923136359691
0,196328450928625
0,241772911037834
0,21977430570244
0,215680195424933
0,214732655971454
0,225543754200547
0,226402330470402
0,236250757667598
0,242429559259049
0,235584413793731
0,246305310873864
0,25264908010458
0,245062902769747
0,253824563593403
0,256483830398834
0,26922475550218
0,252129679643754
0,268205458281827
0,268390931154509
0,277871170302008
0,307431685759901
0,292350594545187
0,272568391053819
0,285539404809885
0,286859289924066
0,288397596065218
0,286268973458752
0,287728056101397
0,302923025863353
0,307434934509437
0,302520776105246
0,337664916470624
0,302625674866156
0,323588245320327
0,310260576964002
0,331750328078916
0,322256187796513
0,3345897278356
0,33799308402456
0,329644173356415
0,316901325549552
0,337086667645287
0,335859094881551
0,331696616914683
0,342752079965095
0,332826916312518
0,351565073427784
0,357325969610479
0,349443326248202
0,364194639443668
0,351836010964425
0,365018879164677
0,354629974773148
0,365096241523339
0,363526809218099
0,383244633930615
0,388511532768218
0,394907157433085
0,377062019942433
0,396167397834152
0,391836723853632
0,388799853654091
0,386638656071837
0,406138338250538
0,425967222304504
0,413044434099703
0,401889126928685
0,388439137328675
0,394809895392335
0,416553636507889
0,419176412812325
0,423512069627225
0,414123849566057
0,447445453095976
0,42852347720778
0,439987414114945
0,438851681207224
0,452315318707607
0,445319079463806
0,443316099168602
0,446161090595349
0,448500377835138
0,446536076968522
0,473787373022777
0,457857066600532
0,48533421361828
0,471251584356867
0,489110673201203
0,484374625189263
0,48492912590479
0,439906960322415
0,496983901210643
0,477164971614026
0,510610069272863
0,472567424635062
0,524042758838607
0,481159405553417
0,505055323985632
0,491177436953518
0,506688327597722
0,508375051671534
0,5420173354073
0,515756831259279
0,553672946055881
0,510018497656031
0,533757982509418
0,511949592511273
0,553813907669008
0,51968629066692
0,547230474556803
0,511943248792529
0,546276365200446
0,528582778314553
0,560976000046006
0,552498567639058
0,602294808146104
0,563519812982993
0,580254498924527
0,559615167894838
0,5736100597568
0,553076889493824
0,599589417602997
0,589839140703246
0,626557870346235
0,593182107210827
0,612713259154119
0,609502986375761
0,6002045330818
0,583177634266239
0,617609627522087
0,616714956228836
0,625942647587031
0,571443765092342
0,648816439207553
0,630160169848808
0,644218045652191
0,60302936654701
0,627339401300642
0,616618971163255
0,672953634388998
0,650550734645124
0,691021262977486
0,639585208882487
0,681456184555408
0,654250670197425
0,692561027179691
0,643578579765599
0,69329111421773
0,678280944923073
0,687741748985408
0,648081182794375
0,68320310212518
0,688037131344332
0,677582804357215
0,652744765776401
0,726849462530663
0,690165866390874
0,696611222247143
0,712750530353327
0,743057680554828
0,693574256041053
0,729108373111275
0,686094549777837
0,763804089047539
0,742043263924061
0,719846556051486
0,752758247292975
0,75131808814826
0,730697874467501
0,801662784105977
0,723661898862224
0,754810307397938
0,729391709509295
0,75842245442621
0,726198729597504
0,819854501538679
0,750845949177384
0,746918558880186
0,731340919719273
0,797985553258751
0,760011032336948
0,814749309187635
0,754205915738093
0,81022266856327
0,769595019617244
0,822320393680899
0,765008340143132
0,877598281201799
0,820370440998926
0,823066086278765
0,834042549194652
0,830751432653391
0,804063118771858
0,844517819955092
0,820822068307757
0,900184661677512
0,834772149801681
0,916215789081213
0,828073241935293
0,864368357370741
0,834430497520393
0,891607866960085
0,865916582280773
0,887227657112973
0,910807421909191
0,925576377030967
0,861647795865036
0,895050477392298
0,871339916017471
0,934715035015443
0,914512856513996
0,928925269922598
0,908324231743825
0,935650157905395
0,866305193739421
0,925663847185138
0,904295843658702
1,00297231353012
0,883402916785237
0,955243248507187
0,937805862106289
0,991067358011646
0,919803880582201
0,957352171432844
0,92029525414645
0,943482538625356
0,898707509544279
0,955371327230499
0,936950283284582
0,958875142779095
0,936138801254973
1,03335211645898
0,955086241474977
0,967613566358799
0,989823969393538
1,06250864366171
0,954308205841339
0,997215411645296
0,947134114876048
0,982040693253167
1,00882379047139
1,03375197703616
1,04264870812839
1,17662733222726
0,983069323890935
1,06961151866471
1,02276734609849
1,09716059662586
1,02512519305219
1,07163148087681
1,05261167522604
1,08155619757929
1,06502547230211
1,16005065504264
0,994785609480784
1,05996281620037
1,10219242793664
1,14313304151968
0,99481233226308
1,03794348680125
1,11998849722571
1,06862293762451
1,08229121484802
1,1173365484239
0,996490489720517
1,11166670173209
1,07674856136899
1,18926084991091
1,11325031085842
1,12902350070474
1,04573894642775
1,10015363436671
1,13051142129854
1,12322605767934
1,09368418360359
1,12170944028895
1,14711376238481
1,18118678154904
1,13787907341411
1,21360069853543
1,09112157246861
1,11871241215175
1,14211874307077
1,18628323853557
1,08362687203261
1,12793975756956
1,10229809957626
1,16517299872916
1,15200091684131
1,13306716512467
1,11383056180629
1,24266776686775
1,156197865254
1,17488635773101
1,21494702677621
1,17428276926819
1,13600496965005
1,1479252748317
1,09379452887917
1,08764905070598
1,12355008184973
1,1724901122893
1,11888742165875
1,156466573569
1,14851506982475
1,20988931794504
1,1023135091241
1,19994750769039
1,2215856635238
1,19408572967415
1,15716455404243
1,25727351639083
1,21980573913934
1,19651873067304
1,22284247162956
1,2009918902888
1,12027264026462
1,17598306337933
1,16033408679586
1,20538400356363
1,12231112249646
1,20061076843318
1,21591521473313
1,14669671354652
1,17545255273163
1,2612533364202
1,22807672817003
1,20272863195443
1,17890558332892
1,21613498965987
1,12065838660951
1,17526345634518
1,17174685902455
1,24837737618441
1,18739758242477
1,21435997770454
1,13277722800465
1,15729047858321
1,15840244503112
1,25457985698902
1,23402119780744
1,17533289547285
1,20782279453031
1,24575206572231
1,19099234091628
1,21251187852494
1,14406119079635
1,24252043927672
1,18229544044259
1,20435778130909
1,18422281851526
1,17418841069544
1,14833017945973
1,20634332339597
1,22367959049197
1,17821324461708
1,15018949405474
1,25401796583068
1,20170614936834
1,17497979055282
1,21084950157844
1,20761984776004
1,16557185592475
1,195601823741
1,14533475026626
1,15732077921056
1,16249139074504
1,19966631349913
1,16818846463061
1,25618803682625
1,21713070145122
1,19713737801678
1,23557472031704
1,25733563412457
1,17944218960283
1,28423358708654
1,18100039647593
1,18349678829746
1,11822235602175
1,16352117902563
1,18598932116393
1,18706113113863
1,1321660037285
1,20289762436751
1,17970358087985
1,21622755792425
1,16159943180196
1,1561952672902
1,22251928265377
1,23553809370321
1,20822566124574
1,18656557317399
1,12166146203953
1,15840537896251
1,18149836718366
1,18211762402123
1,19873389444592
1,21548417842161
1,21407454109131
1,19319062679405
1,12874059539076
1,18660893983041
1,18500232193486
1,19005271893368
1,11853378217497
1,16068972308282
1,15622636815267
1,24883205825591
1,20719438867637
1,13319209322011
1,19932404118718
1,25053076313106
1,15847707828158
1,16866964197141
1,14543077917735
1,17349221253933
1,18803582822607
1,21111486572868
1,15049506673789
1,16902433453008
1,17526749469379
1,19289304446566
1,14699948213766
1,15373969156492
1,16346306371613
1,12811180248256
1,12795214435739
1,24073172910352
1,16846826987832
1,16802391703077
1,14372057598498
1,11742568902504
1,21114600522793
1,2836520401447
1,1743429322929
1,15341341586894
1,20003765307684
1,19948053847549
1,1544061233921
1,13042344516629
1,15206780906574
1,1646508135139
1,15258127076453
1,13331048380316
1,1261024972788
1,18806668781147
1,15896250630973
1,17845918008352
1,18443615417105
1,17796084463213
1,16644442886636
1,16689182202638
1,17798895570814
1,16925260410457
1,14198740737746
1,10905716617926
1,09350256899159
1,10301489896903
1,13840300573503
1,13909297827016
1,09116483194459
1,12383999665097
1,0682830812288
1,11862915265928
1,16977428759675
1,10269061056342
1,06026352628693
1,10507759095254
1,14003937070116
1,14673424751149
1,11297724680861
1,10049364009634
1,10213480541777
1,14265282308804
1,09985006507262
1,06251175673726
1,12352285062505
1,10626832960593
1,08991140996009
1,08283741224369
1,05554126445497
1,06177431419096
1,05000885574023
1,07496628022274
1,07672432021834
1,04092860544982
1,08574762181935
1,06701721595427
1,03619815144826
1,06136411940739
1,03825083767619
1,06190370574835
0,994306040308838
1,02510541802622
1,08694400509781
1,02460501482074
0,997436979032592
1,02450831006225
0,999102775299025
1,00409704357447
1,01161649669737
1,0021863225139
0,989005279954501
0,961652545409914
0,969508991844961
0,998938575580004
0,983877511512398
0,978376417802434
0,962550880224488
0,940026645617509
0,988101306151451
0,986214904547995
0,951069180941672
0,922883582244702
0,922736052868887
0,919938996515968
0,906208145852794
0,923144197759984
0,942154231491958
0,92948948260209
0,917390213631896
0,930595551554388
0,906198778776694
0,894782641075105
0,890144631312554
0,887650487866014
0,896571456262449
0,889710895463309
0,854948705267929
0,84029681038929
0,860900266904474
0,863269300668347
0,867324975720305
0,84343459208894
0,838376735151075
0,853357900975434
0,841503757916276
0,848165476091465
0,839047934660222
0,824989051482185
0,822657814479245
0,826586227870007
0,809894391442201
0,802444583708465
0,798832016813363
0,807347460983691
0,803881243548668
0,777999412252525
0,788814246502059
0,771770995119204
0,752574778499823
0,769468350425409
0,770668797518208
0,764574170738196
0,753999914985514
0,749819208512416
0,763790747181681
0,731392244077488
0,734397747713213
0,742095140670376
0,726836668476725
0,717457104233055
0,722849212290237
0,709045370771777
0,703794284726172
0,707603596582813
0,682976107590725
0,680340072884464
0,683400791401889
0,67858937678743
0,66679455315574
0,673287278785497
0,668830783172904
0,663087609493209
0,666372254583612
0,650456943106665
0,644404278596759
0,644249035701736
0,634880847537892
0,635560484663952
0,640206991955768
0,638476651784436
0,643097930152971
0,621203501027519
0,612124066512795
0,616875931082124
0,610984387857249
0,609470756905122
0,603566067013731
0,60084957121535
0,608714068911832
0,581838026649562
0,580837115959
0,571091449851391
0,572997977385164
0,583436530925882
0,576144558644234
0,58118186486661
0,573644965384909
0,565030289081309
0,559639323181112
0,549506410683206
0,557710293248357
0,545324655380975
0,541529527625822
0,539647296361478
0,526498394889529
0,524366013430255
0,524814803519675
0,522747815950808
0,530621382841175
0,523229957138526
0,50759651807271
0,502795797850582
0,505351363395281
0,500815628694089
0,504935439670547
0,503222083851364
0,500855885762233
0,495463034250775
0,482240252116295
0,481918208474252
0,482885672520269
0,469673045982158
0,473922818102367
0,473255930778694
0,472376712443715
0,459919198563354
0,46359369284903
0,45563093506575
0,455174371074159
0,454662503814342
0,44326880039306
0,44124181642446
0,440266179706874
0,439951275554552
0,430516796546903
0,428014002870597
0,431461537426357
0,427572587104777
0,429174110658852
0,425409083687846
0,418432166094488
0,419366547542933
0,413586388527651
0,402823047750334
0,404610678163173
0,400779149747081
0,399826583491987
0,394541984912136
0,392588903420355
0,388724896070468
0,38806170638899
0,389360925036723
0,387922440441031
0,380381120490754
0,376422955528009
0,37725354818915
0,377918131387371
0,372112353431566
0,370121920588468
0,364725379988008
0,359710414164938
0,361242843477974
0,366814906545003
0,357939760883078
0,352004919010018
0,34444152878637
0,344950564569722
0,339189151353202
0,345642023290635
0,342305936692323
0,335679110461839
0,337060791882365
0,332148961128638
0,325542468234086
0,325856975221118
0,32193829438214
0,323166453052506
0,320867807321007
0,320201661342539
0,316263635931706
0,315403235821966
0,308740331077814
0,311157510763428
0,314090324709667
0,311020953709927
0,304336252475022
0,301731591540788
0,297416670729927
0,296780992174099
0,294973326536217
0,294155759329649
0,287398940505204
0,28609951267935
0,290034765142848
0,286020163041219
0,287111682420237
0,280727228690499
0,27922949782119
0,279535828004697
0,271363211013796
0,270215880586536
0,271827157208759
0,271045336266529
0,268602544606805
0,260255456414444
0,260471605589724
0,26693016814341
0,266505244622283
0,257433075705908
0,255811882926172
0,256603688273778
0,254299179926671
0,249076547942306
0,250624888349646
0,245816306012141
0,243842433854577
0,245311565302959
0,243887393348634
0,240923570855335
0,241520048662072
0,239085304189608
0,237986392369094
0,239994853361176
0,234606696206012
0,235636770888709
0,229377265021006
0,228681870836167
0,231081624485618
0,226759685493231
0,225226628218052
0,225941059418374
0,222817768777952
0,224008168854288
0,215464238159307
0,213124131452595
0,210024175835565
0,208077605777403
0,212476247376655
0,209641421171193
0,207437084423476
0,212140248282142
0,212183324749404
0,204770432921875
0,209550086066232
0,207382086699381
0,202664222401262
0,203866134633783
0,19701132648402
0,193435570231774
0,195813153105961
0,200278705900704
0,195579593315996
0,195376741293811
0,198246180132584
0,190496771987078
0,188923947857679
0,18994884056886
0,188210338423659
0,187606526421046
0,187890754939276
0,187300509906555
0,182102753263671
0,176682141844685
0,179960221896327
0,175110519206877
0,17923762504648
0,180890440679526
0,174204300909233
0,17816577628749
0,170634096574455
0,174748197782022
0,170818413506776
0,168766607998457
0,170132793562844
0,172824897146499
0,171632642559172
0,170419106484644
0,165763827909533
0,160502035876743
0,169063758995546
0,160946835213276
0,162264355180924
0,161562843681478
0,158565491397046
0,160193398866101
0,15483381961494
0,153952231193402
0,157257513293633
0,153821862531277
0,149970676876474
0,148761933250215
0,148880533132291
0,150472699023354
0,14279531191282
0,14860910026375
0,148100395186033
0,15098581306693
0,146965378340592
0,144487721343938
0,141694131578824
0,142845249810441
0,142463543142968
0,147893817404938
0,143904213883158
0,142173371817728
0,13987504649475
0,141008228857156
0,135673267024747
0,139230046481703
0,136896713328197
0,136185976906003
0,138038796217211
0,134026953188504
0,137367210298563
0,131812428019358
0,132803614104577
0,13589963104655
0,13395166265814
0,126448622502787
0,13121641982528
0,130056595371485
0,128481759346548
0,129878186429985
0,130109904824124
0,129254262196035
0,123943365788407
0,125317871505117
0,124071565761987
0,120969348598165
0,121785234907588
0,121431856854472
0,123951953495583
0,123280981927198
0,119399461796174
0,119348888541205
0,122701223269552
0,117255213749651
0,116524603788395
0,116941066317286
0,11899165846657
0,11612906429617
0,112765300897704
0,110164778329752
0,110765829449455
0,113708639271018
0,109433841528576
0,113943846277234
0,11079474625799
0,107188991844049
0,110150514533444
0,112026436346944
0,106374591593922
0,102516267489665
0,102082721930303
0,11007332671438
0,10613665957609
0,103106166442091
0,102739231394057
0,102971880225102
0,103871830339546
0,101991021712673
0,104708612038641
0,103830095009757
0,100240315149638
0,101261861420897
0,099906723702248
0,097237595818356
0,0971606477230321
0,0959334751875534
0,0976211460986961
0,0971353493016749
0,0948583122107425
0,0936134313948301
0,0912015237472186
0,0950494876168397
0,0942048923620757
0,0940055498734798
0,0930666478879973
0,0940957292804977
0,0957727193950754
0,0947189035527112
0,0891517153511237
0,0923199505835914
0,0921664699232361
0,0862226194949475
0,0894319202583209
0,0916909980182881
0,0860764468481723
0,0864745099400344
0,0852440111170439
0,0847175055929979
0,0904894361413477
0,0928022277213144
0,0836572720383025
0,0856257740608092
0,0869775650887816
0,0855158199761509
0,0818811466974144
0,0898221960079652
0,0834511893820648
0,0839784266733143
0,0852462673121695
0,0844979139591294
0,0832411522030518
0,0823269994780286
0,0797073534182548
0,0828549968510019
0,083631689702811
0,0781733281028494
0,0797327734389142
0,079367419163154
0,0802572884144587
0,0787911153311442
0,0816938647106112
0,0788276609132233
0,0802593318473031
0,0784255742395326
0,0760158583852952
0,0759664013489219
0,0794461495497104
0,0769995327571572
0,0745019355055985
0,0782324522499408
0,0741437086637333
0,0712661604634487
0,0752556531457244
0,0767743940729783
0,0735587670560183
0,0720245692449422
0,0756474719422758
0,076261405718116
0,0707457752728434
0,0738500533417274
0,0728169000080066
0,0713280215188129
0,0758601294459431
0,0712613536658303
0,0743432957677214
0,0748457903094251
0,0714677172459021
0,071067117817319
0,0715414831798429
0,0715389230538519
0,068440774985398
0,0699126756383219
0,070689791753641
0,0678384995495456
0,0670130717045211
0,0693778996833987
0,0680001021263339
0,0695986976738934
0,0714227233168945
0,0731954196886581
0,0674812988620491
0,0691085089874219
0,0659063290801939
0,0669370627137788
0,0654316387661538
0,0695766048762111
0,066923464691186
0,0675112086103237
0,0672260480805534
0,0649205327472703
0,0649125356706439
0,0674696001498634
0,0670598073387623
0,0647836412188965
0,0664707481224544
0,0661180058957372
0,06511466944473
0,0662729475439529
0,0672823572607675
0,0640098768292964
0,0615863832776711
0,0624591568026354
0,0634937668342685
0,06608535752606
0,0641746964739743
0,0622334359859321
0,063374092781003
0,0631222193339995
0,0596798225057377
0,0655869076600567
0,0627167778313921
0,0631554118834825
0,0603020272352308
0,0644636325208183
0,0609271702533601
0,0620622949843169
0,0582083495165625
0,06278710257472
0,0616810963951695
0,0638253828019145
0,0621495849584031
0,0630874738225745
0,0599087997942956
0,0595257813111995
0,060634769637065
0,0618917025692036
0,059159480948555
0,061208760362267
0,0604931441757618
0,0616878800512768
0,0582938638874254
0,0583427368430372
0,0583707607236257
0,0599778281187377
0,0564698191359612
0,0599249008818117
0,0586943936599185
0,0609666340836745
0,0554371327263045
0,0566383197082682
0,0613992758205209
0,0608088358896921
0,0570812089157815
0,0554644559367802
0,059830804107915
0,061020381173525
0,0602875645314008
0,059727668658615
0,0557061984473998
0,0572765001142917
0,0592279726449247
0,057841348425167
0,0568893529756285
0,0592584527979325
0,0545195435437707
0,0554058304615591
0,0578271639424276
0,0567623282612026
0,0530542427692227
0,0548195198488059
0,0562961830431071
0,0564877397509818
0,057481336999381
0,0521493481827707
0,0597994899131179
0,0543888437266607
0,0557175833020583
0,0545175530555307
0,0560548507303224
0,0584798329151609
0,0536649281179635
0,0531460581885033
0,0540663623476219
0,0523366602352539
0,0501532778289353
0,054989670644432
0,0570268659793579
0,0590948829573729
0,0538085687640922
0,0555264759087259
0,0533802996649767
0,053298745661884
0,0551267189455422
0,0533324497897781
0,0516621013183359
0,0569169041484853
0,0552069557901633
0,0554413958078517
0,0541573159022184
0,0521578881545486
0,0549463973359221
0,0566542567255865
0,0540763919891377
0,0571290608429852
0,0531766843400238
0,0513377406541043
0,0485081422088318
0,0571199459490896
0,0540302957922614
0,0521417078948034
0,0535458885630731
0,0533624636500347
0,0534302541366704
0,0519744600392175
0,0528194291623101
0,0514503094453047
0,0497912356648889
0,0528653601716115
0,0503714440194701
0,0500991358776179
0,0507238113088609
0,0545778636756587
0,0490691964932746
0,053505028838256
0,052171577956295
0,0525576494721041
0,0505407654006167
0,0521740286409073
0,0542618553366314
0,0522845210482381
0,0507206694344189
0,0541697868229942
0,0503309133695523
0,0497783522728048
0,0535366184981989
0,0521136897578707
0,0508703833688972
0,0513313591187849
0,0472150309316199
0,0489549410759483
0,0515834745256733
0,0505498002848695
0,0498878199731646
0,0506627518473345
0,0553608365426943
0,0541186675108792
0,0518022469172087
0,0534925840692353
0,0531597781447019
0,0523699679844858
0,0526750882077712
0,0547235142513107
0,0495468718397376
0,0527860170312659
0,0525120893400689
0,0501452261738431
0,0482480747577955
0,0555799191448077
0,0527719772537731
0,0502533361431746
0,049879300206923
0,0513421552926305
0,0523191000573204
0,0524708353008014
0,0510008822400483
0,0509222484179224
0,0508046577350686
0,0499830342960145
0,049741328745151
0,0531597369894966
0,0510562949333101
0,0508116109499597
0,0500508311543791
0,0515080201021527
0,0531959933581646
0,0496228187971461
0,050421749943743
0,0533119675536396
0,0501053216517032
0,0511065662969891
0,0500970103141553
0,0493029231307683
0,0522425331654585
0,053701475402712
0,0532106240795891
0,0525339044422582
0,0518653109004013
0,0504195472439188
0,0513461519832086
0,0528312397418036
0,0515326100079813
0,0491302905894614
0,0471347494140487
0,0510129058988292
0,0511089996742968
0,0513622466711024
0,0530082617886792
0,0493896971851089
0,0496216912099054
0,0529075694647808
0,0505384520424679
0,0526860290423624
0,0513326016295311
0,0550602560445859
0,0507997363415227
0,0553657057440818
0,0543223524896803
0,0510037993770621
0,0527504220048034
0,0518416917668126
0,049150441000767
0,0504628784914796
0,0503480162571316
0,0538968597059158
0,0530619099490473
0,052529989125127
0,0481692764590855
0,0548895138178819
0,051948174497901
0,0508944424275767
0,051894258266524
0,0514190926166041
0,0545857434384968
0,0559491745854691
0,0539821288944032
0,0511420073872521
0,0510624582626184
0,0528598752429507
0,0504727055009187
0,054810683138892
0,0517657846397019
0,0531702010874493
0,0489145439048427
0,0542265864194765
0,0525372889888048
0,0515267889111522
0,0546197043125781
0,0525623913117738
0,0522856538078765
0,0542284767897342
0,0569671735305964
0,0547895552640932
0,051055384851067
0,0532613656041912
0,0502449385913052
0,0527118573369999
0,0540760683486753
0,053961760649054
0,0545863164350631
0,0527818328188897
0,0536449297644202
0,0536760531780018
0,0507888172094304
0,0542686607186321
0,0515981885576416
0,0527457820938335
0,0531106885262424
0,055920857833811
0,0521226347508114
0,0552810166284228
0,0569803579450668
0,0560905730346434
0,0550845174791214
0,0567672504640727
0,0553476332096002
0,0546800644898974
0,0550779101366819
0,0570938586490786
0,0545924174105115
0,0553344101964281
0,0546403649122068
0,0549825977644871
0,0544901586871857
0,0547883835791825
0,0523600075102843
0,0563230600879073
0,056751432177131
0,0533981517682801
0,0562028312848583
0,0545639239351948
0,0552558004446118
0,0550839070908285
0,0557936445000848
0,055797662910153
0,0551031980650356
0,0564009725004864
0,0538983790699981
0,0572397322774252
0,0550235297388135
0,0567103425847472
0,0560466813471239
0,0550102054802282
0,0588185138154017
0,0571358415862547
0,0565479890410013
0,055746776884382
0,0541635540872985
0,0562265385949164
0,0548824842291138
0,056810537491878
0,0560606869663468
0,0564008599949841
0,0563865305429122
0,0523147697692691
0,0575120214283427
0,0576468243690916
0,0568493643369987
0,0577761974559304
0,0561169974705654
0,0568728172385929
0,0551367430878536
0,0558835458918983
0,0561868720471918
0,0590722054276993
0,0593864856464575
0,057080935447329
0,0579715826360297
0,0564452332871361
0,0573718875958542
0,0568467697556924
0,0550685735984059
0,0602878446965744
0,057895966256668
0,0573414488034882
0,0571230394835383
0,0583813506205902
0,0573869687433591
0,0577065075429079
0,061415732707837
0,0589221410704043
0,0574359405964304
0,0584531459693737
0,0598050508238281
0,0593538002886213
0,0594087261947716
0,0604228668707343
0,0594263885951571
0,0627749661700369
0,0596512859694868
0,057842376233434
0,057669438603871
0,0584126918366489
0,059415481718916
0,0615278611657598
0,0624309180605479
0,0602485386488208
0,0589480538516176
0,0610688005185389
0,0600068118350327
0,061897040370626
0,0593035507894742
0,0616415196419892
0,0622794217893015
0,0600917896455113
0,0597522417797914
0,0621362197751765
0,0596924852278684
0,059378469382815
0,06105423831929
0,0635855023554828
0,0614820338513291
0,0608110350899003
0,0597300473689068
0,0609022728851949
0,0633412467849629
0,0623199534586101
0,0616828912818401
0,0623182834209084
0,0606672464570784
0,0624040156149726
0,0611444786233672
0,060151711867421
0,0635805416523355
0,0616226852473619
0,0609712103394408
0,0649243047288156
0,0630042562916096
0,0651859697765456
0,0632194659471355
0,0615857937839085
0,0627273611021221
0,0628475014126728
0,0620727035198676
0,0635034289332533
0,0626296911421302
0,063021988129131
0,0622435321862906
0,0638950983152969
0,0640252802162615
0,0660966730147342
0,0654378071048893
0,0671963935431712
0,0658246637979274
0,0656932508571654
0,0636004380911671
0,0627391732954047
0,0654046643306467
0,0638235286087155
0,0643961101836203
0,0639330623563077
0,0623710197770956
0,0668191271012425
0,0640659358351753
0,0651900246402403
0,0648255060935865
0,0659246673434854
0,0626349167674637
0,0630123134147948
0,0664892293552882
0,068531565435191
0,0677088271069767
0,068050640516532
0,0653510643598771
0,0654019159849257
0,0602801561276904
0,0636056140896062
0,0663181592594499
0,0621313183495591
0,0594152266407578
0,0636182780198115
0,0654235469424268
0,0671090139014526
0,0668114580340797
0,0633187125221894
0,0630328990561004
0,0654131000096106
0,066260108308718
0,0662849516210569
0,0684538644141963
0,0671178139702286
0,0665468865828576
0,0664351826634534
0,0682855874057292
0,0707642348877689
0,0708298736931278
0,0701387987996576
0,0686066887921353
0,0661831573151077
0,0703564742776078
0,067746533214067
0,0681845991540521
0,0673965981672975
0,0706058867423726
0,069470257083835
0,0729766067029823
0,0679552144417061
0,0738264526702763
0,0663139590070383
0,0714346471807262
0,0652755498449334
0,0717989185079972
0,0642944520236749
0,0743003940836297
0,0649322706089806
0,0778408847459402
0,066753370177906
0,0802335228134011
0,0622640759861525
0,0751011636485713
0,062510601544923
0,0811292630692458
0,063767609350849
0,0807440556563439
0,0651581550548043
0,0809147386867367
0,072732637465541
0,0755429215705393
0,0719026843184128
0,0734216314432051
0,0757895299419444
0,0738655439849072
0,0765879890248687
0,0705879485469303
0,078188677823066
0,0748063953298765
0,0760063405409979
0,0754302234532449
0,0766548544942647
0,0732038109105576
0,0789806157125633
0,0799302427814605
0,0738815024556687
0,0784971849497935
0,0779700074886015
0,0761919800412255
0,0775881668749277
0,0754515708053707
0,0776906458371586
0,0748792034025504
0,0770837723127505
0,0786428381974538
0,0812786763548877
0,0765735679694488
0,0804350377182734
0,0789277633076723
0,08047788701394
0,0815479143274123
0,0813139957625288
0,077949952362594
0,0793101240757916
0,0798456714594735
0,082416246905542
0,0791207000732008
0,0793220879201413
0,0794777628727426
0,0809795368606065
0,0807033977898961
0,081190803283437
0,0825389514763671
0,0828263198706846
0,0813332457856865
0,0827118289178884
0,0836335016923191
0,0843751712423796
0,0819805559192145
0,0819099194241566
0,0826749745723327
0,0847501006030141
0,0847527149949896
0,0832653871985048
0,0839001258088561
0,0850248277260513
0,0831079081628195
0,084967103612827
0,0859049597700004
0,0878524080157403
0,084819346392314
0,0856721071696024
0,0883174651572027
0,0871372191465553
0,0831734588361838
0,0867527938727929
0,0853430201920054
0,0839444502420012
0,0875380590756736
0,0866711026674218
0,0855001404954367
0,0901369410910332
0,0874761105102123
0,088526034397992
0,086022915170611
0,0891841818938084
0,0903927348831233
0,0878986135522585
0,086952223969863
0,0898364019519162
0,0888174945524449
0,0916750290085742
0,0864468838045138
0,0885252914492769
0,0876853611606871
0,091439987525283
0,0880544421441702
0,0917267860399716
0,0902252743455352
0,091186592799249
0,0905085576566863
0,0897469955184562
0,088965559254729
0,0908809701128252
0,0943564179173339
0,0945376702217666
0,0920991087399708
0,0960384161517783
0,093655464222663
0,0919190304307349
0,0937543237757585
0,0935856703438626
0,0911655277600794
0,0921931365318257
0,0942795601684903
0,0944928257764702
0,0942670570901689
0,0926676575680248
0,0940912715641194
0,0953714117736021
0,093390069133273
0,0948701491298399
0,095516304221006
0,0982723525194622
0,0986866749317582
0,0971920168121112
0,0962273857536705
0,0982130291908286
0,0981646958085159
0,0974240622279681
0,0959360483424362
0,0976866412971078
0,0987172547896763
0,10052598475749
0,0980808497160209
0,0993187318323511
0,100229325187169
0,0975678741144042
0,098506327922526
0,100260950506235
0,0991132894237196
0,0978533121785409
0,0979934708216789
0,0997895300472848
0,0994828940282475
0,09964343327622
0,101856856506114
0,102164173248942
0,0993347528193076
0,100851407903748
0,102054553452616
0,100407920835553
0,100324063311304
0,104067748991166
0,102670149881777
0,104018234899455
0,104678640059393
0,105703544297515
0,105860160486885
0,103125374157605
0,101667381130633
0,103856596585908
0,103055663199252
0,105962943022383
0,101929466446182
0,103018289551529
0,103335498065142
0,105184643585987
0,103142908320583
0,105353928318867
0,105128690739174
0,106119205087741
0,104163662198541
0,104736636578974
0,107325356235318
0,105398746961242
0,106571850232743
0,107917170167273
0,105153058743915
0,106671526856271
0,103194317028451
0,106293329899132
0,107515098711066
0,108101003598571
0,106719560769663
0,106522265928667
0,107901870889292
0,106214626482699
0,107206434865206
0,104950141311739
0,107504180370208
0,109718738629582
0,106269321964317
0,108612758439449
0,108867121796171
0,106813353802382
0,107852107740017
0,108854167141362
0,110284992637402
0,109668903507377
0,108996453772214
0,108142047030148
0,109003214801665
0,109940801986508
0,107411573031885
0,110716826679985
0,111017492756951
0,110682762281927
0,109842718921803
0,107811208444511
0,108769469937603
0,111509383856731
0,109212365404935
0,108374286857942
0,108110184484693
0,107894087241867
0,109951832709422
0,109583341525604
0,108547255048229
0,110652303953606
0,108193074171247
0,110385694182784
0,110503827788159
0,110350024279307
0,11022924510408
0,110509746793668
0,110560465841643
0,109487746030014
0,109888831839627
0,10914411421039
0,109221818038722
0,110445658646371
0,109383283530809
0,109992874022315
0,106511120827628
0,107706126949814
0,110647387325372
0,109909054203018
0,109167158999993
0,109746124978321
0,109719067040063
0,109988347535364
0,110318097481369
0,110056587393804
0,10897163265735
0,108627058059242
0,110553314417366
0,110707401005401
0,107860513288298
0,108578402360915
0,10874818606345
0,109135587872294
0,107894614614649
0,109905279122132
0,108784837734522
0,11093487416173
0,109019953607583
0,108121217795955
0,10981922483319
0,109316019188121
0,107890857265453
0,108386823106282
0,106677637231095
0,108364653625819
0,106884184164968
0,10630264308543
0,106068831575702
0,107388956404908
0,107112308110654
0,106233715515122
0,10500160906128
0,105878896935039
0,106795486007363
0,106680105432882
0,105049771942262
0,104817662770248
0,108071248681088
0,105395020034278
0,103294295575964
0,106225648643182
0,104122192188837
0,104130157763921
0,101749267448242
0,103888445712697
0,105935293116238
0,105096806860976
0,103339913258779
0,104495252001985
0,102895002287277
0,104974465483154
0,10095363179555
0,102142478124804
0,102736895492077
0,10386531542912
0,103816182147175
0,103599720264646
0,101899587953211
0,102091558401243
0,101447779973407
0,101554673606631
0,101511940907348
0,101958169202754
0,102385645035294
0,100291141095363
0,100266230735071
0,102823370272443
0,100203420782115
0,100295982897943
0,099521113977612
0,100898797345462
0,0984458339806628
0,100755410910913
0,0999858220694385
0,0979461642271963
0,0949261501101486
0,0977956544021824
0,0980540231138438
0,0982916853549859
0,0958271206589626
0,0979026068315026
0,0979802171362146
0,0957099224939079
0,0973583231232722
0,0966155113374646
0,0956023823995643
0,0966960688697723
0,0952204742311585
0,0955799942605438
0,0940234603166277
0,09658860699295
0,0961509643090906
0,0950201978833333
0,0947451006982898
0,0941345345623283
0,0946765636926501
0,0923731317797199
0,0909967533906919
0,0914893105424534
0,09279337640002
0,0937509060774982
0,0899456283293931
0,0915951556242179
0,0923502672607609
0,0910472737391992
0,0917358329910288
0,0907285804142519
0,0892122719916742
0,0899243517001408
0,0899532199525085
0,091225408979462
0,0905104489317028
0,0909188340328858
0,0906859526132743
0,0894079040338683
0,0883038744903836
0,0880293644731585
0,0900173752375499
0,0911579442980053
0,0880436605531166
0,0853713782317041
0,0869102898116746
0,0866905343312947
0,0872494990621677
0,0858140001765529
0,0844742431958799
0,0859518223160802
0,0852342182791022
0,0866320536967063
0,087568795611203
0,0862104218201962
0,086487952613148
0,086474455279345
0,083071137363373
0,0862986820695828
0,085584511242937
0,0840412299498315
0,0851709283778184
0,0837738771282165
0,0820707143977207
0,0810938013934992
0,0841916942225348
0,0836301312395838
0,08149737922882
0,0835546381144146
0,0802184019790859
0,0812684065960724
0,0833400602549298
0,0838298097174765
0,0826463515616023
0,0804922020636258
0,0798448733963049
0,0807812963042037
0,0795430645840305
0,08105901581332
0,0816325022301525
0,0803409497639214
0,0798348917804498
0,0793505798498836
0,0801906040409928
0,0810702983611752
0,0780382865353889
0,0771939978473022
0,0774444985238246
0,0771169452544191
0,0778763931123972
0,0780812509074887
0,0775855295447295
0,0799915859677998
0,0754998927164244
0,0761299719600411
0,0780127155283923
0,0769484481477902
0,0732064784119449
0,0765034924864343
0,0755094428428642
0,0753277458498293
0,0774787666769837
0,076179097626979
0,0755143486944834
0,0748115241017849
0,0742361257444926
0,0783886957215229
0,0752032701701398
0,0733799746641455
0,0736853452513394
0,0763660990370136
0,0751533631929293
0,0743456048110187
0,0743114481972035
0,0730847150743419
0,0722441175557605
0,0753942864321657
0,0735558919908612
0,0725712811311582
0,0726622374459266
0,0727932642884793
0,0738387952633827
0,0733366311857943
0,0719857762289541
0,0719643177105308
0,0740265850665484
0,0710078252124709
0,0728256729504141
0,0744452343947431
0,0732689693140065
0,0725636677423347
0,0743945626756174
0,0719477603625248
0,0726163930276904
0,0701206082095409
0,0702483980697737
0,0721335753957792
0,0712667280951208
0,070222912682053
0,0695412040878801
0,0710018442858758
0,070382966398958
0,0706349598616964
0,0721151813256052
0,0716312635808177
0,0717960775481752
0,0705322312144143
0,0687608434903932
0,069309283030359
0,071993090306166
0,0680324506093996
0,0694622402277709
0,0706561411758596
0,0696773641016266
0,0690837643146742
0,0710631367756306
0,0702745793045451
0,0707133405085383
0,0707158992102944
0,070018157685335
0,0692453271169243
0,0685526729223316
0,0697533566833247
0,0685221621922673
0,0703591056738899
0,0687885759430786
0,0698535749645042
0,0704606164003846
0,0694046325695457
0,0687767941585772
0,0673498536372411
0,0697458764936807
0,0696815970087656
0,0698389862853104
0,0704672768917613
0,0690000729453294
0,0684753673169761
0,0688521672078756
0,0686511033069512
0,0715909255272294
0,0685933606140652
0,0698809334636505
0,0698012702931147
0,0694323654418983
0,070513367569662
0,0709731438092156
0,0692782749022135
0,0691762758976328
0,0680462525864114
0,0701693278084516
0,0693372238337161
0,0701854209205035
0,0694614933093885
0,0682878850955004
0,0694861009515591
0,0702378897457458
0,0706203742694163
0,0701962628835317
0,0710087234434579
0,0683824556147339
0,0732521667823705
0,0724159506141769
0,0691395700435081
0,068251300354648
0,074559681075052
0,0704638613423104
0,0668695426198164
0,069056393134307
0,0702756153576127
0,0699349995604151
0,0710888546860832
0,0704441592685054
0,071487196878302
0,0721859315000944
0,0712165549592834
0,0724722188294576
0,0759146382422159
0,0730329901230584
0,0701807616346999
0,0698136139026657
0,0723482870712164
0,0713873446717784
0,073154145270732
0,0715114393380619
0,0718796907879126
0,0716924952082576
0,072163731029276
0,0739628264637274
0,0711532869246312
0,0727451513209418
0,074729306623296
0,0745922550793837
0,0726803179261163
0,0733668028482976
0,0748004138752567
0,0739973818842161
0,0743205939821786
0,0731009082162396
0,0738335088413384
0,0755909018191412
0,0743101472758527
0,0752760335749847
0,0749467152505123
0,0766255448332546
0,0756965877949098
0,0754820613464685
0,0773723683434409
0,079118528285359
0,0789010507952023
0,0807803567462261
0,0779788052833982
0,0777354683066718
0,0766506375527745
0,0806352571977672
0,0760533743378702
0,0813071029502671
0,08074100346477
0,0796504147985804
0,0812361071540141
0,0839654244134246
0,0778951473251643
0,0797310564288221
0,083657092859456
0,082178323931342
0,0830905544202472
0,081781336961667
0,0848556452100018
0,0820519591715409
0,0859159816236217
0,0826220831681542
0,0848361908063576
0,0805304897136587
0,0850241585724013
0,0856943973321799
0,0892426060772166
0,0886062074073769
0,0892628251916398
0,0896862205423846
0,0930345986052679
0,0933617311009947
0,0879721002085254
0,0885864061772468
0,0926014172200625
0,091986907880824
0,0940823400632504
0,0912855678486958
0,0966179483191919
0,0947994063221056
0,0950400833364326
0,0987744651074166
0,0944772608771393
0,0960837177035114
0,0984083431678707
0,0982542347751408
0,101343178231751
0,100909794607097
0,101423310644979
0,103446882177255
0,104959741038263
0,103762622733383
0,109879175739136
0,104786549782951
0,109934433870549
0,10796271917612
0,115116199589123
0,111682546657249
0,118208538857131
0,1139153504298
0,114959379274133
0,117401579156966
0,11830831830145
0,113858974089782
0,122299469688947
0,124035243081532
0,121864127974699
0,121440364240159
0,123175174521955
0,128191762152124
0,132115930189031
0,13608836329015
0,135125436958264
0,135417196432686
0,13494169583122
0,140399169372912
0,141372792040083
0,139885042627937
0,141945315732931
0,14520752206311
0,151697150361015
0,150511441828609
0,150664544993117
0,158639512723787
0,159177109605361
0,154686448186276
0,162919763248761
0,16514554557099
0,173513210968685
0,184875727216066
0,171202781882562
0,177901055123938
0,178613406037775
0,181476660315541
0,180377290404814
0,18995956527235
0,189326935732233
0,194366153991381
0,195231292492157
0,198952248067863
0,209050532527471
0,210485463195263
0,209957615158428
0,218572474623946
0,226939800530529
0,222918254255931
0,226804052841135
0,238615870748076
0,228112668119569
0,247772450085383
0,246622134288308
0,256233973163548
0,249102735265744
0,261849569222913
0,259764953524143
0,270985264092137
0,276287263294438
0,283531848988932
0,284123178233754
0,293354092505766
0,295029136336675
0,309165181389305
0,306295269219391
0,313164159944772
0,324824381470932
0,345719943746308
0,332862205992521
0,344536042597587
0,338656669759096
0,344396228108088
0,350874922351188
0,364534729079858
0,364145325232538
0,373754073472849
0,381577645494431
0,392660884374977
0,384773736919301
0,394856889662129
0,404440284564597
0,40931915950154
0,41705307660839
0,422936816437149
0,430452938283015
0,429367337254431
0,435183769913447
0,447302325619
0,451066112171544
0,460202320552846
0,466550163925665
0,474696814525415
0,474908256798754
0,48233156789068
0,486701679617568
0,498762146004302
0,492868992468439
0,504920589052494
0,50717540543643
0,524031029705605
0,535963870643723
0,524571650265687
0,527328516768919
0,542546283898215
0,542957941719187
0,543338080239719
0,550870782718064
0,558538177039688
0,559203787254346
0,575973464565138
0,559183950320192
0,566824927829134
0,572568981069054
0,588485858402557
0,577411348216892
0,584994881145536
0,589011386773614
0,582876991519106
0,57706270124517
0,593665732911375
0,600890620493064
0,589946534287378
0,582175532366565
0,595423574724749
0,575470438161373
0,582889587397003
0,579949514166882
0,579255315086005
0,570610718550817
0,568812398020274
0,55292077060454
0,562640237807895
0,558911861736888
0,56880717247518
0,542171183925204
0,531635989542677
0,537560848017584
0,529656632995439
0,517466963031483
0,520750827720485
0,521872514030961
0,496725735152945
0,492812299212714
0,493949069477938
0,471725609654929
0,477084512776897
0,458278980724971
0,460646770656128
0,454236843918261
0,444154685285731
0,439193234421387
0,436563547081102
0,421925420013043
0,422314223238976
0,420511390134735
0,412716289872755
0,398792589894246
0,399314208403598
0,393388803678915
0,395287919384347
0,380113493621962
0,375743631213959
0,371695098953364
0,375195016162852
0,365160213195613
0,36136334536814
0,355172318332745
0,347437008247572
0,342484964961829
0,340172904648675
0,334427729976647
0,333333509879638
0,328497616121979
0,325133756623532
0,32386711526717
0,319357280339459
0,31417683518773
0,312732099237104
0,307407912337857
0,308381288808037
0,30296670250237
0,29667465165403
0,302666267016188
0,293286698898501
0,298841875835187
0,290388017079185
0,286335548934407
0,284334135921668
0,283057444869988
0,289157764305777
0,284249590066142
0,279422207262018
0,274811199185959
0,273217880123601
0,274373366644662
0,268621881316536
0,267649974989272
0,267177229312464
0,259143904704048
0,267283844604268
0,256015652349496
0,262743239286757
0,27835420633874
0,26707251330925
0,25041613766519
0,25531529317224
0,262549756633795
0,250066668699801
0,249515323837829
0,240753152500524
0,250820763822731
0,249214883186435
0,246681103746044
0,242514843858434
0,242944042544245
0,240001233449601
0,24618156894627
0,241468767418364
0,237069150611508
0,234613862741523
0,239522987064357
0,239609110078177
0,236748487105293
0,238923534343381
0,229226926239846
0,228078828325986
0,224135752542505
0,229944202218545
0,23696803606202
0,226324831216778
0,222860517740554
0,222130207873374
0,221153565641125
0,223234472824691
0,226887234973155
0,224671893280457
0,216746015308164
0,224316486489635
0,214306468568762
0,216192649880164
0,209362000635959
0,219194551227721
0,221252763028409
0,223138331686136
0,212187861044308
0,213121903701245
0,216425417233093
0,2147270682722
0,213252533558707
0,209759130005194
0,209842565261084
0,2112485775496
0,203399327056357
0,211454238204213
0,208529138297308
0,206377437914122
0,210291378223202
0,21068243071098
0,216800804251358
0,196451477304631
0,197138928914957
0,202161548618445
0,199602708145626
0,204421785517807
0,197448495246859
0,204077809070691
0,201839332162518
0,202597927288911
0,202633289480789
0,198988628315914
0,2024174377969
0,196493893039331
0,193614670252561
0,197939280820789
0,200197408040926
0,203515965962911
0,196801766674736
0,194602319861214
0,196507399209135
0,194752919921862
0,196898961413384
0,193387350282673
0,194419438790076
0,193516257614498
0,196826923035247
0,195941288347122
0,193566648049258
0,196361951005555
0,196636471770413
0,193427527583581
0,203200948794778
0,191382760403496
0,19558636422544
0,19152110224683
0,205818427286408
0,191986633229533
0,192652568771414
0,194092054123792
0,195324397312958
0,196226502990699
0,192049972230343
0,19835851737386
0,204680043025927
0,193840348795555
0,198799680312453
0,195554027310535
0,200223445357921
0,194262295810641
0,201111419945402
0,193521353291005
0,206164478731422
0,206442332797928
0,192711901939813
0,193278537421425
0,194939024752857
0,196297902834732
0,191862331036906
0,197683320309121
0,194470217112389
0,196186434276981
0,201121817718365
0,198203421520349
0,194517939857883
0,194534457474804
0,192792174761754
0,198211445569322
0,195076034512607
0,195335279151686
0,194683534359293
0,195727384602562
0,193551204831002
0,195387798008595
0,203136871444483
0,193696671469056
0,196024503450937
0,19236367530441
0,197659053391491
0,195519332999951
0,193540218686646
0,200411122335392
0,198313811052139
0,196712807105834
0,195727424321105
0,192051260877333
0,194347983398155
0,19615061573592
0,200793539240979
0,193973642495777
0,198405680638087
0,190525176117815
0,199316450866313
0,200128438440115
0,197098576526917
0,198395734533278
0,193513395804509
0,194146225620373
0,19089205338248
0,191177914707686
0,191630132102145
0,195335101933545
0,191102141393479
0,198710447325357
0,190801227364312
0,198127812613938
0,191968619139274
0,193372628621264
0,195862325400809
0,19593780207126
0,194006258007443
0,194162985072647
0,193487715396902
0,192433665329646
0,19625393012532
0,193982122335633
0,193283097213651
0,198908209540262
0,193370706447627
0,197780110810003
0,193776524177458
0,193324858906401
0,18892952106689
0,192340193188158
0,190818912955405
0,189950811253441
0,192457141435943
0,196134438885027
0,189239599464296
0,194661347094868
0,191970030565005
0,193429879853098
0,193394934691258
0,197234447828557
0,192712263068972
0,19675004107515
0,187845295387243
0,194953156015066
0,193399158195276
0,193698847067644
0,192110639596879
0,194104181628841
0,197543845812969
0,191765111603218
0,195406917731925
0,192372057861834
0,193687441287146
0,192166741061503
0,196403485528202
0,191604037431318
0,186304040351037
0,192550458096086
0,189728584930511
0,195415778644181
0,191660362116678
0,191947171776931
0,189345874493874
0,190157162355326
0,188715816648871
0,191692582469695
0,187811846995167
0,187772282548088
0,189706997112134
0,188082741786586
0,188810535763294
0,190114615620895
0,188174035326232
0,189592938481542
0,189048686568001
0,18723105179231
0,190084860325619
0,189310790498652
0,187317507096402
0,188057964802894
0,185729015429937
0,191930129778815
0,185774825258127
0,187798441386152
0,188501220639093
0,189804417000882
0,190076887606911
0,188360944327735
0,187902854921473
0,188402991473271
0,185281792621952
0,186015320631119
0,1890884500548
0,186983655136247
0,185801424114781
0,185995973024654
0,189750108013038
0,185454525135824
0,189005698620769
0,186735698583352
0,18528978909159
0,187087251442244
0,186068389250888
0,184909536893645
0,186498406733227
0,188827231292765
0,187657344572143
0,184287045182731
0,186513122100098
0,186582962007918
0,186263165410982
0,187900874823415
0,187336616810874
0,187096407922297
0,186340708828374
0,184477884682698
0,188428556158417
0,186936034072125
0,187143657284365
0,186781139113418
0,187584942602228
0,184729186516336
0,184489609366677
0,183508586868246
0,184178604651802
0,185029420963878
0,184815016090234
0,185229328041899
0,183892045892715
0,182862595576041
0,185639007691361
0,184525530399458
0,183971599426998
0,18531011848686
0,18415909048922
0,183149957996752
0,185340922866954
0,18413301082843
0,183439612370921
0,181750841055492
0,183349979708984
0,185449561507562
0,183298863018504
0,183506005641879
0,185432223488511
0,18369257099056
0,182759035809848
0,183521283098463
0,184064434273909
0,183878534962137
0,183257451363259
0,183726306256227
0,183521397341338
0,184349257630883
0,18245499538959
0,184014214144286
0,185437582329021
0,183471504846301
0,183048743170383
0,183262694639371
0,182488466161524
0,182947275573713
0,18371862422513
0,184221041978356
0,185029386065253
0,184920417410116
0,186010040040388
0,181783467923861
0,181511545121099
0,18648307228887
0,184911182095663
0,184472682455215
0,185055697629158
0,186201810382254
0,183977283815913
0,184654923801663
0,184690132963741
0,181308069813216
0,186055111230296
0,182988388750605
0,182169837562862
0,183585297411317
0,186152236642506
0,182779626581758
0,182499171207014
0,180738165588332
0,183671723841258
0,183645067356707
0,184264559704687
0,183207854120133
0,183973639811606
0,184171740794423
0,184074458380978
0,181323480540298
0,179397000283571
0,182474739232618
0,180463279971432
0,181576173242922
0,182322754843041
0,183036143514281
0,180296339823257
0,182535415111058
0,181235375508608
0,183484867047726
0,18169919578652
0,181119079554473
0,180929163806506
0,179962710563968
0,182488450099735
0,179014361040353
0,181562345914322
0,181816520186532
0,180901289045252
0,180026798333363
0,181836069983495
0,180979300789054
0,179597608674358
0,179698413049701
0,179949040631567
0,179105386442512
0,179781085425778
0,181107939377466
0,178635239906404
0,179502171253772
0,179052766672636
0,176302709026319
0,177147108756836
0,17919399510311
0,17579846967788
0,179240960561668
0,177297713741638
0,176518568999021
0,178021329239944
0,177950475384579
0,178747325027091
0,176323260429966
0,17680227854322
0,176714283011464
0,175116164117113
0,176431472508939
0,175747174067286
0,178469668865417
0,175157915935732
0,17573225698675
0,177362270325246
0,174650595409584
0,175740021179961
0,17598299755656
0,17554699597678
0,175052449875343
0,174206392774785
0,175864520888803
0,175832488800611
0,17494262674061
0,177181958159417
0,174554308244134
0,176164314897544
0,179099418916951
0,177308721716085
0,177609926066075
0,17898860895429
0,179831430434782
0,180030862226685
0,181030668208378
0,182454443522634
0,182775799861063
0,180213217426658
0,183358612783481
0,184255243229726
0,185582180317339
0,185252320303213
0,187409606641376
0,186836397969162
0,18898340354389
0,189684899978882
0,192133369040237
0,191185191942125
0,195148847782314
0,191118930577642
0,193024687140747
0,193615347730603
0,19573841445546
0,197400314381937
0,194415718065892
0,195405400528688
0,194782399987366
0,195636458501866
0,196143018401147
0,196187184980944
0,194989512356483
0,193456011467643
0,193501872337801
0,19338571633058
0,193284928706253
0,192605165060724
0,193151431819947
0,193356800177696
0,194284900531028
0,194376345542587
0,193790692464997
0,193142983509116
0,191746554777738
0,192237679246562
0,192967499059778
0,193400774051994
0,194400309405222
0,194006084003721
0,196000298459543
0,194017045721568
0,19456466548278
0,196152986153876
0,196635232226898
0,198028784930774
0,199789754518328
0,200664352044013
0,200308704579855
0,202860151652144
0,203760074434479
0,203795281324076
0,206365030638019
0,205948218359153
0,204836100097074
0,204268463700394
0,20631524482345
0,206592944839174
0,205728409632097
0,205715286055428
0,203147171411373
0,204390031749448
0,204246834496167
0,205520784396759
0,203619187169238
0,201285225083289
0,203741908911864
0,204061317865061
0,201286577798551
0,203914019923094
0,203860408444772
0,204920054130171
0,208076425549001
0,208106829676014
0,209127438035015
0,210055585811874
0,209371151396667
0,212369578006533
0,215399026425017
0,213524976996899
0,2157590584895
0,216327008292304
0,217901954039801
0,217140887192125
0,22005598318578
0,218791885535307
0,219611938320228
0,219519302455886
0,224486571945551
0,223802721405356
0,225685730614387
0,226553597427816
0,22990249278335
0,231142781727283
0,231799184868714
0,235140694031451
0,236119120787049
0,236955858052398
0,236523721250794
0,237835611662893
0,2424826417169
0,24201128213312
0,241349500571315
0,240410108199549
0,241142816597862
0,242699003019396
0,240220610393403
0,241927739654396
0,239135463388364
0,235926531431021
0,235337203125535
0,232635316527095
0,231101761381035
0,234135492438478
0,232476148149429
0,230110780804729
0,229897252805591
0,228795842167439
0,227508139146093
0,231133269045794
0,226788091037503
0,227650397466326
0,232993974615159
0,231511660226591
0,231762278355053
0,231889272807054
0,235839432407154
0,235377663859766
0,232896268505678
0,235842998146741
0,235791551353634
0,237925794747026
0,237522232245069
0,24106910381088
0,237624641352248
0,237971598961435
0,239015820299649
0,24005099878406
0,240664289237326
0,241817923204283
0,240850209813373
0,238721625007965
0,240723095571587
0,23892891815032
0,239310465042662
0,239007352458502
0,240698044040055
0,23897816620854
0,240285261592534
0,238893752656965
0,23914034042929
0,237839346959633
0,239141303725444
0,237221889835001
0,235169086228354
0,23591603295251
0,235272334018067
0,233883883747329
0,234224523897603
0,234781803738361
0,233314014484805
0,230727824778969
0,232473793663844
0,23003605824567
0,22488141505143
0,225291490934861
0,223425528795051
0,222595468484719
0,220104584153669
0,218716228872123
0,219328650347238
0,21735650336404
0,214178409749987
0,215898014478354
0,213863283820022
0,210891414330643
0,214136952199824
0,215076085603918
0,211713632158718
0,212001993066067
0,210424809760948
0,216707605641111
0,213759628310533
0,21617369477518
0,217973412486811
0,216158657617653
0,217994227816861
0,219620036627035
0,22010953758167
0,217419620615574
0,215426081246634
0,220258473502489
0,218540980336376
0,218654042520027
0,220008482359991
0,219681966697301
0,219635951891065
0,214438881921179
0,218831224011365
0,219180043631854
0,218721164957075
0,215215059192762
0,215931730807495
0,217065150318348
0,215763992495992
0,219120867818077
0,217482519030133
0,216341162194735
0,217085654673478
0,217235070540533
0,216813397073032
0,216504631575941
0,216902849100764
0,220340805735154
0,218221594779909
0,222373981935683
0,222261437261418
0,2203627111924
0,225305041253478
0,221682969893048
0,224761113963104
0,222393841355617
0,221034942355181
0,225352957243004
0,225523927186529
0,225844579536937
0,223422200452648
0,227504203836714
0,232894337848562
0,229446807669761
0,228355299607389
0,230449163224453
0,23304450425603
0,232992374231958
0,23488658803645
0,235913299937649
0,237250789507595
0,240888329599836
0,239611797432528
0,238391338179792
0,240363174250651
0,243094162808301
0,244719228342337
0,243777490677879
0,245137448751373
0,249207398159251
0,242958411633382
0,2435595589914
0,251986284847951
0,254011846182813
0,252826448816984
0,256640078897767
0,256676124476221
0,258312053873269
0,258879588551886
0,262323741493184
0,262155875530755
0,26456446487216
0,265742841910493
0,267734665634859
0,268494664948037
0,270420436844134
0,26856457496347
0,274746461917699
0,270810438591383
0,274381544501163
0,276349300598867
0,280833018277542
0,280255196275037
0,282542412363261
0,280190175306373
0,284184237425984
0,289029440738251
0,286009815036913
0,29040565035459
0,291411279199388
0,28698188071731
0,296035249023797
0,302058690418043
0,296798529292165
0,297323480599739
0,305386236503906
0,309689628552466
0,309549863722637
0,31091778476703
0,31629729583909
0,312332570477814
0,315066162122089
0,315505370964116
0,31694303479893
0,323579226358527
0,327793837512044
0,325620412394318
0,327744215217795
0,335169379377036
0,336433801322328
0,335643300322076
0,339135559679572
0,344904320916062
0,349688661227857
0,347089763628717
0,34958177527345
0,351654806384676
0,35534208575576
0,360403676455251
0,357089329301697
0,362406236700002
0,355284019021383
0,361675310297593
0,368397007175431
0,36582977336168
0,376580875436352
0,376550206386477
0,378307811586276
0,379555853158161
0,377811256516503
0,383505040518743
0,387132597778108
0,393091751473996
0,389795208303043
0,392942788809752
0,397112070594511
0,39546339124201
0,398709748626254
0,39867262767416
0,408635702980798
0,404719890126735
0,413019179822025
0,418414399192194
0,421411214137094
0,420873643216695
0,425939674815317
0,431027982307147
0,431134776097863
0,443032167613289
0,444852562497622
0,440713399699403
0,435305670758332
0,43857476997165
0,452985225293124
0,447261448184742
0,453167388161943
0,460879779050551
0,458166800888045
0,452350481259988
0,471114603686309
0,469628340985957
0,469177743860153
0,465628805647952
0,479190725450588
0,483683979002148
0,488764960269577
0,491417628490211
0,488565516075153
0,489155332644845
0,490276624302569
0,500823832548241
0,510191839594456
0,51300599903978
0,511983001677725
0,502161660519891
0,506412906716162
0,518237593554742
0,515105237438911
0,517952575052755
0,530662579502089
0,527850247124687
0,531052312952799
0,526639446477443
0,543602222241656
0,544745620289871
0,540408674578329
0,542402755445166
0,553696303547978
0,556601035565589
0,552509912071846
0,569594086285988
0,577733524938253
0,563805671684179
0,574768244513759
0,568217226854216
0,574468887685128
0,588482479730422
0,585925342970086
0,591204349743146
0,594104393912613
0,583928578915565
0,587948831472337
0,602126836578507
0,609484832289678
0,630332623539021
0,630983284161007
0,610614355763297
0,618399677754148
0,617706760941203
0,630052976287967
0,63572333503555
0,632113536348642
0,611560166034033
0,626351259157533
0,658220502445252
0,633007392197464
0,664316552726372
0,645798077561866
0,655394332172549
0,667347538596391
0,650627609392955
0,666188818725269
0,664938139298112
0,655497028287861
0,685409231111318
0,714346692829036
0,678717388239391
0,692585936275267
0,672582349575164
0,675548068867317
0,712458018619616
0,717465230827374
0,717180619569625
0,756148657482187
0,725923373161525
0,675862703048927
0,687692329911914
0,723689939460441
0,736265498600165
0,735549015033037
0,731004912525606
0,717421736564664
0,706882017902792
0,743760146942921
0,763795762929387
0,767614942578726
0,763993005954405
0,769237098818669
0,777820001998909
0,802994793455895
0,788186493572766
0,782039069867339
0,757227107423742
0,776702943042356
0,764017088269989
0,793185164617948
0,777558053209528
0,816020471358247
0,810734772632248
0,822982915177077
0,786062273964625
0,848772177340675
0,848818694074511
0,833817349339494
0,846120571470031
0,855697865754915
0,827093461032287
0,831395456460827
0,808009185331407
0,800487771477734
0,791059410839451
0,850238290918288
0,828298567863139
0,805843494680465
0,854113163615238
0,825902998145528
0,867018609053337
0,904874602215884
0,815534842201017
0,808453260774924
0,899712404151897
0,908678374352266
0,838588772731551
0,911555160901267
0,84007790216343
0,937098712754952
0,955258543279849
0,864368248254919
0,807049735791353
0,933670078737815
1,00659299066112
0,913476475139642
0,950945440147169
0,985390549667712
0,976013671014852
1,03168786302316
0,953704112304519
0,952881166307026
0,949257756090654
0,942832374925631
0,913795927724821
1,0003844237795
0,988902345938149
0,878634241373644
0,989532020233339
1,00628229461211
0,951078070383186
0,978159381309137
0,914210740480809
1,00128670220531
0,824449907478354
0,807156985133556
0,990843369304388
0,948342271550978
0,886741176243765
1,08784059922394
1,03351087687844
1,01844663435457
0,989070314307776
1,06788348283913
0,878225661429924
0,971319375838415
1,19884636902626
1,12365139709735
1,16506904073871
0,992485686176119
1,24111767758669
1,21431931628253
1,04411711634405
1,07031370522508
1,05408276282724
1,0043760345654
0,88354938576301
1,04104283526546
1,10307909149432
1,13408988531608
1,20992345789362
1,67469451608925
1,18503676918634
0,890573930596358
0,90516127384816
1,16866332675084
1,03968033754015
1,11255145745467
0,969222996696384
0,997559399270418
0,923824525476566
1,20390751660441
1,07889546443563
1,2725832882586
5
1,09491075271791
0,934650132085218
1,03042715409211
1,17954416262306
1,85238209465768
5
1,1505663052409
0,763998245792512
1,02788403705588
5
1,41025280907773
1,03771116994676
0,836829725678198
0,740746603216133
5
1,20226142434614
1,11081175215204
0,860155039249411
1,11914656748199
5
0,854155796764693
5
