3596
4000,36533379555
650,420452594757
1
2
2
0,0113614524580927
0,0138075209661942
0,0153530845281473
0,020095951508854
0,018978288947734
0,0176694110862233
0,0136567780219222
0,0181784984232649
0,0163050345879775
0,0127575380520336
0,0142749894108868
0,0155046595524158
0,010246780927999
0,0204327604315352
0,00803622002992058
0,0132968878471343
0,011855662695564
0,0219309687727454
0,0136824326091715
0,00914201592101701
0,0180512729838218
0,00518430917525201
0,0130416897426426
0,0090678238817852
0,00637126408418807
0,00986778663542293
0,0124955822383178
0,0170312636891898
0,012778308637742
0,00593931373762939
0,0240802373903932
0,0150711660585165
0,0208063968402792
0,0190336824493423
0,0118056782189197
0,00853309346112329
0,0133930058980363
0,0155883554129754
0,0212089995655383
0,0180516647978535
0,0159116662400682
0,0209157465349197
0,0151529037824223
0,00923315676955557
0,0154579904324483
0,0172437572485272
0,0133828642615678
0,0131876253697088
0,0142153890933603
0,0111300994940681
0,0137500145148056
0,0235195070036897
0,0209185020360007
0,0101146573320278
0,0108941794700678
0,0133958719043229
0,0152673595995861
0,0164487249201087
0,00883682440883859
0,0185230764699654
0,0130665049045616
0,00925865937550359
0,0129291936706486
0,0160961248746746
0,019224809608801
0,015801470982227
0,0155558200916796
0,0171691822954076
0,0153216220058738
0,021082474638496
0,0166794543018412
0,0170822652697817
0,0231438002587789
0,0118019994149262
0,0110807011286169
0,0154685753003999
0,0132311232134619
0,00766864976867857
0,0111368374268042
0,0184572578810489
0,0183917172303384
0,00806864978352248
0,0129972382244908
0,0146785340242081
0,0236757598062004
0,00267206243407999
0,0157854538369863
0,0177104768872075
0,0157279754598678
0,0101472912600534
0,0124680458491057
0,00778426929534482
0,0191172251836609
0,00996145421698559
0,0209762587192146
0,019163338671806
0,0248356468583243
0,01759864459308
0,010814128133009
0,0228093742546159
0,00931348728753504
0,0341538493245758
-0,00248845716476355
0,0225287407233326
0,00711776300299561
0,0114493454231361
0,0215700354251199
0,0036469254604081
0,0156122994137094
0,0141488152094449
0,0191979249932748
0,0126519189308367
0,0180032885436116
0,0239444092333351
0,0160931119211568
0,00295519015720604
0,0149611933600368
0,00934748911259264
0,0109906560894806
0,0132723420635337
0,0198971984644569
0,020405951106226
0,0031044513219839
0,0238458149202361
0,00658212391574685
0,0165909465831007
0,0165099391959567
0,0189308507594935
0,00458203546078505
0,0104690954000784
0,0156311129872916
0,0118982835712823
0,00721613230165505
0,0230852268441575
0,00372744974891173
0,0119538394712305
0,0141910379020223
0,0189304957578163
0,0266388569183516
0,00616709929201084
0,0159712907050892
0,016832425820972
0,0179752645407828
0,0215892898689838
0,0045855221484859
0,0193861576535437
0,0142070191499878
0,0184972444506574
0,00811778369085597
0,0160090625790889
0,0057192287436233
0,0121803175468451
0,00872068984468874
0,0103232976556307
0,0215047921836803
0,0408385727182105
-0,000932160436494706
0,0457382716996273
-0,00413295794066847
0,0144828698937563
0,00719579553486123
0,0139752173162123
0,0153754428195301
0,019685848019569
0,0192204094166292
0,01491823730787
0,0285820308512825
0,0162123253303403
0,0181942202992509
0,0175161405890273
0,0145324115385136
0,0110650067918914
0,022980414607727
0,00630077861408038
0,0100037943460843
0,0253482483460979
0,0123437966198476
0,0108673591494155
0,0118192867906645
0,0223475610206784
0,0115265361083979
0,0219255746920367
0,0164579995352743
0,0199670645264609
0,0191113522684834
0,0132936745379473
0,0113990954791515
0,0176547670673506
0,0103454445071296
0,0269736618321096
0,0299682686986425
0,0206033083221845
0,00440101132516273
0,0262962902283708
0,0101618474210893
0,0290653937630798
0,0118122177048254
0,0157620811348128
0,0154905822272174
0,0210037134965957
0,0248987603214734
0,0200176107861005
0,0139376369568393
0,0183776908323848
0,0124273934731501
0,0308640123066519
0,00855613718022032
0,0209281460368365
0,0123752850696343
0,0216420120368405
0,0145370584246392
0,0256688123949308
0,0281442699949186
0,00838132048630251
0,0211508533709481
0,0186158211655186
0,0182810687551954
0,0266760929931673
0,0144279386001941
0,0156050971407006
0,0220273469282759
0,0183261180731622
0,0198222835093427
0,0217737684147121
0,0187914302386432
0,0175365396481021
0,013999571778017
0,0197416372877961
0,0143722760473653
0,0268805540032822
0,0184690781757409
0,0209798041360887
0,0244964398026623
0,0210888780526334
0,0201717738282604
0,0274503374322187
0,0232884187508453
0,0242930944716968
0,0182115290581319
0,012346940554315
0,0204176058562953
0,0338726825781263
0,0173325918574371
0,0223521174145966
0,0183444316823768
0,0367142370245409
0,0174143421936278
0,0186597415210181
0,0222931219565696
0,0273523508600676
0,031266281089326
0,0154396646022401
0,0308683833468921
0,0210872321459011
0,0266182246974125
0,0182053631953226
0,027806509532619
0,0208616660685779
0,0289599909227254
0,0272108447883646
0,029090022816975
0,0209917347199403
0,0286530277578133
0,0141192848942958
0,0323499435246058
0,0122803425626295
0,0211831147905011
0,0336533899639301
-0,00058838207407671
0,0280069510917088
0,030863289169382
0,0198276636158102
0,0549148741051277
0,0231641703878995
0,0169577854438037
0,0322150442433847
0,0211173449161625
0,0274308266514633
0,0299615869093058
0,0375016034622482
0,027525366040789
0,0468971057993033
0,0167249531844507
0,0443936406758702
0,00866652487828102
0,0348324110530517
0,0427089836979488
0,0204802229335837
0,0292176951236182
0,0275339696094123
0,0290233746792669
0,0332113009988069
0,037734225722294
0,0237323568787865
0,0337002408798849
0,0293693214405174
0,0370095994251585
0,0314791181431949
0,0347950053141339
0,0370122562482709
0,0396682968190302
0,0367403416127707
0,0398589764368581
0,0386967455372975
0,048661824356262
0,0461155020124449
0,040568396929225
0,0605286650694172
0,0367868577087954
0,0467248775062148
0,0530589658627198
0,0475204872285312
0,0428875816559715
0,0471679418999619
0,0419880128186966
0,0423955924967558
0,0498767695222114
0,0519186276650204
0,0604838995771161
0,0646113433019899
0,056251771877952
0,0569330720579714
0,0481017933547546
0,0589421998164635
0,0546449761403351
0,0674599655252241
0,057852704469555
0,0699346127152246
0,0686407403213688
0,0725020144149734
0,0747365706953313
0,0705518585132577
0,0818640172178293
0,086862142034066
0,0598511722454619
0,0884809328845313
0,0749648461277084
0,0814672620574059
0,0807787436962502
0,0924094436219343
0,093096106178421
0,0975801864182262
0,0922907361524588
0,101896871931467
0,0983573665827937
0,106307144441828
0,114667384183631
0,120125124164623
0,103914708228342
0,116277762726726
0,117452522216578
0,136034649314922
0,130727896963557
0,113520163302604
0,154714406207094
0,130032569016289
0,135421567344267
0,139411728930951
0,14931207981429
0,153147800499259
0,149548593262972
0,154293728914721
0,158834227921809
0,157580180666202
0,165319251530872
0,167196975090079
0,163085018102768
0,192314987174069
0,177682853815331
0,182690635493397
0,179706074693587
0,187418761793337
0,184209676126167
0,203583117049812
0,199064165052388
0,226451108046503
0,196246727102348
0,236687989108168
0,220006198554216
0,210790371956652
0,208336037909324
0,227390062534476
0,228265881741318
0,239765581878461
0,240533227802742
0,238267957927871
0,232355722523025
0,246630193028875
0,244605647827126
0,259254859534925
0,251964280787543
0,266226296440346
0,244573051930807
0,255106588070668
0,267306822537043
0,286262462894158
0,287817736088632
0,298771808236138
0,282343443428078
0,285410475278795
0,279644624133149
0,282095914088819
0,285304354399244
0,282725844445888
0,288385198610764
0,313682564348855
0,31664334972908
0,324362735973581
0,301631043499672
0,324409400170857
0,294219764674042
0,321750987180513
0,312249602101288
0,322712799297723
0,326021201278922
0,325826107090085
0,335118841914726
0,33026618715287
0,339665260286269
0,342144685155574
0,335681310799277
0,332999329651702
0,340899646879331
0,352262191874658
0,349511726810503
0,370422697128841
0,346608541058355
0,367799085745093
0,349902202172842
0,371073172176357
0,361001919218025
0,381892769325309
0,378006169395315
0,387276827386786
0,379531086503807
0,409712175212704
0,375079189642149
0,377633767766026
0,366350405384621
0,41212330101346
0,402612667381493
0,399459659583751
0,407720544080835
0,388656277141395
0,394131979079287
0,412228893073475
0,415086206041835
0,407728707895592
0,408025369094991
0,435002162754734
0,403734125804191
0,426203154622766
0,419182853345454
0,449152323620168
0,421820047557983
0,443201496918813
0,435693527809456
0,44154970346011
0,435227426083458
0,451813368161237
0,467622726747339
0,478913367004659
0,472778248432828
0,451871090975536
0,480511753047321
0,463030540730593
0,477023681008886
0,482000176997499
0,472099722886893
0,499948997532821
0,481829375911896
0,518483344108651
0,46553497796427
0,48572544036605
0,486882794240234
0,523334038145275
0,499863136366316
0,504109216250667
0,490230436179648
0,527150976571793
0,511515148968303
0,527676294205744
0,503527528460333
0,544773644781301
0,549538860067897
0,543943747806786
0,506305215349925
0,534548821246648
0,529167585790979
0,570683206143296
0,530106462365148
0,543348330700149
0,53312479005461
0,592006132727373
0,553407256403921
0,593025855576691
0,527386685476792
0,598349435123106
0,547041097261004
0,597572907881034
0,592666109252246
0,63270042288578
0,57220086707847
0,587597619708916
0,563266439003659
0,590656581531811
0,609578882896413
0,617778516231603
0,589517191209604
0,621493224564512
0,590959682925562
0,661777241942443
0,603688304686504
0,640493394183585
0,619112326421554
0,65340733961372
0,609571226788875
0,619456899801393
0,627583447037006
0,655142179769253
0,624286391041965
0,670136208729206
0,65966385495031
0,704250090259544
0,675183185897592
0,656889604958832
0,65286366522831
0,685312218520764
0,685527191183985
0,708489328991123
0,6368395400193
0,689882312652877
0,693461627963702
0,730757355370331
0,674482516713071
0,70444057666262
0,680287884898792
0,717367468536536
0,692702119240925
0,739634101233296
0,735910340001833
0,731925932575268
0,679428064497933
0,77935282773108
0,748068133273701
0,75175336473054
0,737338520970013
0,742325942396281
0,717223276486166
0,766009912568192
0,712902392558721
0,780985471180508
0,743144372816462
0,793996143021315
0,744321128273038
0,811751082012123
0,736901150087229
0,804246081628756
0,79594440472081
0,802599708917375
0,739982221162469
0,771643150771824
0,776273453781878
0,84756889389821
0,783539825678713
0,814424540286256
0,820897582141569
0,823735863111708
0,771220558477435
0,820465722484417
0,809205959314586
0,847649840134937
0,779404368887066
0,847468289861073
0,816622678510342
0,883544980910265
0,83064469543715
0,883454462734994
0,84407050609644
0,834514330743031
0,848694522495215
0,879484947641319
0,862676776330334
0,881377372893041
0,861678124956976
0,857395890175116
0,869864181223174
0,907007722440335
0,849279356729915
0,891326249682295
0,812282734295898
0,886285560363289
0,860493015887974
0,978440999736095
0,9113076715478
0,933540102672135
0,869183707545639
0,937526542214602
0,940214633092594
0,951422983612336
0,89788943008895
0,975286184887463
0,892554915359412
0,970636379376518
0,940220765035501
0,969109949790375
0,945275043686398
0,99799915554136
0,9611570279309
0,995757014409106
0,934414916829171
1,05993390191981
0,918485419799313
0,958352631381956
0,950044191123938
1,0258074456006
1,00256348971373
0,993595709294675
0,989705675426634
1,03509113389929
0,971783578885495
1,05387891437928
0,982151077265394
0,977500029584953
1,04366154112219
0,99873343644737
0,981866564173017
1,05377707533776
1,02115044035182
1,05885053353034
1,02025219494471
1,09088497906114
1,03296147423817
1,0798652082666
1,00098606300464
1,08494012524224
1,09428163864545
1,07507397281666
1,00843099374348
1,04721482063467
1,0337605380121
1,03722090819664
1,0501783204409
1,08430328325366
1,05169798808251
1,09142121890322
1,05888636826578
1,1217956992279
1,06178109180437
1,12746653005374
1,08753095829458
1,1284166287527
1,06304270205327
1,14528341779888
1,07346077213788
1,08815143378509
1,12317912537755
1,20296205142426
1,05795868582144
1,10853340129973
1,10407692025282
1,12200577578724
1,1079952656342
1,15099159402372
1,14107881410949
1,13575854774584
1,11896485025171
1,17001709111289
1,13412378407449
1,11774323074015
1,09195375948452
1,18319249256606
1,12141861544764
1,13536876303918
1,08853549896893
1,13199113644808
1,12141353292074
1,21987857223901
1,1458588523515
1,13829090985961
1,09264666247938
1,17551361045764
1,10719358056979
1,17243168482522
1,07612896517676
1,16694621131504
1,14107917507528
1,21923311367052
1,11398768094673
1,10350020494152
1,11898932682319
1,09918192773818
1,16372199444385
1,18855892771874
1,11750745490324
1,16567255417307
1,1424862903268
1,20608926903268
1,16232815994054
1,21474038231788
1,13448445535637
1,15666785673039
1,07705347219323
1,13712018547039
1,10232417860606
1,20937511788007
1,14043522611031
1,18088918926704
1,10973622229296
1,22409036395465
1,12924939304484
1,14283983769536
1,14474910326703
1,14638391661627
1,09118069619947
1,13773884003934
1,20067523268804
1,17620336072292
1,04414926291822
1,15195990992983
1,18482348572973
1,17870071216344
1,1816426677198
1,17241490386297
1,10599081881948
1,19940580934484
1,14735962518221
1,18602670382077
1,16548251571049
1,17706604389397
1,09121651047152
1,16440357159552
1,1410578547416
1,17592783001197
1,11949688153745
1,13525189912606
1,12639086286134
1,16916222631712
1,16805892924
1,19233882798425
1,09923354387184
1,19242245057301
1,12872716359594
1,09753055024815
1,12698977733517
1,2116002844884
1,15795676260743
1,22413952852554
1,17866250119504
1,21124785880101
1,09114154653079
1,11221036585459
1,14595268437423
1,1845315033625
1,06956593021244
1,13493147983442
1,12050759729664
1,12717692525093
1,15191596163718
1,18324552096085
1,17209464496652
1,17509103865749
1,13854216182442
1,20439030032818
1,19480615286568
1,15443070782702
1,18727268177814
1,19599968643258
1,15876312144418
1,20258864392206
1,13262685231245
1,14454252362007
1,15413895293656
1,16671244955813
1,0947887829636
1,13315538176422
1,16185686126165
1,20251863422635
1,14218455810061
1,10061785903861
1,13941908181757
1,14490146786705
1,15712501330051
1,16688220704671
1,15858587697497
1,13726635945285
1,11462725918894
1,18506849964409
1,16636651195604
1,24883414371608
1,1907103329835
1,13720208599911
1,08131997050592
1,12063676441295
1,11155545849945
1,11347346354844
1,14752094588014
1,1994418175256
1,12181077074964
1,14382900772517
1,17306194004888
1,13908444022906
1,16692750693833
1,15012141621483
1,10375032952499
1,15766309486829
1,1488349330727
1,15504654248626
1,20395974516327
1,18456956141415
1,11879126285293
1,11947591208242
1,08931065964807
1,12620924811603
1,14734974429525
1,15847215828368
1,1129505728029
1,12446383787026
1,13873417995039
1,17060285700882
1,1624785314179
1,16623448186014
1,13060035505833
1,15490793995904
1,13443866000579
1,11143449379832
1,0984549180671
1,13888826025293
1,12989453716694
1,14981837293578
1,10255266331435
1,07782838939192
1,06424018451599
1,15338973712968
1,09991051585153
1,06169165241662
1,08989938691337
1,08586864611027
1,08902264714038
1,09196238909272
1,08689078046731
1,10327569532157
1,08793583915032
1,07212266155529
1,04036991159215
1,03828427279965
1,06245499649868
1,09227135113922
1,05612249918385
1,09042263564506
1,10846623781409
1,11061674883924
1,06307001987754
1,07107305368788
1,07062545198083
1,06163590737996
1,05484217494482
1,01875077920017
1,00939461251674
1,05510636590946
1,07199438995751
1,06621453026933
1,04922365530819
1,01628514428878
1,02732142003665
1,03567985357523
0,999445579114779
1,04034711639685
1,03070040703202
0,991133145817051
0,96131690527139
1,00968431993487
1,00116753550055
0,986802217657016
1,00952685308187
0,999317919837337
0,980675394177649
0,968813288707945
0,965335837388701
0,963765636536092
0,968165453661246
0,971851621727902
0,947340801856282
0,952520291175511
0,949171814451542
0,973375004752344
0,93706231003735
0,914275442587692
0,947254963518811
0,953552010232411
0,916154797666087
0,908777683408821
0,921639040154252
0,902216146526456
0,873623002805796
0,904470785357603
0,891607702505461
0,892653314468398
0,878341615307667
0,87086158645809
0,880818836779013
0,837817920026003
0,838025271404338
0,866673520448548
0,858319025595961
0,866274007561016
0,871272660920557
0,869810164579065
0,837273346770941
0,809112180897298
0,818592351893434
0,834482078452512
0,823658640016254
0,802844820417434
0,807128118026342
0,814679810021029
0,810880446591697
0,82462466052673
0,801081621731083
0,780586395936391
0,775799158360026
0,789842588117101
0,78452972882075
0,774422962128028
0,773696622385631
0,769291847755611
0,780649359980141
0,766172399860161
0,743710165302052
0,761392549894695
0,749317554031513
0,738163139009161
0,75088330560578
0,740478894387038
0,726727428710892
0,722294260442255
0,708330331691536
0,703032079484115
0,712805762794614
0,704069317913907
0,686471058513676
0,672093209053757
0,672122318906961
0,684026465659235
0,671258551678242
0,664822186738304
0,669001763685709
0,67310272000698
0,6703385847907
0,670392851939934
0,656845990497259
0,642033776520215
0,637859146482808
0,64226168312427
0,638714241803022
0,635724763650112
0,637654673142143
0,618149698321277
0,619001094770008
0,627477676608414
0,607673589041542
0,601620964393969
0,608523004125147
0,605625774888335
0,594639943253311
0,592283441463475
0,594972023614567
0,597082062220638
0,593466764345123
0,585141105031255
0,577291943002386
0,560854754137928
0,565829806516292
0,570201872531622
0,550375617103789
0,54561309668081
0,557143248292142
0,55801513509951
0,542811769827944
0,536760298525782
0,535600325202293
0,532656482737392
0,540076198223131
0,527298895986399
0,519917801471564
0,530503289132413
0,515455408968843
0,502572870698395
0,510588415128926
0,513128297897155
0,503319492124685
0,498513279462714
0,497274133916978
0,493045520878837
0,484356422533968
0,483111910873801
0,478576974098952
0,478721503211889
0,476986985891582
0,467831481969207
0,466905032938458
0,460821258132611
0,461625901878297
0,468022315757179
0,469046384202374
0,460363274736955
0,447435790780423
0,454308533998103
0,446976035195106
0,4385479812456
0,440564960425729
0,434791846721188
0,428308606637519
0,431877454934105
0,420741645565634
0,421044830464118
0,420871477031128
0,417229118774798
0,413792177246064
0,412027769644489
0,416540085199766
0,413690537177834
0,404476869705662
0,398832739183104
0,394323303483005
0,392497393895631
0,386050918211441
0,393134291466492
0,386541831643454
0,380576303917527
0,386136685578391
0,378206687860107
0,377209133626665
0,37956627954014
0,373894975997133
0,368747108824775
0,370279449651257
0,362574094036391
0,360436319797617
0,358465393499269
0,355655907723172
0,351538496380996
0,351630035739175
0,34953056294391
0,348273352579087
0,341268502627099
0,346782595303077
0,34525324609541
0,336198260453592
0,332947893294662
0,330622054920103
0,333333492848297
0,328479158184502
0,318476912869118
0,321301240704093
0,318603899586469
0,317405026642191
0,31402177130614
0,31169840391468
0,311717517205381
0,303035257338293
0,308354758048559
0,307945711266795
0,298845757481918
0,300385429970522
0,298489635614455
0,298691999831456
0,296429474665627
0,291272874738573
0,289707022821659
0,294179770373074
0,291677600809798
0,284355657743201
0,283810693967215
0,276608470007727
0,276428148168333
0,280567835107373
0,275276837419303
0,272451688126501
0,273435620131974
0,268025413611077
0,263581606786723
0,264908520592892
0,263245104501852
0,262500650429123
0,261121337979613
0,261138202595264
0,257625121993431
0,252583401180641
0,253789457298708
0,252270414012539
0,254116981002597
0,246563347686373
0,248380349467137
0,237610963014136
0,237981777829486
0,245636020820815
0,243200126591711
0,238751452101026
0,234820104087103
0,238894465047052
0,23474526211881
0,237207825156587
0,234833265902089
0,229960224667699
0,231720119768156
0,228644261060492
0,228157337334538
0,229448282103052
0,222947118279453
0,219475056768592
0,214457646836194
0,217005727808434
0,21807363593866
0,216527603451898
0,215001578325707
0,209181872635408
0,206620030795568
0,209714412666473
0,212634370529072
0,205301466477558
0,211761441602181
0,208760616917344
0,205017178021794
0,202689846236285
0,208234506613414
0,200778007676878
0,199869517791428
0,198063212292076
0,197253747356122
0,193878302727338
0,20073267157333
0,197203339937508
0,190710627592743
0,194374044334456
0,194803087304212
0,187827927104
0,186963706238177
0,190689547874164
0,185049950224678
0,186321935045345
0,187553657628886
0,180816020516018
0,180031814797691
0,179436001259099
0,177553613912519
0,181059352697849
0,178794898428571
0,179311743112601
0,175048556592022
0,174362510601085
0,173483875367452
0,176355668986125
0,175094175986282
0,175567891858145
0,169803131816921
0,168572600460133
0,172291441235379
0,168232282561931
0,16499630248358
0,161776753396873
0,16641442412528
0,163618970717077
0,161729934859591
0,159106520654316
0,159477253338266
0,158759321757153
0,155067614833017
0,152449786630965
0,155066793586497
0,154683751451501
0,149792169450505
0,153443067135521
0,149790032307687
0,151141777620322
0,150371600450642
0,151285720060517
0,148706195177084
0,150258584995759
0,147931784057219
0,151289454021825
0,147437825820228
0,146714111521594
0,144920938519228
0,141185958754158
0,139320590760885
0,143048385688373
0,139020929688891
0,139364265116903
0,140129079667631
0,137562276180591
0,137133629022397
0,134630404233648
0,135192115460245
0,135717861699761
0,135940371165794
0,132744548830973
0,131196871527785
0,130828407503232
0,128573931325507
0,130813767621046
0,131440500739185
0,131262345868707
0,132427218891602
0,129934293783312
0,125585957924316
0,122627753004331
0,126828312104023
0,125205226671738
0,126441998508875
0,125019447520088
0,124396636151314
0,121671772265281
0,123028701281006
0,119497007062292
0,11791262439446
0,118229264524227
0,117525966167208
0,123301995751068
0,120406379400746
0,114454188978616
0,116801369449821
0,11612142849394
0,112880240507991
0,11470642792846
0,11231478209177
0,114667816530521
0,111029688084376
0,111870606315169
0,113232300365189
0,108721170554449
0,10772105164574
0,114158897537586
0,109845622150848
0,106142361099396
0,103620490703841
0,107790803359388
0,109636756154781
0,104350456702472
0,107354816538044
0,10543189677329
0,0998621232115857
0,102291628796047
0,0992254751051515
0,100438127650036
0,0981677056178465
0,0978247054005273
0,0995547577780502
0,100760103677093
0,0975726913820545
0,0938339242768995
0,0950413712539459
0,093873990188854
0,0931095564001343
0,0969844633820098
0,0957643445824664
0,0945822661799429
0,0971047817209369
0,0953511626259457
0,0927616423751524
0,0929756061552756
0,0939916891443244
0,0895631791368801
0,092678290347148
0,0930909961954108
0,0900031174414199
0,0887712997381846
0,0878216430006001
0,0854361733263502
0,0846485086973575
0,093294441234126
0,0866150091741269
0,0880732726724695
0,0902223116286457
0,0879885919262262
0,0849028270739328
0,087991664399167
0,0859021231350765
0,0885745180015464
0,0853598634626471
0,0847531374884672
0,0845873264466056
0,0809617551383281
0,0783843705875159
0,0836713334924878
0,0816479023645615
0,0822366404764923
0,0807299132231246
0,0808228183680772
0,0813831787265892
0,0790654403359952
0,0829986659563735
0,0829266972661697
0,0776101458199542
0,0791654763817895
0,0756827302580163
0,0789004500283028
0,0818325333078369
0,0790728429346522
0,0756497659528778
0,0758762436531555
0,0764333339733763
0,0740908267884643
0,0752738025069197
0,0776560878952523
0,0754228080563546
0,0746917958714556
0,0769902801928749
0,0763146229238739
0,0745100867073822
0,0753492463907693
0,0717871789701532
0,0727827094806434
0,0749159659998767
0,0727514391810415
0,0753497182949959
0,0741243188419678
0,0720461256831113
0,0767014038854969
0,0742641989391388
0,0702878010147269
0,0714504500576326
0,0748632759789089
0,0741264087444406
0,0706201752731995
0,0713297278936694
0,074316436059072
0,0679228740871147
0,0675634549957007
0,0724989433772618
0,0729675378441556
0,0672620411861249
0,0700381706821431
0,0676425974658804
0,0696123571451219
0,0676137361050385
0,0675881129917221
0,067586832823246
0,0688981921906432
0,0665416095152393
0,0661495256101827
0,0677306827399527
0,0669922547999923
0,0679796633199307
0,0686104900895857
0,0688012240771595
0,0663255073529066
0,0688073864026234
0,0660229321723677
0,0667587765671213
0,0648317268130788
0,0643601334566533
0,0653980927703654
0,0656320181024416
0,065891586798828
0,0632752008548019
0,0660189699086885
0,0660450492057191
0,0635996618128143
0,0639644450827987
0,0619532454882813
0,0598616921933691
0,0652330531298768
0,0639208308741681
0,0654791739011817
0,0616374642355405
0,0612253613575238
0,0597986705050769
0,0608318009904312
0,0630208275637706
0,0632255069771752
0,0642246755084351
0,0619184452360386
0,0581083767019525
0,0609928341497011
0,0603813568363823
0,0631036094485493
0,0615052624224047
0,0610973938721
0,0656720146300609
0,0612409064194584
0,0617058195535073
0,0629163840738879
0,0616413172762081
0,060665219730492
0,0583838120897112
0,0610073489103019
0,0578135885795994
0,0627280982146528
0,0611010856354685
0,0607936390746104
0,0596214845007845
0,0590856999381022
0,060085707037525
0,056406894243949
0,0549979328256001
0,0612805647701912
0,0637927446598678
0,0623771639609969
0,0580652671227672
0,0561932393010066
0,0580793445126266
0,0599591109607806
0,0577844878805567
0,0622285315044782
0,0573565831780425
0,0565091823687788
0,0592612108412405
0,0584787501596431
0,0554353339409358
0,056997318425371
0,0563966955756472
0,0577688121041117
0,056025776398555
0,0579256121728508
0,0587678284180081
0,0587745060877267
0,0599186513543738
0,0515537255171596
0,0572789368239243
0,0580949659265546
0,0534298452358652
0,0571955276475321
0,0568850191635736
0,0562702711996252
0,0518206162416172
0,0556020229601244
0,0546426693254626
0,0590456584058369
0,0539286235130555
0,0562052172482736
0,0549716735114507
0,0564928478427298
0,0577416233302507
0,0555406537360718
0,0564043312772333
0,056672090843734
0,0545856195612792
0,055693530722272
0,0553143607410643
0,0522959716114038
0,0547139528999436
0,0559865505087159
0,053215990382858
0,0557065961359537
0,0528920834592274
0,0538121029831883
0,0542966093172603
0,0593204037613412
0,0546546253771342
0,0558673238342229
0,0541840117377251
0,0542256634272106
0,0512689303709852
0,0520560638444214
0,0527190281462977
0,0541708125444794
0,0518865373470894
0,0544920277732633
0,0527001143911462
0,0506399685384523
0,0501262388514464
0,0566499614978561
0,0540474951158814
0,050760437021677
0,0519620321793483
0,0530217987540193
0,0508646098445396
0,0538879987111462
0,0521506609482198
0,0534291212025262
0,0511874667359331
0,0504991873386702
0,0496684720174681
0,0529058220991781
0,0509892510534004
0,0544952267436937
0,0520520946204731
0,055839929814111
0,0484559073141057
0,0544095187760669
0,0512337248069759
0,0539729621106015
0,0515230206042984
0,0524222831665851
0,0555308421195673
0,0559881247957474
0,0512868995907855
0,0529695850078081
0,0553119318961377
0,0518157480721984
0,0530179913068346
0,0525216820329842
0,0509191235969904
0,0510905438262062
0,0540074408248643
0,0494575333472366
0,0495600382614864
0,0550133840377846
0,0533038103172358
0,051805474132022
0,0506289920198625
0,0529055829465023
0,0539724045608551
0,0518800899343121
0,0534112202668229
0,0517651700711533
0,0506362050381321
0,0529148454295573
0,0502281420979413
0,0536713304747763
0,0517664532144706
0,0527481442126663
0,0511873661038987
0,0540859062976796
0,053036437873686
0,0503715850727559
0,049093553484618
0,0548583892129824
0,0529316036533688
0,0526212194919373
0,0533188218683592
0,0495402147769679
0,0517433699670259
0,0511933946667082
0,0513610180949133
0,0517915117487669
0,0520709165517513
0,0497420473133303
0,0528223413287433
0,0554142208639343
0,0523082168449091
0,0530070429709143
0,0489444529584405
0,0537855488177125
0,0515822835890723
0,0527690779208512
0,0524165189562845
0,0488280315858249
0,0539409862444694
0,0548274141235534
0,0499890207881339
0,0543250696875868
0,0539235275288927
0,0536277081902086
0,0514006526963658
0,0552123863527912
0,0566111541890836
0,0496382992690707
0,0527910846093721
0,0523525015867187
0,0524354145143824
0,0532023069818268
0,0522290967931985
0,0522860512363729
0,052364642178753
0,0526745400811589
0,049183460397662
0,0544629508118489
0,05134230092921
0,0534281463619621
0,049493366906486
0,0535895868423765
0,0527693855367242
0,0537112075947402
0,0542151785595005
0,0530055547055589
0,0523306738718177
0,0551298548647365
0,0547377143217775
0,0536734195049629
0,0531995062238079
0,0534241567676458
0,0527757143971468
0,0525038466193549
0,0544571865549342
0,055044918645926
0,053244566166983
0,051827771614073
0,0566827946636637
0,0534862204284568
0,0566620781047929
0,0533165731507912
0,0519688811509785
0,0534815779154142
0,0513926849904171
0,0537953092602193
0,0549436605165993
0,0550174459064889
0,054471427170057
0,0536581249515238
0,0550585412534195
0,0541635531834138
0,0533957677805339
0,0550430488506503
0,0532377314437887
0,0551981603765176
0,0527580673890403
0,0544422796227493
0,0539179104584184
0,0544364532395969
0,0551421975269378
0,05652044758791
0,0567346953566407
0,0555393140271212
0,0556975696687628
0,0566870918604476
0,0555360621548538
0,0570599098838598
0,0536055919525757
0,0577156706109099
0,0542095162309812
0,0546183597647184
0,0551761804946347
0,0539104761199818
0,0550011092689378
0,0555367975471568
0,0552644715937895
0,0549054550869148
0,0565270835660374
0,0544711617787004
0,0557333917513275
0,0567971653438973
0,0544948392834421
0,0586222539861446
0,053758947341887
0,0600370752754037
0,0556013985820217
0,0556825357219701
0,055768793862764
0,0600513003924317
0,0577574279652589
0,054976294664505
0,0551529937417684
0,0563592212766973
0,0587904455956481
0,0582971727215515
0,0565692843089435
0,0551877917821088
0,0570989202728091
0,0557396935280744
0,0572328375434837
0,0565984858655189
0,058078489730046
0,0584845484195706
0,0558098763965478
0,0562688004696364
0,0558373772315758
0,0578006265956771
0,0573727510807093
0,0587707303437469
0,0558578563242459
0,0564132355723874
0,0571183233969784
0,060340802563395
0,0586208612959466
0,0549979085347783
0,0595169398099871
0,0603462473625856
0,0607955218571979
0,0580932722950322
0,0553379862729162
0,060674540840065
0,0583463007253026
0,0569314134237813
0,0587024121964863
0,0599620937140014
0,0591371546918274
0,059959909985781
0,0591006090346486
0,0597805130220448
0,0574845813675484
0,0603467202446768
0,0584446996879638
0,0581740983937504
0,0595636104657428
0,0590573531804869
0,0600282396161067
0,0620215731926014
0,063338672910823
0,0612060442213997
0,059968258063591
0,0601269306457638
0,0590091063869502
0,0622814177591482
0,0629824357879381
0,0624831072751871
0,0608089936151274
0,0593882720215783
0,0616863258764018
0,0637178991294737
0,0605664336854732
0,0607223773876406
0,0605936858450727
0,062885409412215
0,0612908006760114
0,0613398647498193
0,0610853146538805
0,0637366586242321
0,0617869393817336
0,061799224162954
0,063107980476213
0,0601604965258405
0,0603203553212072
0,061615569055598
0,063752329784022
0,0628044024828629
0,0629643252207516
0,062492522469414
0,0591256209926063
0,0619846277457646
0,0634536383642493
0,0626877313511276
0,0647456238792943
0,0623587701378453
0,0656009629588686
0,0619040789546682
0,0630260789430483
0,0628667371991438
0,0626980274179266
0,0658892681178885
0,0622840672443595
0,0645749904503205
0,0621389099601736
0,0619472440692845
0,0641104400332865
0,0649382438820563
0,0637467541939477
0,0658240175390464
0,0638424244819784
0,0657977925457172
0,0641699534802838
0,0666727293028859
0,0664689480446426
0,0661516511743205
0,064838212334777
0,0650155672435693
0,062947696546845
0,0649542425647034
0,0670924527088658
0,0648622488609311
0,0652267953890068
0,0677397896585893
0,0650927802058801
0,0653429346821725
0,065453450296304
0,0642510774483062
0,0589400555136839
0,0651231145174393
0,0674476419009877
0,0691656926267151
0,0678596771144307
0,0624464790125354
0,0643337951867309
0,0674454000527122
0,0632296657485743
0,0646795541982337
0,063955142795315
0,0615190356984374
0,0614449710588137
0,0641282350865622
0,0643061557417173
0,0686737643835383
0,0699736835325026
0,0640551907910323
0,0659643841783982
0,0671323548977668
0,0679246236139516
0,0682555781909048
0,0696100241068017
0,0689920779139117
0,0663876386079447
0,0694361164785912
0,0691760153555323
0,069636445650927
0,0683929028315798
0,069530744098843
0,0719695877429908
0,0667950566815639
0,0739887040089995
0,0706529919491536
0,0670064522544709
0,0674138537023321
0,0731730357316912
0,0680694886203179
0,0709416419195875
0,070759911297607
0,0726273070204336
0,0671849710320512
0,0779634094222169
0,0671058975354299
0,0763240551910795
0,0627944961255662
0,0764183851896759
0,062577087518388
0,0767995106255909
0,065978371386197
0,0829422392125598
0,0614850440332937
0,0782147469630398
0,058589965887808
0,0887149901754398
0,0634615478438428
0,0828356161973053
0,0629444662663155
0,0823378543275003
0,0711551375642393
0,0771172408435821
0,0706660953676403
0,0758585427461943
0,0735918302973846
0,0739890678407385
0,0771095553340531
0,0734606075159838
0,0795382590000858
0,072167275593239
0,0791145173195572
0,0727928785009734
0,0780080644889862
0,0745395864135746
0,0770450217971546
0,0791522535319376
0,0739407244916744
0,0776720123745923
0,077141126207071
0,0782371140647926
0,0783972791984982
0,0767745408481108
0,0797689277809755
0,0774232845536252
0,0803981183480889
0,0781101846200781
0,0792033497403445
0,0775553480907557
0,0816145298356852
0,0793127541400912
0,0813342587202529
0,0789684932932833
0,0800969457416688
0,0782230814751969
0,0793478842547398
0,0786068677307775
0,0835330216061319
0,0790645167568983
0,0788025749900601
0,0804536195751393
0,0821078364089724
0,0797317296068416
0,0823426032680911
0,0840529612786739
0,0827438683390117
0,0815603316465644
0,0839914389053109
0,0847278819619339
0,0826704536555539
0,0813178287984587
0,0844670551370144
0,0812070928200822
0,0855305794300213
0,083782161161454
0,0843574446278241
0,085637163102622
0,0849694657401145
0,0828603549435487
0,0866471786649623
0,0826639465622387
0,0864700629362575
0,0859795672651752
0,0862374316924506
0,0852744764692387
0,0869016732124527
0,0865237870664028
0,088702279969291
0,0874849558392695
0,0870859327761422
0,0878710399257624
0,0868493052234283
0,0878184656619223
0,0914852046916292
0,0864036550130158
0,0885557033648106
0,0872885965565504
0,0866708319397731
0,0897200341850124
0,0886668132839887
0,0883090050215898
0,0921510052213742
0,0883373200265209
0,0915860711106017
0,0880740608812672
0,0888892767718608
0,0900303691066552
0,0919112619504266
0,0889005887126813
0,0928957482382965
0,0914289767551471
0,091179924240456
0,0885293787564929
0,0912173466280981
0,0918884129281243
0,0915338380007541
0,0925972839304724
0,0959819532062313
0,0932618207705821
0,0962084716053778
0,0961054147603668
0,0931507128994339
0,0922277166834473
0,0945429593740195
0,0926669621158102
0,0950173093775014
0,0950668863165573
0,0953511119228771
0,0950898870735383
0,0955579304287136
0,0973499082406829
0,0982010113031277
0,0943104029647993
0,0970812196486965
0,0957713414582121
0,0971370157848676
0,100645857245704
0,0980842156177129
0,0950273646808541
0,0981076337090993
0,0974753235865653
0,0983842079369121
0,099003814202533
0,0967500634014078
0,0984445481395154
0,100074672840646
0,0959853875426672
0,0998324972583564
0,0982653623934342
0,097269830130188
0,100907278398098
0,0998254697117866
0,0976426409794684
0,101742598784307
0,100101758758711
0,100855781776699
0,100799052124852
0,101076120364628
0,103163645122781
0,1007200686755
0,0999928260213857
0,102072957851126
0,102458121898096
0,103539137830996
0,0994187763952806
0,104207401702248
0,104525818202007
0,103296066118288
0,103926024754081
0,102356652393541
0,101641126452508
0,103927781382913
0,103191044517565
0,103598714707676
0,103708781399729
0,108480473497834
0,106965373323749
0,104228230789747
0,105127361808967
0,107226518888679
0,105186195123442
0,10519087248748
0,107787159184202
0,108077222524496
0,104950420437642
0,106226946980607
0,106381031669175
0,105630788356143
0,108268350442107
0,108272443578434
0,106075592323986
0,108069693103587
0,107336554131838
0,105400558602778
0,106827053208203
0,10732385703488
0,106348804509533
0,111151296474142
0,107226285680266
0,105993757065106
0,109278956621615
0,10665548793367
0,108837978521458
0,109667106346442
0,106713831161694
0,106504323058707
0,108848591542637
0,10919598685588
0,107560279029245
0,110529651087691
0,109692989786937
0,10805755796835
0,108661623808623
0,109406602275595
0,109499285715036
0,111478188105064
0,109057833176551
0,109347880626176
0,110362228175643
0,11207834140056
0,108957038186036
0,109548088187188
0,110408603398701
0,111023147137393
0,110773056941484
0,1111219209949
0,109644337546605
0,108402329047176
0,109690117027352
0,111766538243262
0,109906754254714
0,112132819190777
0,110397671185368
0,110645806293445
0,113935257119252
0,112869648329548
0,110681199393661
0,110804949964247
0,113055150097789
0,110938753264129
0,106344794429975
0,10945908959113
0,110267532211269
0,107692057257715
0,110495477804588
0,111351868058485
0,108874372570139
0,109071008611406
0,109210432217336
0,111608196361225
0,109688706017665
0,109368151141278
0,110778079897202
0,110764686811367
0,109788675594077
0,110951215977004
0,109538580755607
0,110262228632945
0,110552825867044
0,11059519683358
0,107451913402096
0,109063709241246
0,109193959383495
0,109585511011387
0,107413311178566
0,108888257474333
0,108436651801078
0,108783071669058
0,109072051640796
0,109538489859466
0,110071601807175
0,109676182761621
0,106564390875997
0,108576221150214
0,110049308139803
0,110536913722455
0,108599972287224
0,107887871777041
0,106173410908233
0,108101532553532
0,107622474020385
0,106571355684284
0,10510544446586
0,106896828322878
0,105716203424837
0,105651210671592
0,105964196252389
0,106012900488945
0,106739983160011
0,107173325577586
0,102080759953881
0,105123017264677
0,104292558862142
0,105637980893543
0,104923754800149
0,105584699708038
0,10661251527353
0,105938735686218
0,104433366352901
0,103102855032637
0,104379927098857
0,106287401651744
0,103027071676607
0,105206955331041
0,103464449296596
0,103802199792741
0,106030742195467
0,10588112270134
0,103710057886228
0,102530412284474
0,101663008759412
0,104657057295436
0,103417774048012
0,101691835474667
0,101716828799658
0,102505621569823
0,100884832164479
0,102351936806011
0,100849795704639
0,101057777766704
0,100008223050488
0,100538041160796
0,0988238665078492
0,0995372742573346
0,0990062337340271
0,099056335795893
0,0973848777095386
0,0969645619557166
0,0984894374915217
0,101635617780907
0,0982644561547555
0,0982491516897038
0,098223756023033
0,0993366256288711
0,0962835281957755
0,0955697786336208
0,096673860820642
0,0951746916427963
0,0968121543049756
0,0969807856582347
0,0949361904454441
0,0976710330569763
0,0946578482988368
0,0946181593445152
0,0919183779326696
0,0964322156499607
0,0964351567864908
0,0946988662858867
0,0926922954392269
0,0924733751195828
0,0929644461825982
0,0930239769535133
0,0930150301750991
0,0930356514512291
0,0920937572374995
0,0928876093977945
0,0920749174137719
0,0918490261721702
0,0907247473653996
0,0916961631320573
0,0896091959445123
0,0919048385274405
0,0901270591934316
0,0897674967167836
0,0899134453397934
0,0900699609291277
0,0896910600360099
0,0878318827036095
0,0893835248062792
0,0907144888968729
0,0879017920600735
0,0882319802719734
0,0900447372807836
0,0886850097369746
0,0897748395843352
0,0871994689250734
0,0859663205974016
0,0872892243659928
0,0881776505846848
0,0868714281074944
0,0859501911867992
0,0870421621585593
0,0852535129285002
0,0857842378779576
0,0841526808138297
0,0845444741525115
0,0845551610467317
0,0856179090536659
0,0864161286088568
0,0847435351685382
0,0848015226018773
0,0838929445561147
0,0840545679872644
0,0840592035901054
0,0822027669625215
0,0833484406569556
0,0828478770347094
0,0828786338852116
0,0836583681240632
0,083776506864409
0,0834659930953937
0,0821352544987757
0,0810831932807208
0,0820457550580933
0,0802684253905338
0,0823401509595218
0,0812009810401623
0,0822133297047834
0,0815548427338881
0,079430965355919
0,079418635904069
0,0796420722359912
0,0783034589001796
0,0780047526146236
0,0790115335648963
0,0790041438520399
0,0784250311751651
0,0776982643744499
0,0780299218175208
0,0801635373385769
0,0765156505018092
0,0786893932572534
0,0781501778355621
0,07977156551569
0,0743154206298781
0,0768072557991551
0,0762499721219066
0,0773784278553581
0,0767031834030165
0,0763029117608469
0,0765192604853962
0,0753765952372985
0,0751870464800634
0,0784418890723096
0,0758341918907636
0,0746504298473754
0,0752310552008856
0,0761303052067518
0,0746094252261924
0,0749074689917897
0,0737745473508974
0,0737048819707257
0,0749349075134654
0,0757153583993361
0,0733890917547011
0,0741910034187384
0,0753565135731153
0,0753828296693683
0,0735927929808683
0,0769763245372363
0,0727967946002411
0,0716767642546718
0,0743548107682767
0,0718201724908513
0,0743520055411576
0,071917924984132
0,0728500969159309
0,0738674662419106
0,0737641912797938
0,0718659958416154
0,0732147442042156
0,0706738878705743
0,0721955135564975
0,0734321255196349
0,0719661754057955
0,0724604507104441
0,0715703616866138
0,0713518907751371
0,0718428710497551
0,0717874293198012
0,0741110015852777
0,0722490243453876
0,0706331238589568
0,0704507895336694
0,0705347354073137
0,0712587781171236
0,072408074353382
0,0691095076626214
0,0724985889652005
0,0717897107184262
0,0700196947664685
0,0690359800147258
0,0700251765687363
0,0689561216113349
0,0703415982187448
0,0714406821363883
0,0696998182917042
0,0693126746720548
0,069473575315554
0,0692661786272846
0,068840093018896
0,0709863098550603
0,0712374136473122
0,0709375661084
0,0685453236215786
0,0705615437105018
0,0699577315511533
0,0704988967912504
0,0713146568382683
0,0696663953696462
0,0707431676628132
0,0712797955872938
0,0712337794539084
0,0713760202867742
0,0713694680490053
0,0700133143438672
0,0700764145730793
0,0690549382095688
0,070672406791397
0,0692164077202784
0,0719318772556233
0,071282433968746
0,0702680031734728
0,069254159465955
0,0704849787227284
0,0696831438570876
0,071015005857101
0,0686365843883662
0,0710782958132212
0,0708452291518965
0,0692573049697629
0,0699034325384525
0,0705430046090489
0,0712184864993302
0,0721580417050361
0,0725635210307702
0,0697113138162151
0,0731525509747027
0,0733611659576592
0,0724176136346302
0,0680480577837181
0,0734187884493523
0,0704367786136899
0,0702236124609608
0,0698779461262034
0,0725591780861052
0,0714309885714743
0,0704772813683597
0,0710127732525857
0,0719030145285918
0,0713820663589767
0,0732740489689356
0,0725102738889661
0,0747921576594768
0,0757607663858101
0,0730208900573081
0,0723846051160325
0,0748501661354234
0,0725032395235496
0,0740964774954143
0,0706273743898998
0,0722689442536417
0,073475502523503
0,0727967157811508
0,0730172157690816
0,0720206968045261
0,0754424723862693
0,0758349084675486
0,072932155618928
0,0738099763195886
0,0758646280419995
0,0731619814465437
0,0728243982847032
0,075123727909576
0,0773399191802676
0,075254967429381
0,0762427800294316
0,0745549364827164
0,0750185680252113
0,0755327741716999
0,0773888308922248
0,0759197612433576
0,078639849974784
0,0810442686787406
0,0796802800819759
0,0800807730720012
0,08215561131195
0,0777599657652982
0,0776142471124068
0,0795931792296482
0,0822318919006642
0,0762772094572353
0,0819589162774258
0,0811127220536958
0,0833150766088613
0,0802727272515008
0,0839839950733831
0,080249875781922
0,0810703754632656
0,081819191037995
0,0827599532274946
0,0859330034103169
0,0822556932536284
0,0844414501840016
0,0798894553157563
0,0863891279344397
0,0837158536747462
0,0868285652690853
0,0830906115781511
0,0870190405765298
0,0866055379289968
0,0917929515020573
0,0882988512532425
0,0909011074987768
0,0905668175542593
0,0943781536340462
0,091427516090333
0,0885042775256576
0,0914476349809647
0,0924029085382212
0,0937978971356332
0,0954592332826536
0,0926009506472043
0,0983578822665698
0,0952495064076191
0,0968726511741835
0,0991561939577462
0,0978131361626123
0,0975359453177024
0,0986519036663273
0,0991531533149023
0,103752449066974
0,103986974307157
0,103531745502887
0,10398296829661
0,106422348822108
0,104338577163507
0,109025952407842
0,104800948534213
0,111208653415981
0,106552265482995
0,117058485512128
0,11151944843414
0,118536909581303
0,115710635662757
0,114362060768207
0,115759968557643
0,117660567838719
0,118956476274465
0,126800591616082
0,11912795275931
0,121602548559262
0,125982081545621
0,127758385243022
0,128860949001272
0,13108487714805
0,135567468162303
0,137886385444286
0,132948863931673
0,137429154086407
0,141707514331731
0,141485134825981
0,143452292738349
0,143639838634904
0,146988048768395
0,149439940933889
0,152477472729929
0,15468751315345
0,157692064355818
0,159852365788304
0,15860771067302
0,164047648397127
0,164204728992625
0,17494399841708
0,181516649084431
0,17476818570069
0,1817288341961
0,177482838298621
0,183355030100892
0,183487014530497
0,192845704932519
0,193363833651754
0,195147988458436
0,197851820252167
0,202461135800758
0,211363049309826
0,215115742983196
0,218719817050268
0,220509211286408
0,22454707861461
0,22543172843826
0,232925559383448
0,244168402593975
0,219336253681869
0,24767833417541
0,241284601780265
0,258041541635166
0,253027642564181
0,269567516489268
0,264612460925359
0,2703546982703
0,27549725087388
0,284633897845332
0,288382666309961
0,293185292268558
0,300605216635701
0,307706144915398
0,308682480681719
0,32483095598361
0,325704467101913
0,34067338884306
0,326036537532076
0,342222807516728
0,341843079961514
0,352063928386038
0,350016878720393
0,359239885003026
0,361862472710687
0,371592809205769
0,383664266760378
0,395240858505248
0,388441474549293
0,397651156148905
0,404819462890288
0,410569194827842
0,414476882402836
0,421301487128326
0,436393416377678
0,43032449995281
0,441743252731319
0,450458155342946
0,458447246277107
0,46554174265214
0,470481681311236
0,480001305000439
0,479058657679791
0,488933233429076
0,495159910536711
0,498714194605486
0,510603235110923
0,515392631597641
0,511991720855505
0,523903455229504
0,521069253502678
0,554992076709778
0,542314366291623
0,540194226478011
0,540934124841478
0,555192005094985
0,563891243914361
0,573761042316454
0,580587350474233
0,576087827579393
0,568913596028599
0,582339864270335
0,574149989183792
0,587264397014443
0,587591490287286
0,57952217000703
0,587900821890065
0,589175620119498
0,597820101299983
0,619222731356209
0,60279282787224
0,58941671060194
0,583176551259544
0,588796127459217
0,590906941982164
0,596200623655462
0,592324191690782
0,591314239389442
0,571532041299797
0,577649419547628
0,560014441720895
0,560727077915142
0,555661192314548
0,564845711370037
0,54635958605918
0,547026529403159
0,538147023668757
0,539058307185359
0,520222093218855
0,53290283625421
0,504578267897122
0,506518892554388
0,494504964661892
0,499202747146644
0,48445261900493
0,478746382683704
0,472215119900947
0,459943355078046
0,452548904911284
0,453131761697752
0,44065919135374
0,440704853414973
0,428737979085935
0,426825034126753
0,41679108823638
0,414299142043948
0,410299973911301
0,402522229251308
0,393839265411598
0,39136522593789
0,383445561238647
0,384050525867557
0,374397160827379
0,372529378850486
0,362845533171385
0,362748543784538
0,359904782061129
0,353870975929076
0,34504028814902
0,349579601192785
0,339145903069922
0,333708898008867
0,329184702114205
0,326875614865024
0,325237549936307
0,32475933079979
0,31975545571613
0,317226906415584
0,310563790766541
0,312223718172398
0,304615961703288
0,301116693527141
0,308930454240553
0,303380530830597
0,293325475911687
0,289228159705895
0,290651641724282
0,281524843655281
0,28328868079619
0,293342451262488
0,290253100010609
0,284429919019347
0,273122590959962
0,27069423443731
0,274669502613636
0,276193143545472
0,263297027156152
0,266501466028639
0,259636479811406
0,269739375068633
0,261731295078647
0,256293834015207
0,26550196582518
0,271201937777885
0,246722730342116
0,253411696077255
0,259959223902728
0,252575311956752
0,252322841286844
0,240625820512914
0,251064578250108
0,243110588862968
0,244084081957841
0,243952731224856
0,241662108526473
0,24508144116645
0,246049044081893
0,238522621272713
0,243874996151633
0,237859207595618
0,23194474416197
0,240219449186323
0,233850626409432
0,239696142121811
0,227408694644075
0,231383374950775
0,230611178593627
0,2310569464351
0,235404751625912
0,219878938410405
0,227919685019272
0,225398733728688
0,223578548341995
0,223731279774048
0,229626886320016
0,225326198889613
0,217690225850718
0,223202440641163
0,209642825999886
0,222765007714799
0,216754049869514
0,220094822965444
0,224406820073667
0,221646280299414
0,211094372330297
0,217722164369065
0,219876011157387
0,21540808116851
0,214587028512482
0,208571198899252
0,208603622821167
0,212999389107563
0,205552398782528
0,212045240917495
0,210018584477333
0,210979252576084
0,214913936197086
0,212644881872859
0,21704106119834
0,201186851906726
0,198647969520633
0,201987940191259
0,2010421669053
0,205206599752327
0,197022189773207
0,208806566178321
0,20361255244697
0,202288964102083
0,202287375883601
0,192934818067279
0,201647361603512
0,198122884252473
0,196379029151731
0,19783088058736
0,199859386822008
0,201133573038065
0,195646560159022
0,196962841064703
0,202181629597805
0,198367996142407
0,196908122337394
0,198759471623799
0,198940543165622
0,196914129195755
0,200423592879122
0,194640290008194
0,196202501344267
0,19806490089947
0,193897122947228
0,202112265113836
0,196968927865792
0,191993077042534
0,199235698770536
0,194083623378765
0,205963570210636
0,196904793294743
0,197006653922325
0,194292044309306
0,197890346785898
0,200370507752534
0,195654227072242
0,199540559503741
0,205003335837209
0,196904967062535
0,202574622497981
0,196341547620973
0,201230429861665
0,197105695053431
0,20388509231596
0,195466936350964
0,204887322100672
0,20487197287035
0,193759036005752
0,19749512086361
0,196309827034789
0,198709598481871
0,196413810715501
0,197368197549417
0,197227110081426
0,194937860837966
0,200931732159524
0,196361655740251
0,196186259370718
0,200321153055332
0,195886955328838
0,198364417426612
0,197588838335082
0,200198996771764
0,195374692875618
0,199280731954368
0,195870020273138
0,198475791768378
0,206404707436675
0,200988555043077
0,198377906000314
0,192860538226377
0,197144271668919
0,196881480634512
0,196271801845331
0,202080967637809
0,198645562231135
0,196523912714351
0,198995892151232
0,197182863584952
0,1977058750545
0,201291010516595
0,200269375336599
0,194741860882088
0,198408127876571
0,192035967099135
0,201628016699231
0,209332911512667
0,201481170546495
0,202303299314892
0,195695532750807
0,197028600551399
0,197652538391378
0,200318343577683
0,195717914739392
0,196921568195198
0,196152538676498
0,198602311816453
0,20052636915287
0,196135894132254
0,192233848823597
0,199102161058241
0,200921581254331
0,2004099878025
0,196983187641372
0,194937104275809
0,194212568585471
0,197317434536046
0,200161835818352
0,198874847158095
0,196045066375038
0,198965342599859
0,191772467988695
0,203020598710783
0,199225597924208
0,200269282575671
0,194994129401129
0,1949748295128
0,194723361857763
0,193805314938528
0,193180862728814
0,197023260481617
0,195211941019154
0,199807075409744
0,194171572127854
0,195442208281203
0,193716998883928
0,197814448982181
0,196497403946756
0,200264463445409
0,195363325947211
0,199554468871482
0,198091434911249
0,199578067023096
0,195001721257151
0,200641406112688
0,198468495177075
0,193256139598629
0,195156539219942
0,198425713868112
0,194084528223163
0,19325018547124
0,198193296652657
0,19691591505294
0,194218333478305
0,196333392286434
0,190559751519098
0,201350611370448
0,193298025829998
0,196243775433532
0,193491202852709
0,193197532262184
0,193519698584243
0,195417030502744
0,194314074562998
0,19317630602966
0,193453095047637
0,193330610554627
0,191854397297955
0,192154397545547
0,193449216689059
0,192566354813684
0,193901784981095
0,191200729666203
0,190404690316933
0,191926018576408
0,190719422702817
0,190532990258281
0,187478520275331
0,193464407111194
0,191028399152397
0,191424244509049
0,193016983809111
0,195159794102068
0,192230159115185
0,191759265611187
0,193946927385023
0,190525012992737
0,190906146708464
0,188213048332178
0,192948175798177
0,190539641654566
0,190389052156846
0,187947932296459
0,190668671802957
0,187793683713498
0,190888947846737
0,191341845842119
0,190541941738271
0,189297083587135
0,188849799421683
0,190511001943937
0,188658374303605
0,18982965397761
0,189528003734412
0,188424188810028
0,189692826369442
0,189431526990996
0,187891762806191
0,191036107683749
0,189979189630499
0,188163553963608
0,188282125665914
0,187757781661919
0,192628316220131
0,191004495983742
0,187916836238429
0,188640005891494
0,189001090548448
0,187488571506444
0,188577042622491
0,187749332508602
0,190236879136979
0,186818895633646
0,188204504047329
0,18854584052552
0,185914216063223
0,186736743933399
0,18642634922728
0,189480018879433
0,184800407556727
0,187793346310746
0,187028576016329
0,187486358456361
0,188007000924356
0,18537920344125
0,186350832686146
0,186843076652129
0,186160491367345
0,187180496303462
0,184098408179928
0,188321391653592
0,188743524781211
0,185549097926805
0,187187795295303
0,182383050900714
0,187024605838969
0,187077538608773
0,187331133285905
0,187252316002353
0,186300032907911
0,187223042075855
0,187890069786515
0,186056044975225
0,18605973205374
0,186385359722477
0,185743888661442
0,186995694047232
0,186021911422334
0,185759021219611
0,18751106085207
0,1871676586193
0,186114884469806
0,18697130089275
0,186241591778429
0,187061978715922
0,186729812379272
0,189536614627194
0,188804727491519
0,187234272674912
0,186943670645042
0,18594473023057
0,187250319196908
0,185724122246995
0,183922790687256
0,186309542820672
0,187286809559723
0,185326596521749
0,185799164510772
0,187254834545114
0,188100021785024
0,18559732475631
0,186477797981895
0,184214725557801
0,185606215424076
0,188964846110329
0,185994693414959
0,186222010926818
0,186566874235619
0,186281599396942
0,185011415389272
0,185451699536904
0,184537258730235
0,185617884077661
0,185936465070447
0,184562755763056
0,184680389682627
0,185814943432586
0,184101212751599
0,185740773065783
0,184041358251103
0,183937667369137
0,184317145298561
0,183989506611561
0,18475130033452
0,182892753854068
0,184723390359819
0,184942912012579
0,184361557055694
0,183263465282935
0,183666877720307
0,183282311638176
0,183688339559018
0,184417026010645
0,184691533592788
0,182632398961772
0,183633200421579
0,184869815923568
0,184220165808907
0,18309871079446
0,180872303084983
0,181278003704364
0,180656708212603
0,181130376235869
0,180531318472379
0,181513139036488
0,179466453566983
0,181760204444029
0,179886154302265
0,181639506290755
0,1816908069726
0,180122464872805
0,180472591906829
0,180262201169853
0,180574073591124
0,180302919676136
0,177763978151973
0,18072442402916
0,180038956748628
0,182142836387046
0,177271433040943
0,179233040541467
0,179394084673693
0,177519313260377
0,17865094134674
0,179398753873727
0,176497515780169
0,179310146871967
0,177757191109352
0,180005461401271
0,178123054109394
0,179744707024657
0,179458748998141
0,179078868663848
0,181555261450098
0,179091103622437
0,179884025758747
0,182675465851203
0,182106879724733
0,1827129867173
0,184365439506736
0,182683081410825
0,186264740200472
0,184957338221034
0,184146492628973
0,18773542489877
0,18941181999071
0,188702831673776
0,190636554792259
0,191233329582997
0,192415428679585
0,195977436787748
0,194409284939964
0,197530917733852
0,197627665653482
0,199450020301032
0,198198935416365
0,197849597876152
0,198493819096668
0,199747350114884
0,201302362166058
0,200903467436303
0,201140841017284
0,202448318852829
0,200072532332084
0,201085404562412
0,199623965953418
0,202125708448823
0,199942134453343
0,19967723407365
0,199694880116042
0,197762149157309
0,198605398882903
0,197799694662471
0,198151616581989
0,198706779212594
0,19755803261853
0,198229836087799
0,200230500821884
0,199406793523611
0,19653974555261
0,1994727111321
0,201779887731028
0,200025257466503
0,199635518236512
0,200206243475352
0,202087388391545
0,202593305514813
0,20123996600756
0,202933819670808
0,202620226707302
0,206159425486181
0,206975233178352
0,206008886398019
0,208043908303695
0,210190982230838
0,21116247526407
0,211478735373149
0,21212746181111
0,213696601847794
0,212989823592876
0,211544272575322
0,213029226848908
0,212179322137056
0,212298308460152
0,213078912707067
0,212160190810627
0,212145691503161
0,20941186557904
0,21059162458823
0,209489996819786
0,21260268593592
0,210122491643793
0,210180311540438
0,212420094091372
0,210897961192315
0,214803614986228
0,214320240547433
0,214959567237854
0,216107019408506
0,217246147237547
0,217653276619782
0,220561522732934
0,222831299204265
0,222927121947496
0,225588749473038
0,224200848111542
0,226359148024308
0,225689852018415
0,229155031428394
0,228645809229871
0,229014713909353
0,227962555698626
0,232566822874254
0,233843326129282
0,236481671193445
0,236801959821512
0,239101091958481
0,240496668654696
0,242393326377819
0,242815633837182
0,246349123812133
0,246208447065805
0,247438760660179
0,250232261700074
0,254889518173021
0,254231812660444
0,251068846281808
0,252620956589741
0,254453380213543
0,250754147858967
0,251748026326122
0,250073388405833
0,248788243321775
0,246449844418392
0,246763898076792
0,246238117077041
0,244493416998179
0,243110984679037
0,242696813951651
0,240233195496764
0,241935863310935
0,23866054724726
0,240528903396646
0,238628917602962
0,240494122614235
0,239784138619539
0,241438469414663
0,242358444456771
0,242686988716522
0,241239847746274
0,245194164286442
0,242528064079962
0,243886194351818
0,246933971962299
0,246100789013251
0,250332376678008
0,251440160583268
0,249154120982134
0,250825581230845
0,251397703192288
0,252803091740989
0,250124613050942
0,252675008744993
0,253745425660142
0,2516202057095
0,251936156392099
0,250227568245063
0,250380586628487
0,250665218475515
0,252225098637043
0,251500148272373
0,250243064631597
0,250277817075075
0,249587442494634
0,250797165576136
0,248413766238665
0,249991627834558
0,245392402496374
0,247341990919965
0,245433477546454
0,244408526335946
0,246503569871611
0,243438339456723
0,24552006804982
0,242328014332031
0,24324479145386
0,241499485810008
0,238450401493689
0,235706991213222
0,235885990777079
0,230635892676947
0,230745303356512
0,227856502850947
0,226768637067558
0,2256911820179
0,222250306151252
0,2209545040141
0,223709169297481
0,222089933350749
0,220231336390617
0,218900324444424
0,21946463776078
0,220236449924658
0,217584488420024
0,22238586424565
0,221818676001471
0,223691191427135
0,223486452423211
0,220457289538383
0,221953970618342
0,224127596382241
0,225211316781548
0,226584867404091
0,224203926465974
0,223482122378437
0,225824189247428
0,223108971523513
0,223858401532783
0,226565177642619
0,222447619827877
0,224089345339739
0,223283175124392
0,224107250468643
0,224584679439857
0,222399377075019
0,219618251084463
0,223913231151721
0,224694834890551
0,223413323767796
0,223551231477196
0,221405569548018
0,222607673763032
0,220723972110533
0,222100430570289
0,222572805294279
0,221839976614285
0,223541437374162
0,224788074004843
0,221859327445796
0,22213639702281
0,226369472068444
0,224050839564256
0,227736920470056
0,224290253496502
0,227852174552854
0,227394113560921
0,224243257785919
0,228401468837626
0,230628229706706
0,230796487983398
0,22888019660992
0,233621112692907
0,234552465563141
0,234672620662109
0,233024529381984
0,239305397286828
0,238306597834532
0,237407078589397
0,238312011409312
0,236615203181755
0,241139138515534
0,240699655027141
0,243231525564345
0,245060204007983
0,244885965371268
0,247717818585313
0,246706141495462
0,249675992125732
0,249802676488642
0,25099694401661
0,254200447299822
0,254726834548933
0,255255169436385
0,256278617421021
0,255773726063944
0,26053261529332
0,264177394200607
0,259781045353989
0,260805118349398
0,264602739654283
0,266778373423331
0,269576983788443
0,265431722583181
0,269031688877241
0,271075977523855
0,275751451563288
0,277680455088147
0,278104357549187
0,271880131045632
0,279557782571237
0,279214000979419
0,283882702229735
0,282246843743895
0,28436370950049
0,285531690434353
0,294031412614128
0,290303988663622
0,298911329744138
0,297769898624561
0,296027159985121
0,297196324713506
0,305308742969649
0,303657478010403
0,304418111420782
0,300748204357024
0,312341385227274
0,311788426363957
0,316063380998416
0,312267516798896
0,3180406235267
0,317424577838346
0,3247025663791
0,324588676821236
0,325640771078888
0,330322572822673
0,33228185501607
0,332167209641284
0,341624288984265
0,33353227501297
0,343431050645764
0,34626408427152
0,343262519666658
0,347533306752601
0,34536866400404
0,347691716075932
0,354262503453897
0,359803422775325
0,36124780944751
0,357686783094681
0,359370267918956
0,368700739105129
0,370580384924765
0,363883403052085
0,37312467409148
0,378301931604663
0,3793073728587
0,376890662842988
0,37947806104908
0,385570523109335
0,387986272584984
0,392884684478179
0,392440208677305
0,400016289892196
0,400895939272585
0,391932360603491
0,408333402139708
0,407876718423982
0,406756311369489
0,414297838035539
0,412986841871749
0,420623292725317
0,425375306128492
0,436953698849355
0,423139257154033
0,428054614248223
0,444443268791377
0,438950736763662
0,44269985168046
0,442696638677526
0,436108398331636
0,447221146867261
0,462895967618329
0,456206536475433
0,454252267632652
0,464256940463384
0,459196656745873
0,463912221844321
0,468890676355118
0,478668314093707
0,471430830279706
0,466994632760725
0,480266642286175
0,479937304781959
0,487131329355771
0,488925115181389
0,495196830872615
0,502099985004387
0,501079821985744
0,51291710731122
0,514584380764909
0,496938326147375
0,507575411151561
0,517825508726686
0,504081921759357
0,520827329041179
0,525572256055414
0,5147901783873
0,521433812304972
0,551293574049219
0,541120260918578
0,54420960175542
0,563830471156192
0,547320558071051
0,545393467270227
0,568566781134981
0,570427700497459
0,547270956594266
0,568206796950172
0,561834188245745
0,567216270857358
0,565766111644131
0,575822092388119
0,588046808219781
0,580189908252774
0,584211730387074
0,596051332366053
0,591006752541019
0,608837895505921
0,588901829783256
0,602285281299793
0,59810689185493
0,609152035551249
0,609982946274298
0,613044414912249
0,623626692255015
0,644780571160613
0,623543170871727
0,636274574000707
0,641387771102223
0,649326301278479
0,641811351625873
0,657997631710879
0,653338708000164
0,654571813319215
0,659319839632171
0,682451696371447
0,668216761674404
0,647927429153694
0,664518843155278
0,674987516864461
0,712184869939459
0,695164589038716
0,666177066889323
0,698793616785217
0,700405580415104
0,685443272285983
0,686203100675045
0,717467235593774
0,704975629247573
0,704853765005196
0,743081057857986
0,730676880982305
0,697616342010509
0,740221930846326
0,743232235964719
0,711032863322976
0,752089843432167
0,738495206224132
0,7556574899018
0,753577288081923
0,720601033286488
0,737353255456939
0,755209980275349
0,766102665187663
0,779500593552311
0,787014544160168
0,789648945029612
0,796944069454984
0,799368546771628
0,841766259650747
0,80828387928395
0,799930977420031
0,78354395637769
0,814996010603438
0,784401469010298
0,806257181535032
0,821066447641477
0,817662341055829
0,867944549956914
0,837293310618355
0,804552927929367
0,821140588161303
0,86130000336554
0,885446829541167
0,890776590593914
0,841193291064661
0,848042212272642
0,875162476616042
0,846382238912495
0,821600117961354
0,840844042518328
0,876025351491855
0,822987731088233
0,857563262401802
0,853995949772764
0,912431031027557
0,904058592007067
0,934353267454885
0,89466903638515
0,944930741572113
0,903791932084925
0,934358143630999
0,941553734187584
0,887919463827323
0,856078119940284
0,978893978061346
1,00919721445092
0,964810786765193
1,01734379817659
0,960430968832932
0,933253945108237
0,960789921060254
1,02071576405518
0,991072468601416
0,947542430973191
0,993357602393014
0,970890130764339
0,966998061719147
0,891880378164371
0,965900754398154
1,10767189602864
1,07404024529121
0,94349693336241
0,899396985803361
0,951403534292067
0,991805550414277
0,961043937177991
0,981002605216349
0,90534558408966
1,13226419729478
0,975484288973386
0,826360358250166
0,979363252639545
1,33929076492012
1,05506202359719
0,945447499106513
0,992601218045313
1,01859597805274
1,01474988204927
0,953524415246348
1,08090431541015
1,4323926088755
1,01037346472134
1,05014590603507
1,03251683663007
1,04995375109291
1,41257477857406
1,06109723883378
0,898079890175175
1,21581962171517
1,27879495696729
1,26275687184126
1,26336122891564
1,24355644255719
1,28916974071178
0,966483589775227
1,02068178722196
5
1,88411590748606
1,03972919545729
1,09396632558733
1,50355487035457
1,22984787011312
1,1884982903896
1,04322220937592
5
5
5
1,5040349369534
0,998390353583031
1,12398899566413
1,06799386533788
1,14585667865334
5
0,884974382869807
0,790284949323031
1,12458831422279
1,31330359814583
1,10359890640383
0,828371045659167
0,730431792666999
1,06431336289316
1,61271550209277
1,38251284811532
1,45902805217355
5
0,957847123630859
0,996424465034949
1,42465180259271
1,15848926142308
1,79920995183485
5
1,77185400989086
