3596
4000,36533379555
650,420452594757
1
2
2
0,0296780454373653
0,02690177030063
0,0316284321935533
0,0242733994092705
0,0193097377691084
0,0254812335840277
0,0207764332193741
0,0238394250298023
0,0276573933257367
0,0193976951264065
0,0129630899979294
0,019352894737068
0,0262999920834328
0,0254782313819583
0,0202105053821585
0,0179820494184589
0,0151418655442904
0,0336482474400784
0,0241758928991028
0,0189329515757399
0,01618419434814
0,0185214639250264
0,0215974067915367
0,034923753307079
0,0215908780765889
0,0238655321973505
0,0231281399336189
0,027881387966387
0,0204994480630202
0,0238906291030573
0,0290276793921858
0,0262771060029621
0,0226941074064445
0,0184591253213289
0,0122889329812556
0,0331718505204165
0,0287833261681233
0,0209821881257517
0,0293136563628268
0,0165782748946348
0,0169547198141543
0,0240909459467032
0,0183985656121366
0,0291605977469827
0,0262844811552685
0,0212524474512355
0,0290276602868601
0,014167048223998
0,0325467025242637
0,0249190834574532
0,023841379963081
0,0141723457164541
0,0275313261088822
0,0255541568346418
0,0304758665099804
0,0263936222572211
0,0283723963330761
0,0232083338921743
0,0161335192778231
0,0177874719713992
0,0281583511713409
0,0196905253773074
0,0245251681353263
0,025955379540995
0,0244930146443484
0,0226410796264022
0,0178230756434756
0,0233384110942782
0,0283539867349646
0,0266257996771091
0,0195256175683641
0,0276534086035936
0,0136929358356663
0,0300300718741803
0,0256451330483312
0,0213956622943164
0,0207561449672621
0,0204594047057463
0,022265424763264
0,0173022596493013
0,0178770737508989
0,0153394847830224
0,0175945590543525
0,0268851389097188
0,0293066878513309
0,0120831338093749
0,0250877110147358
0,0281875626068419
0,00992993249100492
0,0147134651717962
0,0129006214986663
0,0148887172071482
0,0126235376265026
0,0185496251178057
0,0244879973306856
0,0190770152187552
0,0188654391097692
0,0297653078389464
0,0252796078447723
0,0267578785883149
0,0109616501824655
0,0224878044040368
0,0188189641149526
0,0298228223108374
0,0268027331226281
0,0107413092003758
0,0253691591005988
0,00825602907223694
0,0160011180941159
0,013652955293584
0,0182694183968322
0,0201708501983449
0,0173382707728831
0,016371029886529
0,0083813507341463
0,0174765362275783
0,0114588493249714
0,0134611666914912
0,0122605531519981
0,0199897136751505
0,0214083426446252
0,0404461054909565
0,0087945234067007
0,0176039980518503
0,0170723476564578
0,0151061514164561
0,0239945727976219
0,0161774718594072
0,00418982164896574
0,0134917671341443
0,0167899514513818
0,0150024715512234
0,0181419464244735
0,0251176258272138
0,0202634762833607
0,00947523771354484
0,0225128788455849
0,0319427682498347
0,0287489249294196
0,00547919805110604
0,0237698194219986
0,0186891451671187
0,0149435782109053
0,0181622759365502
0,0175811969934517
0,015087575422238
0,027124567321388
0,0217449506338706
0,0119351045448789
0,0165564294993099
0,0143434507248913
0,0226342014047556
0,0147944702232392
0,0143150019774782
0,0180210967906534
0,0353651107700751
0,0202297652408029
0,0269712105524996
0,00951643349861676
0,0215088418286688
0,0212203351846984
0,00773387386731195
0,0237316436577974
0,0202415567214735
0,0169286166158472
0,0219660463465431
0,0286738179886356
0,0193272414828243
0,0160021228475747
0,0168479793808862
0,0132274163367026
0,0220406403081683
0,0300082360908596
0,00449847647319722
0,00675910267294513
0,0285911464929282
0,0184930342389864
0,0104131211021532
0,0120546957578576
0,0244410667058166
0,0163146544484978
0,0149215535424372
0,0175982184031454
0,0158729506233794
0,0119771171436633
0,016727907176241
0,0223147595921095
0,0230793030595929
0,0186462774844425
0,0251384726054247
0,0277581721431017
-0,00609765615667608
0,00750200508053082
0,0133946244929853
0,0155244409305646
0,022246277515348
0,0383794900032716
0,0180445110608702
0,0225339976947531
0,0163397824862212
0,0167481567146746
0,0244244220781806
0,0196585829110938
0,017341190889854
0,016745055514342
0,0152574485460327
0,0104523395294303
0,015553063287281
0,0200794647780266
0,0150871489965204
0,0254764272105319
0,0370167864390053
0,0236250215131815
0,00997277464345858
0,0192966510273981
0,0169100885900905
0,0240893552743711
0,0151505439638247
0,0143354352324498
0,0138312039190456
0,0180257558429866
0,0179806223012236
0,0203421583511096
0,0171983435716475
0,0159000992153801
0,0217371249832725
0,0195711383247855
0,0140830439691831
0,0201428863241508
0,0217892014573157
0,0112716056199406
0,0198595857834063
0,0188520368356437
0,0192989239693054
0,0169041727473755
0,0228127900015358
0,0134048408004273
0,0184503541610069
0,0217259068610685
0,0154524363935001
0,0192187654488295
0,0151923789058774
0,0181968151654187
0,0244963044704868
0,0235396048112716
0,0213180920796148
0,0165772946958016
0,01454290479998
0,0194785658119552
0,0114376944049668
0,0179060984374403
0,00862034232138063
0,0242205973582816
0,0250088533093884
0,0234276438001363
0,0188059499625584
0,0193905002244328
0,0137498838228167
0,0175037750715029
0,023176573484455
0,0228927835828408
0,0157784899527119
0,0192849371164687
0,0251406847337512
0,0366596600452078
0,00757912223806496
0,0213027236494064
0,0204289317740267
0,00060177464624072
0,0192944527317166
0,0261622269774234
0,0179644961919533
0,0366770622922183
-0,0100230601561479
0,00769289670760022
0,0205195249828212
0,0256488431875876
0,0173672176911168
0,0242812535916109
0,0218003856844508
0,0166502124084077
0,0197902531686628
0,0257570560314067
0,0204229746610384
0,0249269723559881
0,0267849302014474
0,0253345805435188
0,0128450648807435
0,022966153349554
0,0176539571886732
0,0159246067929401
0,0242769086314959
0,0313941537585282
0,0206045563774678
0,0241186965257751
0,0164531886331309
0,0331851189649289
0,0251978654788436
0,0172808564752244
0,0204759860242813
0,0276512103325497
0,0283016032734686
0,0271792828873623
0,0272370133794682
0,0255851001435777
0,0246488325346062
0,0267156760383275
0,0347386046115925
0,0346671145859102
0,0342199748972236
0,0356404263474314
0,0217223907295689
0,0302035232287338
0,0309394970540633
0,0262822941409432
0,0210018532889674
0,0229007207406313
0,0261096570352689
0,0311857941650503
0,0199076542070385
0,0229365407377731
0,0255193910786004
0,0225694897203536
0,0239200772023265
0,0262907901606202
0,0307047222545352
0,0298369178347989
0,0328351493105395
0,0304599864202948
0,0324573012804973
0,0359312450960768
0,0260523451158444
0,0341960609659864
0,0190925916054175
0,0181093237595676
0,0306037302322637
0,0349969826161268
0,0356513797836017
0,0307119938480131
0,0350480153001159
0,0355470163475407
0,0368727278406188
0,0376826301444623
0,0368014368259177
0,0378812239876882
0,0310644798346597
0,0468755875399258
0,0411946961793813
0,0346218416229666
0,0289472668436245
0,0380549085068313
0,0446010410339976
0,0498007624456674
0,0482331064563671
0,0459314493065836
0,0364791517173441
0,0374978011282821
0,0438077796023915
0,0458418243172503
0,0500800011426864
0,0469761657923004
0,046426421172798
0,0514033399807486
0,047140028691357
0,0503769115270835
0,048889777188524
0,0533481399683593
0,0659761914071111
0,055260124972548
0,0571503387683011
0,0623139712231575
0,0563240161695176
0,0595284546994982
0,0730493123061867
0,0653953250267013
0,0536112930207738
0,0637691969016211
0,0739373922230125
0,0570648915566722
0,0559421111443546
0,0696746467420368
0,0704841781211998
0,0781815779157872
0,0749099082548702
0,0765601603344757
0,081828756741752
0,0828752594624167
0,0744735919955184
0,0815547111702886
0,0804670811962421
0,0845530782158281
0,0956353311194915
0,0947520944373071
0,081705187992774
0,0927251215789353
0,106475409645597
0,117221228119795
0,103984052641594
0,0946480755753014
0,0831741397071969
0,094030349167383
0,1005590944712
0,104442824215914
0,105519292918758
0,112679141490927
0,119877884489194
0,11568129105981
0,11647767821147
0,122520187179854
0,110586840590139
0,11313891958298
0,118202325278944
0,121336756083299
0,121103337851424
0,141072328296475
0,114733277689697
0,121993953694764
0,138273098983427
0,119533714139684
0,130990759861145
0,145289643370272
0,127552502820361
0,134995971314048
0,142087860801058
0,148669227817129
0,151911440183508
0,148348070387264
0,159427430955566
0,156521299570035
0,152312418008242
0,156502582644998
0,160842416497002
0,173639899091422
0,169252222623103
0,170246352933223
0,167992608181823
0,166101874329077
0,169878588463627
0,165903869559305
0,174683402952983
0,173690083259724
0,184168604303115
0,204118107860435
0,181900640857127
0,176465682711082
0,184442144588033
0,192995530711679
0,200108739748678
0,206271591350506
0,207209412058174
0,207976589426788
0,209524284270974
0,225175624924951
0,215300311771543
0,214060550245606
0,226631936989408
0,236572837463798
0,224756974535921
0,234507884422159
0,232751026844419
0,238680077813265
0,259535925297831
0,256297351700916
0,261059214951619
0,242799421889567
0,237957318011548
0,238979115427938
0,24643634278609
0,255335560579464
0,250988065369135
0,2570022138167
0,264506778358793
0,267046487205916
0,280442386309401
0,285899256216366
0,280433105266959
0,286722532307901
0,290874061212924
0,296091041527385
0,287684327633359
0,282393750536014
0,298394057294166
0,299515875616167
0,3079089069135
0,309616984631306
0,309474026272783
0,323356025848557
0,331861261890726
0,319588454606729
0,316904459339583
0,338879675333614
0,337250144956421
0,325572877873119
0,340596878058135
0,353439991669676
0,35209959466241
0,354329801768857
0,353002367330304
0,351386275644942
0,354527417984983
0,380423583332496
0,391956164747275
0,372876718968891
0,374228712126933
0,374738066835424
0,391336893458335
0,392547111837955
0,401134612294714
0,405251477401945
0,399955856165444
0,389151865403977
0,403762056741865
0,417671469839951
0,412903025153608
0,415176394699927
0,435508543423925
0,430156653606233
0,429849043578082
0,433624894026651
0,441151902079372
0,438090395288957
0,437625763861684
0,457163708411248
0,47234485556876
0,466062741656758
0,464755369149969
0,468931198874659
0,462903812036106
0,468005491362402
0,470643860554986
0,474774815431628
0,490593239558159
0,499227225424371
0,506173553199309
0,485028702617436
0,500155851233698
0,49729470010538
0,525476459054256
0,510441564419711
0,512554192798202
0,552795789886438
0,523344815312108
0,529550966090724
0,549078246971748
0,514661495425097
0,526833929514839
0,551653189660755
0,569217196204535
0,56588492923797
0,587834949344848
0,568419594533202
0,59442636783055
0,564318840605833
0,578040085116902
0,575145246947971
0,56289451843071
0,578414046992793
0,597376010514555
0,586254005426839
0,597300389666646
0,588475590036555
0,619953563497543
0,607341155037553
0,618488736330866
0,602483114622321
0,617603822353648
0,617677504786509
0,637232068134804
0,616700367378689
0,625430350052299
0,632932046564554
0,65028940451638
0,628134392881047
0,652732970926464
0,685971515002353
0,71022426145473
0,681293959300592
0,688181856797106
0,650798588434277
0,674377761127593
0,694410026325635
0,706563147774697
0,691863378064686
0,696519476140965
0,670916200974799
0,690183614175901
0,717838729071268
0,742981183132985
0,715489817381348
0,740191293086577
0,722454831067321
0,733106929911851
0,74117685345108
0,72764631291082
0,690706846098975
0,749135268605518
0,741647608113188
0,751350094280594
0,718229807339649
0,741776592009497
0,747877357358856
0,76794017215638
0,768482169194678
0,77467773666526
0,731393331957007
0,769928381849389
0,753157099651709
0,767847197036985
0,784722361605576
0,77916406102737
0,767747389751938
0,812431681651231
0,779119288758227
0,810455436833992
0,813208390486703
0,832319848151557
0,836113181133005
0,864090842540251
0,795947984121398
0,830708882015464
0,769175014151413
0,818216188749677
0,812468178167976
0,830131318425736
0,82270461687401
0,841204561333846
0,830903139878017
0,846256770412839
0,825683363368371
0,843761690584715
0,825839474764149
0,899236941300755
0,841434541072156
0,883358997407076
0,845882146222456
0,87181076072715
0,85248646347887
0,898108186381137
0,877818823663604
0,893132864858214
0,838507479315027
0,872474827167818
0,882569172570685
0,920503090459447
0,875419518003421
0,915737900747136
0,865046515810733
0,893853989889094
0,908903014453517
0,925477652418572
0,874240158902667
0,913879727806444
0,933563529902285
0,930498068981623
0,904150865219158
0,949990391620547
0,947946011670685
0,942454143204089
0,936794696630689
0,952476307334727
0,911309056417347
0,952608320837531
0,910205260497098
0,966104286807571
0,940783784822729
0,95892427464843
0,955479131817235
0,963328672572041
0,950938744426838
0,949958381381907
0,938902706584507
0,963835609618823
0,92372413622116
0,98196439698377
0,908038783683579
0,970189322500086
0,980341632292516
0,954330721545536
0,949327225728124
0,942227859904319
0,959360288141738
1,02664637746917
0,945445953906692
1,00306131243051
0,941272893298801
1,02913015390149
0,98833951390015
1,04197655178373
0,976208531658295
1,0078878290492
0,979122557763576
1,02696588299844
0,945093630184213
1,03789590470637
0,989292234480002
1,02068895555512
0,981737218761958
1,0565200339915
1,02360735946104
1,02431976798432
1,01001420363326
1,10713707344182
1,01368652074011
1,02780931923639
0,980506322447731
1,07395184902373
0,985845545121979
1,01587005244812
1,05677941056943
0,989801644187891
0,958146627379684
1,1169478955008
0,973932919969193
1,02718081207908
0,965352385738
1,03097116244953
0,972710597299468
1,08177146724672
1,02168844552972
1,03991530252338
0,988717099051873
1,0274125510316
0,964530165174075
1,02535734570461
0,993147846108546
1,00600616276826
1,0102966353676
1,14265611673453
0,987124507571831
1,08717175809457
1,0899241072456
1,09016373763912
0,998361970759369
1,05977692805903
1,00169838526608
1,03959747292531
0,991987824552235
1,05883399752751
0,999090692574016
1,02685921685417
1,0048344753661
0,99161710021358
1,00693351539979
1,09173257314151
1,00158295858461
1,05828930195332
0,994267144663585
1,05607734768007
1,01507161027463
1,08100043908494
1,0275124976562
1,10769147913095
1,00182171202064
1,05297970713536
1,0384676413547
0,990794683342764
1,02341493274841
1,0443205682168
0,985296348163103
1,04362136056583
1,00616809544377
1,03801159026771
0,999759830149545
1,08513704960918
0,995520363802681
1,03604572764745
1,01844837983117
1,04072746000716
0,968063837341039
1,08075172519815
0,968992896570489
1,05934272111215
1,01572740540401
1,04772982457215
0,967689210535105
1,03270927113208
1,02199418033156
1,07659938663167
0,973781280752588
1,02141591116442
0,994212626790834
0,986688304096633
0,952735643455696
1,06048148499207
1,04143694587688
1,01698893874381
0,968176312334819
1,0660392832668
1,01427487027387
1,04481866917353
0,985841938788133
1,03722112297529
0,982912932195495
1,0299164624178
0,972620380613159
1,00640463707141
0,971353367760856
1,03532617391822
0,971551450286925
1,03578232491681
0,963465828528724
0,982251556029803
0,917231163486291
1,01096507763447
0,972134738145623
0,992985716097357
0,948518759188784
1,00198204998349
0,963693679473153
0,991567220537539
0,993182375284284
0,971954764050297
0,961534030933751
0,988922888653234
0,921009441142829
0,974560294449934
0,970482916890323
0,99576881897561
0,90268736502099
0,960743200596135
0,911703429943169
0,973580068844951
0,93249761620121
0,93497431728709
0,957665865707971
0,952909232652688
0,871064299240562
0,924441712077126
0,925395490422396
0,949249056111652
0,90536524510477
0,913123272139309
0,944097544504555
0,938773985471307
0,868746626785785
0,931580065539243
0,914450070354538
0,917824489239631
0,892590610267038
0,907538232014997
0,884953827761681
0,904006208397434
0,89688296462502
0,903567293575197
0,906078880319252
0,918881951730507
0,879561561068488
0,908242895219926
0,845901473569651
0,942696173959652
0,870051859524797
0,882604951627137
0,876269574496462
0,881416509026136
0,849210717439971
0,878818126948184
0,844453301356242
0,899391981670818
0,859166543237696
0,852795079677197
0,835314585061484
0,845954156171272
0,838828796961139
0,846272491193007
0,818262425764586
0,841775969374985
0,819511223639464
0,83458362886151
0,813674530785767
0,825686515299721
0,810757310029364
0,841349646998046
0,787568671551921
0,798314706603313
0,79073768832834
0,806460422737748
0,797785945480631
0,796450490178925
0,783724636792999
0,827885325267303
0,770487535484453
0,784519703136708
0,769769799487951
0,757287305245519
0,748453007267838
0,777728512767247
0,755194610260798
0,785002088207803
0,761915440659874
0,785828277711984
0,75997609508597
0,766871627124054
0,744777323412758
0,750081163939574
0,724498070468707
0,753733521089893
0,725731553014541
0,740614627153386
0,720620717208203
0,745621697839175
0,708561735107241
0,734265579067017
0,702483092843122
0,714889824937009
0,710716610470004
0,700161565822113
0,69584640905996
0,701321954365514
0,689394152182577
0,726692491392274
0,681466779001345
0,696556461757099
0,680670748421478
0,703328919714648
0,675299229067972
0,682913557259013
0,670066790113693
0,679881944268336
0,648161148285306
0,668580245467621
0,635679910327073
0,661907811299674
0,631660280110118
0,653188942029728
0,648845874912002
0,653116498236441
0,640884789001018
0,639795956371577
0,615325343278666
0,646456536338785
0,6302146996894
0,640966883609952
0,616221513137241
0,6204189750043
0,608546793159162
0,620468836940504
0,599321046856001
0,615147156979324
0,601453862986076
0,594702546905335
0,592982014333571
0,592248657366295
0,588365190055268
0,5845790097659
0,581855538574351
0,593827702735033
0,579344203878711
0,58838470465833
0,571453588051993
0,57918072600133
0,568749448629727
0,579076955571768
0,554635413053451
0,565314687230768
0,549317171693251
0,563338928251247
0,540839059089464
0,559878067204823
0,539767247020925
0,544239052185956
0,542320994665743
0,545496545709014
0,528799047882034
0,536106011170748
0,519974697180309
0,535385835412071
0,524704368271814
0,515046045756862
0,513760693771334
0,522101228884229
0,511004890396187
0,531348183431208
0,508240060176237
0,524498515219009
0,501661383735346
0,508740532009229
0,504064325467845
0,504646990796512
0,488889933209695
0,496812237740482
0,479861645202742
0,494612112868336
0,487119803290401
0,488008524666331
0,471238333701215
0,485747679512218
0,470716524013634
0,480353802808575
0,469319222569574
0,481814670759865
0,464566703845542
0,470211200168373
0,460532353368025
0,468806117578244
0,459707009344858
0,458090071794266
0,462094347506385
0,464865789637117
0,437374983452783
0,449715040914304
0,445251213993903
0,456125580636015
0,449077961718822
0,437483534951082
0,427090047869645
0,437411274175038
0,43013521777272
0,425419784576095
0,433180293148751
0,43253540157948
0,414697199037543
0,42070375063762
0,409662804449706
0,430692040312308
0,409090855364451
0,410797093639259
0,410808400042697
0,416806996121018
0,40491686164392
0,410442323108748
0,402570455501925
0,401585960546934
0,402238615817032
0,392684834682733
0,378876624592071
0,401084874152665
0,373574402214644
0,390330469788037
0,379904130874794
0,387751118501365
0,375047169483398
0,385747556345471
0,363380777968461
0,376908518052132
0,368717692966331
0,368546693505272
0,366352826714303
0,376994761988819
0,365995136416458
0,366139996723251
0,356762761701041
0,354823244750251
0,356309458380973
0,361506330462267
0,361138847034327
0,354326963564727
0,340924926394319
0,347720662524526
0,35001322495784
0,348900877757417
0,344401656053255
0,337962939133326
0,333086464416565
0,336393669513645
0,334580603220316
0,334955978517505
0,337834372291869
0,329088361802857
0,327763374932246
0,336180729020866
0,326611086145211
0,326543475761833
0,328883923123243
0,331342586236851
0,319618921142693
0,320643315433014
0,321200153394536
0,323858974966082
0,317457332775627
0,317804292115353
0,312214299865757
0,325112433668027
0,313178778577616
0,30928838248541
0,307175838013081
0,31451009200061
0,300950632363073
0,313809328713447
0,302581672231345
0,320819731536753
0,30971625378103
0,314239844380717
0,31088433300307
0,32295813469553
0,309758199045667
0,321831084125136
0,317400667305388
0,318398386854264
0,316668402493079
0,318519117004945
0,313911025616897
0,323964465990995
0,316233393303123
0,322674593533106
0,314400061269394
0,322120819674874
0,326167284773967
0,324583683219819
0,329735735480835
0,328748069331946
0,331315168162714
0,339247892256187
0,325740754434803
0,347091809466852
0,335646767508712
0,337026058720688
0,343261559594169
0,349566776079497
0,337388390016857
0,347448485526858
0,349903909684203
0,354577617219521
0,355378952087927
0,356172934829583
0,351566682491741
0,364003783120308
0,360793090210646
0,378029572959621
0,363459603711351
0,370464239416903
0,363019972499999
0,371080807356106
0,368917888413287
0,375988085060695
0,375592547018015
0,383010947343422
0,37868484475253
0,379706134520944
0,391140129809385
0,401421951576527
0,396766739465792
0,400386516655767
0,392785356093327
0,413243284061922
0,414036746224781
0,420688690969514
0,417268241205762
0,424103963205695
0,420332812167567
0,421109491549163
0,427770944795127
0,433787798200592
0,426608354586259
0,443777068835295
0,427395065559482
0,438358188352661
0,439673113249875
0,443194572471485
0,447450705816289
0,438567337230181
0,435743181285364
0,453847142016708
0,440623505926579
0,441934518571071
0,432867341646554
0,445686776282982
0,447924634909172
0,450130442892733
0,442596320411169
0,451755921860622
0,441838264672282
0,443512926494369
0,44169744948633
0,446750750022103
0,430495714713883
0,446229318957663
0,440599177679152
0,444780993766748
0,452297170248142
0,443284392700175
0,446162405706529
0,451072967355599
0,444836310125174
0,448446676843811
0,441006196472351
0,448414629440204
0,447923808862931
0,451486931669091
0,443874045990345
0,445510984666616
0,443023582563381
0,449844489640488
0,447897895351858
0,447061891301377
0,449503646956371
0,455996572924361
0,443145196888333
0,456974055257053
0,451291477858957
0,453680396085663
0,445898991421923
0,447176238720277
0,453234715825476
0,447857893523182
0,44942274582618
0,449375077677659
0,442349183041563
0,448935212135747
0,437220737391382
0,450999866497142
0,444786300866516
0,441760335191424
0,435196257025496
0,443727789233797
0,437327911105173
0,443341728842291
0,438055286970555
0,447916457500998
0,437609794026581
0,440971295855892
0,426752151125235
0,436156911340129
0,415898096947397
0,418299663720229
0,416089433316601
0,427455767913963
0,415371772695346
0,415124812053034
0,407817603160022
0,404049175851081
0,407916010204104
0,403826392181893
0,398720784074108
0,40290494470615
0,39541535647507
0,391565646840502
0,384269821366788
0,389305041116273
0,374011356858554
0,378392237812476
0,375423763179071
0,372825898260526
0,371806092725603
0,370189586340957
0,361603066165896
0,35668749343169
0,353668162768924
0,357479384672093
0,346463596205299
0,349777577188578
0,344906944150916
0,351207956624461
0,334189085193861
0,332238496787839
0,338468121057658
0,337906670305134
0,332948855809094
0,328261964072915
0,329384363173424
0,324053537573833
0,317393996367866
0,318834012312715
0,313148563975474
0,310373382313498
0,312743737769189
0,309364144659467
0,310656278294987
0,312052455827307
0,306149420863203
0,305394476384052
0,302606632026005
0,298132955783244
0,296158585523769
0,300153873319439
0,294341107486514
0,297000065276752
0,287839966001715
0,296068002534764
0,285771611507588
0,283022520262634
0,282128341764999
0,289592838227218
0,284203198486207
0,285560466594284
0,280872392871668
0,28474200249798
0,276251840408011
0,281427278238323
0,276358837314274
0,276008674547434
0,273140051102266
0,274354467307086
0,273797950731595
0,274650170027738
0,269976747615425
0,26825244584195
0,263908112135603
0,261402744770187
0,256985529989677
0,269003550794899
0,261689881544386
0,262590724206204
0,26377222446822
0,262527720610013
0,258734370514539
0,260827765469412
0,254083874650871
0,26064378008092
0,258477337770218
0,251805432687173
0,249205097589253
0,252125014603578
0,252593545375964
0,247333881980154
0,249756866244697
0,254121142575688
0,245817350132235
0,244820250680054
0,246043812332436
0,240543973321818
0,240530176765584
0,245664717625272
0,241880082169287
0,23949341083566
0,239450601274685
0,236335992020397
0,231957754103937
0,233942375155949
0,235025022538045
0,232586815222268
0,234241745082304
0,236620053356131
0,235796879591025
0,233473436593905
0,228543453415416
0,232956008781129
0,22774968457268
0,229141607440594
0,232699115382129
0,231077558330481
0,223435937395048
0,226305429040804
0,227724606547097
0,229437158108261
0,223640152198632
0,221541423103439
0,225840233177532
0,225414910719515
0,21818075556101
0,221308126737697
0,224700452330105
0,222431456329966
0,221203276944913
0,223737369685789
0,221142910658622
0,224374120274642
0,22052031359923
0,222052228362333
0,215505602938982
0,217548198761586
0,21782812192648
0,214144843381438
0,214298151837781
0,214217035157717
0,216562434192155
0,219589844609169
0,2193650677143
0,21453372931268
0,213694637979799
0,218578720277273
0,210791673030109
0,211404493506773
0,214040748682587
0,213831856607278
0,210975821902176
0,216274650609988
0,213065146054151
0,212904367572847
0,21388576608571
0,214875962949024
0,211086151908261
0,208277299397653
0,206412687177907
0,208497998149528
0,207853884213985
0,209057720779063
0,207887882472916
0,205801650848375
0,206457099028666
0,205089155612668
0,205172633616432
0,207406702700721
0,200438994826563
0,206120691817438
0,201444226655701
0,202093526808193
0,202816604674581
0,203654309607337
0,201825568650297
0,204542788984339
0,201867300566483
0,196165898102301
0,197080485888076
0,198772147257521
0,194562715862583
0,1989587337642
0,200645916912484
0,200451250691734
0,194727352449307
0,196749867438587
0,196846949112399
0,197842366996259
0,190816810059759
0,193693357008282
0,189863896234496
0,187964714686035
0,192091778103669
0,192148294427476
0,188202500664848
0,193390154201565
0,195130468641938
0,190974286601207
0,188689605811437
0,191802828387772
0,187125880404885
0,187752080227482
0,183946288513102
0,18488034374144
0,185409583355134
0,185177972802979
0,181949622047651
0,188610011117126
0,18354787506344
0,18035942980356
0,184926320408407
0,180773682688126
0,17933496685673
0,181158111020683
0,177608955377085
0,176488243841672
0,176300192647121
0,177384581895865
0,173850921665348
0,174462231779361
0,171136609512871
0,168684567550262
0,172008225218554
0,173566977400275
0,170478410175601
0,171948181569042
0,170759361142648
0,167842286747336
0,164823542120735
0,16523772411342
0,166154370536271
0,166303682030714
0,164887468297491
0,164363972134835
0,161016645279663
0,162734620117605
0,164860244159399
0,162791453807983
0,160363312003118
0,160488322259714
0,156486591845971
0,158112107423489
0,157780033925116
0,158582826852717
0,15776514132076
0,157175489326173
0,155689460392602
0,153593661510786
0,150767771778325
0,152575596242025
0,151036339115942
0,151983273093657
0,150494474510146
0,153355088360665
0,152196516869437
0,149319216030042
0,145906511134689
0,147376453042034
0,14265528322671
0,143871751176821
0,146636251074983
0,143402753132307
0,140451805796906
0,142248992202235
0,142048052710222
0,142884931269577
0,143252450422596
0,14370763262471
0,143183506953554
0,137769431809732
0,13770218233582
0,136784268605342
0,138526520082222
0,140459968030113
0,136250436292994
0,13345691976508
0,134374209897299
0,135416985846009
0,134172561970978
0,133342693114977
0,132751696861105
0,130697193151628
0,129406354290087
0,13225488263012
0,131427256981111
0,134176187636721
0,131275567177689
0,131498257399967
0,129774632641549
0,128258127621832
0,130595766559479
0,127770837093647
0,128436894315191
0,127365771275078
0,125986526441764
0,127148717775993
0,125936547308057
0,12547017217544
0,124076163757899
0,123819662191766
0,123625579236192
0,122948848239434
0,120943510226617
0,122223006705854
0,121680006809671
0,123275307949415
0,120495092801703
0,118093984896422
0,122561136162258
0,120978988246476
0,119860381121321
0,121299431334441
0,120166865757471
0,121466958909918
0,117504331359142
0,118317527134571
0,122542483604928
0,116952603548749
0,116000934287789
0,119276524427468
0,116699910380174
0,115029684912996
0,115761534129374
0,117678039837656
0,114929801281109
0,114922283279354
0,117693083959739
0,117742952954436
0,115068042807756
0,114389608621719
0,112911872587652
0,114632305509327
0,115028817580843
0,112202498316906
0,110317451844547
0,113469192588818
0,115368357780477
0,115169183610233
0,115056525108111
0,11364116240429
0,112563716394688
0,11015014356583
0,108150134373418
0,108242687585645
0,111745013239869
0,112729392584382
0,108009763644855
0,110736133292691
0,111194184351947
0,108843997943194
0,10815850187548
0,108113264002193
0,10645463422246
0,105100601545005
0,105868975237968
0,107042130096664
0,106334047657575
0,10619156771216
0,105900775479492
0,106619903059218
0,108194625837218
0,1071059505331
0,104713061413051
0,106199123273401
0,104708630936708
0,103479942516669
0,104976737026099
0,104681238903365
0,104489860424576
0,103663294640602
0,101051885716916
0,101349422621648
0,101968659691164
0,103831586586206
0,102333920149213
0,101484341035929
0,100988591577124
0,100876202050093
0,0990970192671703
0,0998275854220513
0,100863068299355
0,0988497995131965
0,100280506136293
0,103321869269313
0,102556962325613
0,103468587949798
0,101791275467708
0,0980063323852214
0,0981997358039758
0,101088178181568
0,0986951198326091
0,0970575231528524
0,101739683079409
0,0991644832392122
0,0982697407408864
0,0977332314270315
0,0957085161610912
0,0950483570197017
0,0946344549656975
0,0936761845398803
0,0955382634013775
0,0938564166773423
0,0920233701173187
0,0938099006666275
0,0949541524693603
0,095585549281266
0,0950037170877075
0,0934327770539012
0,0918709201429206
0,0948153163954062
0,0915743677575758
0,0900745641819926
0,0918060796448088
0,0895810953461759
0,0922812659940227
0,0922918577992464
0,0920733242767
0,0909477398767595
0,0908117780312324
0,0909532208761964
0,0913759096519792
0,0885788921102205
0,0877070557595708
0,0874011178578435
0,0855476759937177
0,0857309760521772
0,0875181486575933
0,0882009791482265
0,0870652133326676
0,0854355362619109
0,0846391350848337
0,084978789080132
0,0857260145982018
0,0865383679943166
0,0841894125622601
0,0813968818812476
0,0827314394612606
0,0843856849285613
0,0813198610082019
0,0816522138393804
0,0830108342132861
0,0807710872272888
0,0802897930039653
0,0807235228128592
0,079417567458702
0,0796917419178701
0,0822471764144175
0,0789410892704119
0,0752896829363261
0,0772097947924456
0,0779758513967576
0,07796273585542
0,0775096486863695
0,0783553991433953
0,0818159190433559
0,0773396628061112
0,0753662085446924
0,0775393191814211
0,0738149850429674
0,0756180474722209
0,0748544134281671
0,0742252730235692
0,0739655118313431
0,0743445275549686
0,0728630076260804
0,0735256031808344
0,0711210263759162
0,0738005254896767
0,0750461078851627
0,0727372248184781
0,0737538636134566
0,0718174216203773
0,0717385149114446
0,0726059060265277
0,0709723173334018
0,0717388079061325
0,0690414454526512
0,068835868693004
0,0691374675623719
0,0690196073733813
0,0665199313937314
0,0680415596303345
0,0683031317083005
0,0691889581505497
0,0683354126984813
0,0685887554192417
0,0683412492145181
0,0691919695460944
0,0669802399509089
0,0662486857903056
0,0671218067208585
0,0669888351684122
0,0671944190162988
0,0668852611094312
0,0629311738059351
0,0632920126679611
0,0648668279329145
0,064926717909451
0,0652127064823693
0,0606348606956453
0,0626819394803466
0,0624390330131151
0,0631539131812553
0,0626835911629342
0,0615800789158906
0,0623855709624809
0,062649997250142
0,061559199474787
0,0616760220183785
0,0605213092265946
0,0620832185736426
0,0640574185509901
0,0625967988196282
0,0592158511571821
0,0614253239543568
0,0617834634574102
0,0632243097660168
0,0619344862509031
0,0618484779996437
0,0639118144637529
0,060081175082538
0,0584826496294729
0,0567097425806709
0,0574343083439834
0,0603359065619807
0,0592342579117783
0,0583660878204669
0,0572281400825522
0,0550852156017186
0,0598656623656515
0,0567491794901231
0,0554032504031578
0,0549615655477864
0,0566787330215634
0,0561178183070316
0,0524407875796603
0,0561991649532011
0,0509865865195939
0,0496010203365515
0,0504344574485846
0,0530753340364096
0,0545765349476653
0,0546256591932125
0,0530217406815618
0,053012572783536
0,044656552307272
0,0557612268747533
0,0486641069361673
0,0509264358251031
0,0556637283287478
0,0521732873953493
0,0536816803218331
0,0532915385883492
0,0536213855969671
0,0523045935741098
0,0509790557333277
0,0523279309680497
0,0524968374488531
0,0520645986072192
0,0538284697375075
0,0548385450532265
0,0514887564692804
0,0500844635784626
0,0501110900162381
0,0515353986220811
0,0484121197842899
0,0492598196843427
0,0505531280883781
0,0563936307964165
0,0513862421434948
0,0531295610607937
0,0504779625379609
0,0566750171605192
0,0484835529546748
0,0528175109343985
0,0497790760095689
0,0528658138450256
0,046599753572471
0,0521415052641093
0,0505064405633615
0,0545546876939452
0,044852363610628
0,051593170965724
0,0449413121486126
0,0539426886240991
0,0484080991344336
0,0504993076900819
0,046240652781093
0,0514623316097494
0,0487536665283536
0,05193538828354
0,0522479850499165
0,0469501945810252
0,0487132492927275
0,046962034469532
0,0530308177202329
0,0469596678924483
0,0542877176936349
0,0469661374322049
0,0493427153347825
0,0485226186627789
0,0506089956267134
0,0464153712751229
0,0506530430184165
0,047991055758984
0,0486839330773373
0,0517306280093643
0,0490677450288535
0,0470019800925626
0,0481492201760788
0,0486269838848943
0,0494473467674425
0,0509745013665336
0,0514847687264464
0,0492205732502826
0,0486168183399804
0,0498222354597343
0,0480527937798686
0,0508945793781921
0,049285375954914
0,0477866035722289
0,0480777743266906
0,0481434154923539
0,0493600815136643
0,0509309534261354
0,0495672724573576
0,0478134368874793
0,0482982440702406
0,0498250081667075
0,050040199549186
0,0487732277446945
0,0495170135566881
0,0479955335208186
0,0461005623272238
0,0462329115582032
0,0489698081632395
0,0475101185896697
0,0489903491577416
0,0477699662230917
0,0487829808472106
0,0491816235399302
0,0498409852417042
0,0478876075397918
0,0474991083482058
0,0501341688011841
0,0488412019787513
0,0467532503308075
0,048443549571162
0,0470238897486606
0,0482282136984718
0,0477057161626783
0,0488440716044591
0,0475355041770516
0,0476288632012887
0,0459770963983815
0,0507559947834986
0,0485155631408675
0,0469321632055437
0,0486719104663472
0,0504529727272443
0,0499841681908677
0,0479848569448246
0,0475140008325367
0,0470097588102403
0,0495817398850181
0,0468189652760245
0,0490503725152094
0,0515293855525642
0,0488458079893869
0,0493634610315602
0,0465806900138053
0,0489197413050744
0,0514908503867465
0,0463237117703374
0,0472032954422551
0,0489323214133622
0,0485113596537791
0,0472125549247909
0,048081446062223
0,0477940793083447
0,0485988537360969
0,0511308717038505
0,0470755398720627
0,0470410563875346
0,0508820503058071
0,0514873358991868
0,046814862408293
0,0470711957326633
0,0456534283169764
0,0492225401515638
0,0501660766803505
0,0498518688674294
0,048326335831424
0,0483090488743941
0,0495958311745768
0,0493494198747588
0,0495511730109303
0,0508076674377014
0,0497228070032215
0,0476098719654434
0,0468157055777554
0,0521179740689945
0,05208207724012
0,0495333592322086
0,0466109457898028
0,0472963128222704
0,0499627661592929
0,0508510345369839
0,0500050990382895
0,0498473324680186
0,0504583316134708
0,0530407054587117
0,0494819064462489
0,0485081292087731
0,0537879971422447
0,0505440582402163
0,0493945431123357
0,0504085862150604
0,049764656141714
0,0511396352155345
0,0512124275643795
0,0505332115552673
0,0506547617552409
0,0500383127717406
0,0504466432421232
0,0526856851265242
0,0524142870104702
0,051484437506461
0,0513055358588268
0,0510406133017208
0,0521434222163013
0,0509109975439757
0,0517951981466406
0,0506005783990874
0,0514273594668775
0,0512007355600741
0,0496174420524277
0,0501982503948631
0,0508655688437825
0,0515561173155654
0,0528252330160267
0,0525639428088231
0,0516928293835264
0,0514497053157637
0,0533096030876423
0,051300726569388
0,0526844847967243
0,050778304245887
0,0504950456233038
0,049415890404843
0,0528634127934294
0,0509596839553787
0,051010554059737
0,0525829772402373
0,0519010006037583
0,0536300307764177
0,0528108811595044
0,0547635400320449
0,0528473504472538
0,0543487792679869
0,0546252510759935
0,0539367015898143
0,0522895948582177
0,0517156830653736
0,0532916117686738
0,0518183328952864
0,0562356483782009
0,0547349559130333
0,0525766090907129
0,0531143493399573
0,0510458239569878
0,0544426756365284
0,0521611454357772
0,0527243268056554
0,0560163881037185
0,0521512016262005
0,0524830038602451
0,0522493895462508
0,0525740326313815
0,052874462070219
0,0509067149284391
0,053110910145637
0,0526338393417043
0,0516468607544241
0,0525143564180375
0,0506698814162208
0,0520323553609259
0,0517518896164919
0,0518224865236334
0,0510687746284052
0,0524834247952721
0,0540743018828122
0,0509647158345047
0,050088699126
0,0503245547341981
0,0509894130748671
0,0520472546126647
0,0532358092727306
0,0508282296614093
0,0499413965140454
0,0501590707061371
0,0525134937442329
0,0495929908072734
0,0497897077654066
0,0491669800405721
0,0507198252049474
0,0515042893969423
0,0500491864264604
0,050245454942452
0,049604162137013
0,0500478658053263
0,0496741703679909
0,0477683894463842
0,0496767076670508
0,0499444574323138
0,0494081638368092
0,0480418464414959
0,0477345155625119
0,0496337087038496
0,0504268586805257
0,0483546728401341
0,0472015247384598
0,0479182631330929
0,0482872560409999
0,046895180127189
0,0511984449725936
0,0493702625368091
0,0484005180573617
0,0481439323855912
0,0468176302856856
0,0454318245955683
0,0484555745119003
0,0481142189203043
0,0468314790530276
0,0488609365889396
0,0488323153953898
0,0484295453823845
0,0497348776084338
0,0466835433568329
0,0471621275142325
0,0491744128049632
0,0467012349392654
0,0468088973799188
0,047058775775516
0,0465840205583625
0,0474183320182772
0,0486172510685172
0,0477445075269219
0,0496224087245542
0,0453597066037827
0,0473051256625567
0,0479855371967214
0,0464402241181624
0,0475614907688681
0,0465742778258756
0,0459479025066891
0,0483887896801843
0,0482553117422231
0,0476909867177488
0,0481653447914733
0,0485890771675289
0,0497634973296948
0,048379126752307
0,0438908541164969
0,0479264569836458
0,0487750120244166
0,0483907246917465
0,0473721976160851
0,0490308840777119
0,0478331122766262
0,0476710020415245
0,0479534982488802
0,044210139261909
0,0458161481575802
0,0452434278116325
0,0462443426059933
0,0482510359477328
0,0460490294845993
0,0474937000764486
0,0465170116352818
0,0464817930881111
0,0456176347139558
0,0456148632959584
0,0450444910055876
0,0477501160662292
0,0467453393670401
0,0452977541664768
0,0463406327691647
0,0438647059636093
0,0453394144352662
0,0447249858843565
0,0477000982110347
0,0440086716693729
0,0443903078239948
0,0465919549203574
0,0454768954161646
0,0461035409023282
0,0461533399241439
0,0447670204315643
0,0442772032877395
0,0425377826159913
0,0443219512768261
0,0452613451084168
0,0422201858804664
0,0466302914380092
0,042427685360532
0,0434041800348204
0,0431208579575063
0,0411911988422696
0,0406020336334688
0,0428930319999839
0,0454432063132041
0,0419140453977508
0,0457892383868826
0,0433843192522272
0,0417334832697531
0,0430551259365881
0,0404340313189926
0,0418219581614468
0,0419948466993087
0,0396718772142361
0,0410170089279054
0,0418944398578534
0,0407992866848465
0,04022054948615
0,0407837178321177
0,0394440570019783
0,0384730823882264
0,0400424032154591
0,040218654603307
0,0379331905960492
0,0383369070999263
0,0409683525306767
0,0408576002461759
0,0378438736596107
0,0366423111319207
0,041653545191318
0,0394989527325707
0,040380195673866
0,0393427122502712
0,0392928863886504
0,0337282841722874
0,037340560188423
0,0356662162347205
0,0386963712303542
0,0399284037664108
0,0399013133413726
0,0361805761442533
0,038911214766244
0,037531295771276
0,0394542148411033
0,0379633743965119
0,0365472449675997
0,0386038549051343
0,0375506521541736
0,0382207012696645
0,0383867696450178
0,037264287379802
0,0381121376517832
0,0375078416822403
0,0374500084563706
0,0388372541241811
0,0380185840446092
0,0400179607375338
0,0384950980525104
0,0394703563355837
0,0375197467906317
0,0354854527212916
0,0347415655497604
0,0357270089105805
0,0369591065587087
0,0375294596020745
0,0356682580696848
0,0358204094239112
0,0360394175993509
0,0359287065249633
0,0372684007501228
0,039049519443093
0,0357800622507695
0,035966471468506
0,0351774372932323
0,0380743866298621
0,034989614142372
0,0346503956840239
0,036952053199795
0,0365856091475072
0,0340249609740236
0,035637037286546
0,0341065495680306
0,0365688935145442
0,0382770063596391
0,0345971821764158
0,0349406946209957
0,0371092008195885
0,0365856368631519
0,0336095091763917
0,0342646600503544
0,0342436247894447
0,0357061782999291
0,0358732108611083
0,0343721589502967
0,0346326394036397
0,0349953006339685
0,0351476734198421
0,0347818895904722
0,034559876594567
0,0361978807346208
0,0334937945023443
0,0345191074356876
0,0320604020011864
0,0361662165619117
0,035667024428692
0,0351717427007111
0,0349811914546111
0,0359972103600512
0,0333597500915421
0,0318542101992142
0,0353782812343476
0,031675967095033
0,0367075067716469
0,0360296832546916
0,0314452902424806
0,0348534572701319
0,0338276351391998
0,0342464453363748
0,0336465524381475
0,0354941405525151
0,0318555469689166
0,03524219676708
0,0328454894146165
0,0350297789758923
0,0352637821379174
0,0363201412774521
0,0360451194443838
0,0359537788297246
0,0334814897650891
0,0352699979155286
0,033584739254609
0,034517898430967
0,0351657253580698
0,0338935196519886
0,0347908176694461
0,036707062480143
0,0322652986900436
0,0365195475372919
0,0340367020459766
0,0337709734416064
0,0336620180328556
0,0369372696706994
0,0334489083213341
0,0360189992203499
0,0350938430348393
0,0328954155585436
0,034054976341355
0,033965341371656
0,033204924337356
0,0324004868314438
0,0334677591657502
0,0341957366492227
0,0332916643785419
0,035530377064517
0,0344487708257212
0,032708265381352
0,0339058946576974
0,0361431823213166
0,0349027378013929
0,0338141847272326
0,0336195599907435
0,0334763175316174
0,0327232539830169
0,0335026874298354
0,034662794417204
0,0383026496207845
0,0329088096176971
0,0325884783898067
0,0326866127556873
0,0347496525670495
0,0312112332621582
0,0337180354563953
0,0332697203760197
0,0372573432149584
0,0335432542682046
0,0341431226584001
0,0358222551499137
0,0350574515774839
0,0348746856370423
0,033515215032267
0,0327527432161576
0,0342175991816216
0,0353779359019362
0,0376037601155803
0,0325416483208847
0,0325882756500259
0,0332869570219779
0,0338629625650834
0,0334537591767706
0,0331674634331565
0,0331624212646515
0,0339525130568646
0,0404703483690713
0,0319198177772254
0,0366844040157265
0,0336961945482337
0,0357261264727982
0,0353776279719995
0,0367108026594994
0,0357745324447923
0,0365020501175537
0,035961402949314
0,0354854272734051
0,0335917905922614
0,034438821888717
0,0355943404383135
0,0357989171904141
0,0398825782147181
0,0357138421336702
0,035120469825315
0,0344876867694752
0,0348175185845704
0,0384192552849282
0,0341213284879168
0,0356239322100609
0,0384136031011521
0,0359124130642385
0,0368505855322236
0,0370848210576101
0,0384156909732956
0,0378374220425197
0,039201901269886
0,0363897574914052
0,0372884665547046
0,0380016919308424
0,0380355559707518
0,0369350643513052
0,0358806041651622
0,0376597228508208
0,0379149581596323
0,0402660049100309
0,0402203187846053
0,0346090288156524
0,0381777606552473
0,0365878188339616
0,0366284689460954
0,0397295597060472
0,0393489906216174
0,0389977403836394
0,0392202907857838
0,0393605286907803
0,0363836739908984
0,0399850521572615
0,0410179118275281
0,0402367801082702
0,039303795516999
0,0371405394790551
0,0470949944023921
0,0396307663904492
0,0409163416073444
0,0389033073053099
0,0424682118448486
0,040942975336144
0,0423359007389845
0,0416777315730855
0,0396404705315858
0,043264466725659
0,0401974341163662
0,0431072726028137
0,0427974482923549
0,0455342692327
0,0411984044113024
0,0432241596077861
0,0431723795314595
0,0433034093261121
0,0425254044815685
0,0425752467277927
0,0424371493885223
0,0445239267550836
0,0506093564191398
0,0407113296959604
0,0421190870287009
0,0423801444664559
0,0469949262863231
0,0446318921918633
0,0404373382804791
0,0461750875649472
0,0454241800341027
0,0471807954571232
0,0469329647978979
0,0484790970073529
0,0483366461504518
0,0471111313451425
0,0477572125297129
0,0445836989774111
0,0467161140718082
0,0519606242840561
0,0483828373185648
0,0507012558499602
0,0497849830003682
0,0528521527300318
0,0509145772318875
0,0560502980477676
0,0498284222045891
0,0550661938204197
0,0490303478162377
0,0540603412602898
0,0540438510965805
0,0545752303596656
0,056057101739106
0,0609193628565231
0,0604059071298814
0,0540049660836655
0,0582952320398768
0,0624643378776756
0,0630702474355371
0,0574956344656781
0,0577000193788517
0,06327989151143
0,0667583280180349
0,0721076028899464
0,0664419954115768
0,0665986638128953
0,0675689157993528
0,0722115919067839
0,0716279705682255
0,0669148420742066
0,0723631727172617
0,0708415352114623
0,07367084264474
0,0729327988816022
0,0771225525128703
0,0768199424379454
0,07517290755791
0,0789073754810516
0,0774143120570635
0,0809426667937694
0,0812456375035345
0,0789108912467226
0,088291355009161
0,0867193108356527
0,0856615290270858
0,0808904475217939
0,0864927863111774
0,087993118003978
0,0896595164645583
0,0911112239593134
0,0907375438638143
0,0908130192472934
0,0943362199931048
0,100186090922389
0,0974075369284088
0,097165856419328
0,104212267013853
0,107227424694554
0,111409470039302
0,106535021939047
0,115013492139303
0,109820452714632
0,121706934721685
0,121196023820709
0,131275208724198
0,129702328863045
0,135619473974465
0,140374470190214
0,144579153041703
0,148586149992506
0,155599613101328
0,164511322426638
0,165291571579468
0,166452293062002
0,171463128502721
0,181914098559788
0,193164194546757
0,175676812909043
0,201742052989368
0,201821555181125
0,210574130889082
0,214983801784404
0,220261683112988
0,224171151445153
0,231541605751661
0,241639214357569
0,251278703534966
0,25337230090016
0,260109838941995
0,261748263185237
0,270333314192211
0,278442604818726
0,285404247135016
0,282326152103764
0,292255652511049
0,302113644623048
0,309442574322518
0,31400798276953
0,321220237780048
0,327042400415405
0,329703071617727
0,338608668892067
0,345713052806908
0,34000988540152
0,351280915915017
0,35585311215313
0,362392272372144
0,363777560290204
0,372082686480154
0,374787438900463
0,362474438187598
0,371769736449623
0,37359722824427
0,369204187848636
0,373952775451025
0,370395998941796
0,380018760212883
0,375447815798505
0,392346226761008
0,379149291971367
0,38479277490969
0,378284393557958
0,384620614940547
0,383943550115509
0,383831728908598
0,387656400412434
0,384033447997964
0,380611910086798
0,382538234773014
0,379314276604488
0,395518954774505
0,385725607389542
0,383202208925089
0,379787730149274
0,382721661798353
0,373945297808824
0,378072381830904
0,384338621344688
0,372532492702058
0,363724867079166
0,368247907647325
0,364042502778269
0,374077842550947
0,363575319685529
0,358252228667482
0,350605262551697
0,348415148914027
0,343615148749706
0,354509409581498
0,361895390697261
0,341341697644113
0,339770162213888
0,339826109945309
0,336280035202379
0,332961820900536
0,326404956617263
0,332113479825576
0,326465562914128
0,324833997436255
0,326386634028222
0,322462048255345
0,319183985566744
0,324777068176329
0,31456015506307
0,312916766108294
0,319079576461205
0,321944117007118
0,317370151406053
0,315313070299317
0,314164009397552
0,313065817017947
0,313343729859173
0,31994920976685
0,313072305050783
0,312851246009583
0,313981999060183
0,310510922890791
0,309470781226846
0,310991522005675
0,310675900072049
0,309740881556423
0,305967472682994
0,304064864751274
0,311075605178371
0,311733295878431
0,307733655031026
0,308757677824893
0,304143162288992
0,305981515494269
0,302695610749978
0,305283123940136
0,305525798854623
0,300600267915567
0,3048885464343
0,299719024792321
0,297735036239341
0,294829264982716
0,290946877440891
0,294070657651586
0,291653702559943
0,296556264577483
0,291169742871594
0,28331919777645
0,282231056080171
0,283589580896403
0,279995507670369
0,279585702836076
0,276614482787594
0,276563231549996
0,270862648314001
0,265794614806815
0,291584561748929
0,277988376430171
0,265004054497656
0,266642951246441
0,266125477132001
0,267816856941543
0,266823276514998
0,26499518100009
0,266874179608535
0,262910945481599
0,260033632052266
0,26666696260601
0,266433985266109
0,263129937556316
0,259756937544802
0,261954703316016
0,254896066589944
0,250154668254682
0,255881078575098
0,258674440680134
0,25292797271932
0,258707172067403
0,251504839818024
0,24615466372101
0,246537927326471
0,245574012654635
0,24196870605876
0,247705562973385
0,238036449490883
0,23403715424157
0,231802148499907
0,227778693027077
0,228321175266194
0,226362899509127
0,222206611917052
0,222406980000594
0,222289947842325
0,224319993012958
0,216802198589166
0,215816844570841
0,221151943606318
0,217705306610599
0,21394965680804
0,212340901252565
0,212400110377589
0,213897102987082
0,213090072187225
0,209795859553922
0,203900463752968
0,203459893297
0,201927734071314
0,200094274382559
0,198255241520032
0,19180588205603
0,19182748470993
0,202898082429809
0,199224794122011
0,194097758579023
0,190193027200603
0,18429279671921
0,186669519226666
0,188199499113838
0,188617795577235
0,18409747594039
0,189063138885187
0,18694731772513
0,188362413182557
0,19040356588676
0,192959463762923
0,189404416613526
0,192910610917544
0,193528367203493
0,192170638927315
0,196047034958056
0,201395029704305
0,202430481082
0,201939518558932
0,203602375986169
0,210336588313941
0,207730876518966
0,210517654764274
0,21197356641092
0,217285400944702
0,220593652462462
0,225893191681176
0,232094847301711
0,236444600904588
0,24261676990339
0,253269576807969
0,254148072714942
0,258713297849994
0,261732040125135
0,270505186088753
0,277984575849814
0,283342144908225
0,283802362432331
0,290671101331826
0,296460200976731
0,300404555039744
0,304024326492586
0,312277149163746
0,311796817028925
0,314955357090233
0,321746645638869
0,329059899820517
0,3314210370061
0,335796779345217
0,338125028912015
0,341016998701739
0,350684240487233
0,353287753059011
0,355336215955368
0,353924491182219
0,353412485027003
0,360277479711228
0,36279875957188
0,363222573635388
0,366827228879807
0,368837823403786
0,371891964828704
0,374872938043097
0,369238598777401
0,373672105576431
0,378016979330953
0,37856680961628
0,386049044243941
0,389005774320795
0,385415240840793
0,390314925252645
0,392871369396116
0,3938001328766
0,404479920377385
0,410588834139147
0,39930386747585
0,408979548566538
0,408718020281931
0,410941521950969
0,4177621824996
0,423871989779414
0,420362141490023
0,427921653240349
0,433170347600279
0,434538997910814
0,43543803045045
0,444575115784616
0,43783245259163
0,442286943183826
0,451607498655695
0,452272259517906
0,452838211302942
0,454444985479726
0,457269934480074
0,461159683576423
0,462146348848801
0,46407394628133
0,467647425026413
0,474473686839114
0,474615372365658
0,47510515748543
0,473922639777796
0,481131338342802
0,479524592636035
0,478992001367532
0,475749793854666
0,474927955034363
0,476769557718047
0,479612668498572
0,473714955181877
0,477581417891508
0,475318722851861
0,477169372796787
0,474962131848289
0,471585886309858
0,47623948629706
0,477006125376637
0,47313220359282
0,479717766638277
0,475103265121925
0,476263689335755
0,47540365726993
0,476433293209903
0,473775889783239
0,47532483834133
0,478422077197448
0,475652047903651
0,476190490397003
0,482489181952587
0,483468867919895
0,486276183575221
0,490893844800435
0,489938367442721
0,488709935283962
0,497722563718481
0,495392385375508
0,492597436892038
0,500285216555515
0,501936279415538
0,499279590181792
0,498049939484781
0,495031440930487
0,494372936676282
0,493767957998885
0,494529617516119
0,49521341212773
0,497643278125956
0,489100015060492
0,486374872060688
0,483200143743596
0,481221738744964
0,474736437540275
0,47510131179775
0,466253733180022
0,469788156366705
0,464732820945631
0,461232445045216
0,452715980925537
0,449062991127196
0,445227901106127
0,444849353097448
0,440065752953432
0,442361214574071
0,436995352631046
0,436052235180791
0,434013858854421
0,430632174921215
0,427048694447184
0,431078591489441
0,422269604300478
0,424689381553741
0,423082148079021
0,42605696775422
0,42465858718601
0,4257707908904
0,423597830881502
0,424301473007418
0,425527749570286
0,421798885833711
0,422823849318195
0,424713688659057
0,422298940750029
0,423368399035846
0,416774730515754
0,421681182130447
0,424214250576892
0,42135948147232
0,418056449789438
0,422492444701002
0,423011787998608
0,416444302832906
0,414236803317155
0,421643659206288
0,419119129181877
0,418464771747114
0,416346513357865
0,418414402049107
0,415382029707713
0,414665518592253
0,417200557157957
0,415084844069221
0,414137882323081
0,417837559665907
0,418200340066372
0,416936840785156
0,418093691636389
0,420500771748814
0,415590819631665
0,41886942381081
0,419244681996207
0,419837739423234
0,41553936736916
0,417706526650737
0,413564403546845
0,414450067291326
0,411590622112957
0,409894550725802
0,41063089870224
0,409950339253454
0,4072565691633
0,399198027983396
0,399243629486329
0,394327771043422
0,393600914002892
0,387785100204654
0,386291182858873
0,382878444577145
0,380686572428412
0,376428059086619
0,371580596452147
0,370125836204037
0,36535688997936
0,368058488894504
0,363642254486771
0,359017289087142
0,358260205892483
0,358366823773483
0,356821739512265
0,357396599087857
0,356209059585493
0,35621583113199
0,356518039401851
0,355409850004837
0,358363490698054
0,359841150781042
0,357391392384916
0,358757738482983
0,360095086293482
0,359591347998235
0,360383855992521
0,363433438673473
0,362223859503853
0,364121544337814
0,366455182525821
0,369809103010683
0,368785522496963
0,374517670842836
0,369556209884192
0,37301313449739
0,371889906703592
0,37571825877222
0,376894961689574
0,381970826371433
0,38172819684261
0,378917303786654
0,38157890857305
0,381824807977902
0,380629417916576
0,379315993991608
0,381743361495346
0,379440067484223
0,377258714775903
0,378274845386488
0,376652647572837
0,37790711869928
0,378190266508427
0,377925226260817
0,377533181509597
0,373475501573367
0,370358350570569
0,371952456503587
0,369107065131591
0,367460276860605
0,368152162637424
0,368109350412587
0,366574411156087
0,365039356794325
0,361674638978066
0,360851833277394
0,361347915594323
0,36160972292597
0,358026927243711
0,356258153551398
0,352701254190916
0,355507108913456
0,355165856815172
0,355725930618892
0,353729107179095
0,351293675245008
0,350200110896442
0,349393090057097
0,351824973614338
0,345927446977363
0,347161757379861
0,347408744907841
0,343107780294319
0,340700250074102
0,338694384446536
0,338485942614482
0,334802363477286
0,334758635628562
0,331003118869558
0,328528466741694
0,324287187326258
0,324603739576412
0,320167289729638
0,319824001544456
0,317697385163907
0,31698437923458
0,313970072249481
0,307875065524506
0,307541485920529
0,307513292766675
0,305493386129291
0,310319637707686
0,306538960377163
0,306206559532582
0,306257314484822
0,303708120760631
0,300930585811455
0,3028926364345
0,299931301920175
0,298212722985447
0,293016334785882
0,294300276691156
0,287963166031087
0,284567978341647
0,282468608318167
0,276534460683516
0,273973984940073
0,271836607721556
0,270876274276573
0,269955238553301
0,267793436216569
0,270573025956418
0,270060397969159
0,275176181534908
0,279697497782435
0,285934641827
0,292801437250909
0,300632069286558
0,311469363565839
0,32321005151209
0,332893720108411
0,34610098375002
0,358860098228045
0,372298929959142
0,387190125882937
0,401936905040288
0,41672155383661
0,430871531781253
0,446225222369725
0,457838147445592
0,469015595645763
0,483824078598787
0,495501846703813
0,513579464115071
0,525786728604036
0,536935663359436
0,54724635560393
0,556834823620983
0,566171745227735
0,57765558087317
0,583154821996642
0,591073372401828
0,597906205435915
0,608102262232424
0,610736195976797
0,620503908641611
0,624906023170816
0,629412548809129
0,637972865268534
0,637801330666613
0,638884696746973
0,634485805101656
0,643489998295892
0,64462284410037
0,645599136222856
0,645878664386882
0,642081971772126
0,647936054739482
0,644882295339997
0,647521424010822
0,660391240452062
0,649377392708513
0,655706738767417
0,664541458167228
0,663823723296856
0,671650545286765
0,67701445475489
0,683677487764016
0,684771940650698
0,6932055822288
0,696348354550283
0,706687058010158
0,712775563249036
0,721875921667318
0,727371391668301
0,746129071502108
0,755079691097447
0,759001480753536
0,769011374074576
0,784647556008193
0,788892633967069
0,793465150579301
0,805807242455284
0,809485692340719
0,819188992981893
0,827156467240023
0,828210824543367
0,83175871368052
0,82988810174333
0,82528636483329
0,824317384065489
0,81809505785002
0,823224525529032
0,820955507610007
0,810740634325251
0,81690434708955
0,814880034936007
0,830228877538856
0,835898013506519
0,832064668034515
0,844866373507641
0,858921001194109
0,873876018843605
0,887234182184806
0,888490340740249
0,905820775008877
0,920116884189653
0,943608624604181
0,952041603878698
0,971015942925067
0,998153920997876
0,997231208616406
1,01243552442851
1,02846079160497
1,03821518766165
1,05818849579038
1,08844353891639
1,08263365075567
1,11055958999188
1,10819691415167
1,14186528224297
1,13656256052371
1,17714754320287
1,20191018710633
1,23826309570759
1,24916848443114
1,26768629692295
1,25814595546663
1,29731058940464
1,315186945212
1,34937650963336
1,35117315822056
1,37745126679657
1,43192949913808
1,40658035099177
1,397420364768
1,40659103722286
1,45472167825695
1,40906819643172
1,47604820782884
1,42092917322039
1,46008516309989
1,432148000196
1,42976511119676
1,44101034737221
1,40010214383149
1,41831169403685
1,43219320418779
1,39325713130337
1,40815721595904
1,44241935918963
1,4405976855863
1,46902637881444
1,4353689363139
1,48580400474134
1,49042310127084
1,49165623511372
1,47767444567784
1,48044795138427
1,55712745414117
1,56519100099444
1,54238261149044
1,63387220179094
1,61863582376876
1,63602959316396
1,6522912427984
1,61557819080861
1,65542957290049
1,66974232111556
1,67502348739658
1,75276040591077
1,6744944017788
1,70408163655538
1,81657391268178
1,69790153137956
1,71645639339532
1,6916861494752
1,78689625957366
1,72410060509677
1,67150928451633
1,7245551167788
1,67879804235324
1,75799169956874
1,82984498516429
1,71252093418867
1,6903056055024
1,75910158979851
1,69754654375155
1,73609951029884
1,78147507498003
1,65814231723019
1,67616099717014
1,69351416755017
1,72669865925124
1,67516251782204
1,64778400050997
1,58483786368623
1,53173163732168
1,57273825758494
1,44337324398931
1,39581648299347
1,28554216416374
1,26758195490533
1,20214359010157
1,16902851718125
1,13597766163983
1,08531732451621
1,04963159493222
1,03860323907228
1,02780596234648
1,01535224263357
1,00240948014793
0,992050260293779
0,987566897569087
0,967549476915298
0,961979529329954
0,958569865546373
0,947799842888278
0,940659864082652
0,913188417247263
0,906775072037204
0,897709495759286
0,873289847594322
0,857909474720665
0,846104555056432
0,821091768434325
0,799531491201519
0,779839798549517
0,746716941550365
0,723905487007725
0,705462723019473
0,679322719733739
0,649529136315791
0,61207968467507
0,585685945600151
0,560885013653912
0,536621773460809
0,505016269364348
0,483107145942952
0,454650162596595
0,43228414385054
0,414829841741281
0,39873307340336
0,387807346604898
0,364071283795577
0,350872993582924
0,339646779133029
0,327050685957865
0,317001623072985
0,307002071051986
0,301393805623684
0,292270471839327
0,291208926516881
0,291713294354887
0,287652994508821
0,283076533992227
0,280671297721623
0,278867311733476
0,277283297496905
0,27896678157819
0,28052012324262
0,281206727831708
0,284085244722123
0,283016443832419
0,289327923714668
0,28556032110816
0,29168587460972
0,288194881710752
0,288013717148628
0,285337189846352
0,289054699672701
0,285238460345661
0,280157452559448
0,278013159093703
0,277321850214737
0,27154046017408
0,275997746638263
0,268503025855951
0,265294281150966
0,263859572754474
0,267765040813703
0,261985657593117
0,265135048000208
0,265884091036367
0,265794069141201
0,269006839289603
0,273940265857005
0,273840901918507
0,282389457912054
0,276928928926475
0,281180344316863
0,283655259371022
0,286723305445201
0,289504208593175
0,294140754297376
0,294682256765723
0,296625898167184
0,299546441055689
0,296356205465492
0,300456276520175
0,297276436515696
0,305902673097896
0,303698215797676
0,302766774394619
0,306374318741995
0,306655830873147
0,308183103642409
0,308496116953349
0,3090885307111
0,317357825929447
0,319536299971414
0,321519673683862
0,332753953325635
0,34064043140197
0,344417204310509
0,352520996363608
0,362835867158937
0,363897256255047
0,380580520006952
0,390260760575653
0,402157300372227
0,407294306159066
0,418654925298125
0,424326086873281
0,430105101541887
0,430717779368153
0,424952979568319
0,431059266098359
0,419845507113
0,407678391215199
0,399577000426051
0,39273066917648
0,387034253602443
0,369075265056034
0,374472110024847
0,373446933676688
0,363796162179806
0,364658165948926
0,365563240248313
0,365819711097376
0,374003234028393
0,372800689140778
0,378726752138942
0,36608274571064
0,371492116497996
0,365037394266973
0,359824845184028
0,361386230380691
0,36018068497102
0,357529731799134
0,34743250071466
0,336719516234583
0,336813741988565
0,330793149789788
0,324843824166199
0,330777291927054
0,327714318335834
0,320898613766001
0,324170459456076
0,312816702995208
0,309085709773069
0,313588087348828
0,317886015016856
0,31218795615117
0,304304163068087
0,291602939527805
0,304674850658476
0,291474163197046
0,293712632390784
0,300292492477363
0,290067921042972
0,291076646470894
0,29795704626842
0,293010843740438
0,28597102830764
0,286997211668039
0,274149523672834
0,278082274004692
0,284603701256917
0,278546828614036
0,27186193389448
0,265433214860598
0,280867422443376
0,269881950979405
0,263410915605364
0,259306118032285
0,266749847533612
0,262716101829915
0,259680392442147
0,260480474421504
0,262417766950164
0,260862513735239
0,260539010650992
0,248284540273701
0,255528812373139
0,254364763350569
0,257891829209936
0,251949566641581
0,261243787109465
0,264683939442284
0,262078122218603
0,255694707125911
0,265739902796106
0,25607864494884
0,254636135405485
0,255332980285702
0,269102574737321
0,262993149346606
0,263408442506975
0,253080591588158
0,271297607990448
0,28048290841362
0,285369955734599
0,270951437361381
0,286764682941987
0,278619017650895
0,285584611579381
0,284009538006582
0,301394244424292
0,309433221528029
0,299634851927033
0,297064961629846
0,312544926271699
0,312019325695183
0,335831855562255
0,338760039074725
0,350302205057909
0,362748830118599
0,376161772622567
0,370387112090419
0,389282907867788
0,405277383324224
0,428494120095941
0,419931608244335
0,428068241282524
0,47557084735649
0,501990516158924
0,47087827140127
0,492980408041452
0,48993542343172
0,504398036766364
0,486323993928232
0,501818295915556
0,510673742494764
0,510375168761724
0,493520507185712
0,506617000005969
0,508174794211988
0,521146557113304
0,501202605189312
0,514029638614592
0,488176351743063
0,486648550313189
0,475683707107445
0,496739298742433
0,475194902763577
0,491187972057886
0,467329326616336
0,460891480312337
0,47239464357203
0,473059927121899
0,450838423669129
0,489716974519111
0,43160583929121
0,435122508974843
0,440887898385708
0,42196529560416
0,451100027124956
0,417885325007194
0,422134469441241
0,42107880852324
0,409652100437404
0,436965134887552
0,414455030832677
0,387329517940093
0,407352162353934
0,403532464796646
0,399117007899882
0,41750096678253
0,428325038818587
0,434178482736429
0,38502992387381
0,44046683444415
0,420324547407105
0,430664730698296
0,409168835791614
0,439832696938527
0,423236393986117
0,427376584089678
0,426689128728499
0,430215797208841
0,405062041396631
0,403390603762159
0,425953771034821
0,425157897506582
0,416761868629111
0,509254296654164
0,447517938443519
0,445447771430194
0,430183480047685
0,445874378270653
0,447087976283044
0,477694670758846
0,500439454348746
0,468676996431472
0,484501832562645
0,497757392860981
0,476157750522979
0,511766188449027
0,491195475473221
0,511957220732099
0,494681915008816
0,4748084961023
0,461348941826499
0,554069401363238
0,545738314939042
0,566848071411869
0,506739621562087
0,547993481200203
0,540089528046812
0,601284280504418
0,546511771892321
0,621188300963468
0,588272589393199
0,579143979472234
0,633516869924629
0,605359062283095
0,626338384581196
0,676406281399401
0,633017680159114
0,614780896812595
0,612022477904095
0,61238366336833
0,622668972986604
0,619776226664107
0,574739700900432
0,629812722756547
0,532233023148556
0,624909143883285
0,651703806422992
0,664720797258663
0,490344377336282
0,559236907813799
0,59711656175001
0,618196077282419
0,557927388822315
0,528946736941517
0,593309252065058
0,667053640788516
0,594329671887652
0,546441742079077
0,557069454570253
0,640002381402882
0,577940776220905
0,638425962210438
0,619643773172734
0,528337421522389
0,576086370245081
0,456968549554133
0,499064485701691
0,573598522663578
0,55415146354659
0,726354299572828
0,667955482671294
0,50070609799142
0,448233106522488
1,15326637597017
0,581618325516975
0,560773664403663
0,584915211649881
0,532116569910994
0,445851021154674
0,680991443389658
0,686177482834952
0,614411911873523
0,674950686002057
0,573042381033497
0,472401666175611
1,1077308226794
0,502780371330861
0,728918979076085
0,58531528547708
0,572940315089657
1,25431819079734
1,35792404627909
0,731539431109981
