3596
4000,36533379555
650,420452594757
1
2
2
0,0382126587121252
0,0155471431271873
0,0201205381786991
0,0145697194904254
0,00924839807539673
0,025629144131343
0,0226116569904309
0,0158343539320633
0,0289669858081627
0,0214851687871239
0,0157347197554551
0,022021412668298
0,0249206936984084
0,0245910531847688
0,0207681909637055
0,0242085352090073
0,0180996949796457
0,0322350427257711
0,0208201319653347
0,0205308104646233
0,0261418002886151
0,0202332135264843
0,0149441468101941
0,0332110466539589
0,0178226998510171
0,0250162758480868
0,0198054805748725
0,0175441143939219
0,0215497715204427
0,0200029277787686
0,0309665387226585
0,0196498772794496
0,0175939122857404
0,0145180176740261
0,0121127849144507
0,0321143688574152
0,0274044503874155
0,0196068572493147
0,0257709445490908
0,0161460340502261
0,0176220118082739
0,0127874130828356
0,02473544563235
0,0203272044310403
0,0299188381067607
0,0153420215910965
0,0171261998225126
0,0150041462645567
0,0208806338651806
0,0179071581060687
0,0258775404425406
0,0137308657876154
0,0189452016948678
0,0141319931030041
0,0251590823780437
0,0224269834253184
0,0272378380555468
0,0205797329444231
0,0146858342446685
0,0181406235781215
0,0299449384522326
0,0116631776921556
0,0217229695397666
0,0178716796409372
0,0255286732464655
0,0240631790445459
0,0199476584700917
0,0114007746340156
0,0270004647168659
0,020486862776325
0,0240375402050228
0,021183241936948
0,00962334048546626
0,0264201598292073
0,0258586525204815
0,0256070945168963
0,02667185382186
0,0107905907626862
0,0228354963659546
0,0208363718166276
0,00901465156961857
0,0148332813722964
0,0154435939245455
0,0214292218397064
0,0333485122844076
-0,000863287411046145
0,0209473583025567
0,013082863584733
0,0158507063756119
0,0182122961877534
0,0133743629040841
0,018485946399087
0,0122639945992482
0,024476982696319
0,0160715717458498
0,0174998900024346
0,0180467394856323
0,0255209076594142
0,02247970447773
0,0289249278598621
0,0061484763053419
0,0323055914519636
0,0157135410323539
0,0221744856015111
0,0493765429471885
0,00483545722641964
0,0228175572252819
0,00365058922737613
0,0202545091394892
0,00993544097277297
0,0161409506214972
0,0168595651181194
0,0238700137533168
0,0193024597112484
0,012949919201413
0,0280849747143622
0,0102608643489542
0,0202462911224817
0,0138653518163802
0,00577475968440732
0,0191018458429956
0,0310301603029568
-0,000102669949055885
0,0147668885917024
0,0110557563240691
0,0216377789863597
0,0191616757661795
0,0152501533924301
0,00719923504018254
0,011783271947191
0,0165374263322612
0,0135839366023112
0,0132331572625027
0,0234166681201623
0,0210007124570039
0,00960082094855751
0,0241049817788303
0,0208864687273964
0,043507184475756
0,00204139276490126
0,0137672771351518
0,0164943512800833
0,0149503683533505
0,0039706760983048
0,0204798020738082
0,0189161984247018
0,0252431689248594
0,0175306650554428
0,0145892345906058
0,0160126585734566
0,0161821038190814
0,0234741016518656
0,0250618790507252
0,0136085919522875
0,0163711682184989
0,0232989896376767
0,00196800971740372
0,0317715412384896
0,0137267384261982
0,01378346216901
0,0243451256650194
0,0100905157933492
0,0170920434149894
0,0128099412924341
0,021031487790352
0,0107227964389007
0,0218084107937984
0,0140456239892725
0,0132515121674194
0,0154681318336475
0,0217430951047866
0,00801745876370392
0,0187015335216345
0,0142416189784943
0,0116587924598298
0,0283706445173444
0,01247774839734
0,0137357272128046
0,00965741384393415
0,0249871630472384
0,013807563197564
0,0166110898328758
0,0214550926074816
0,0155971964012661
0,0125007998395606
0,0250266821636148
0,0177074636444507
0,0146110366468963
0,00863159503499379
0,0286656490127323
0,0260711461851307
0,00847763075237071
0,00271687710488788
0,0131287520095659
0,0173658280663145
0,0124196059059303
0,0296939049249635
0,0124967911045668
0,0238816130897665
0,0209731267679326
0,0172401631632228
0,0154763928723564
0,0139430017174008
0,0170719113005006
0,0176515424506131
0,0165642335522437
0,0246634554754234
0,0105281153297667
0,0267257403819515
0,0179241141987618
0,0203039058852245
0,0359595537517557
0,0167628848094075
-0,00220422823059557
0,0223873605036668
0,0150824649924189
0,0276302533578106
0,0133976639672751
0,00979332694924922
0,013643679099394
0,0173406589697173
0,0127580929922145
0,019221556895417
0,0197994239407459
0,0198834352115012
0,0152367134481916
0,0134453549424588
0,0141142297046736
0,0143565737756286
0,0179005564040193
0,0161497164681536
0,0145933858670612
0,0244814590123446
0,0127192808580633
0,0119081668736168
0,0242923384894572
0,0137933125315789
0,0138274047456122
0,0171358172696889
0,0183388369819211
0,0167634417245557
0,0124753009104888
0,016848342924437
0,0198712385643626
0,0297339507744092
0,0263913111778002
0,027089501810244
0,00894041581398052
0,0216456102525007
0,0116666486197105
0,032927263218951
0,00429380364769683
0,0223294804402353
0,0156790809816822
0,0176708411336532
0,0103848637503708
0,0166992909293931
0,00955329368434559
0,022514080621611
0,0228367975820935
0,0211694025082556
0,00658851124655779
0,0215186665681259
0,0196065922985017
0,0256191553382856
0,0163802104400927
0,00756975621967731
0,0152895956582419
0,0119344590814589
0,0071167951630269
0,0227224634133365
0,013277191879419
0,031012707458509
0,0340648802086697
0,0114706349296591
0,0115917181911032
0,02442512307707
0,0182839378681395
0,0137673761350362
0,0222205288659803
0,0128087830987048
0,0220722392789711
0,0226588408027294
0,00424502822470786
0,0396525232384209
0,0203969728304836
0,0256192253763379
0,00981878298731463
0,0205520638516314
0,00999060131364675
0,0198446582195001
0,0197919124276349
0,0368844501741865
0,0185460947341145
0,0266640726757996
0,0144738158067082
0,0380897557190179
0,0341958496691833
0,0156067540740252
0,0157629378195196
0,0277345441311542
0,0287253976001197
0,0215460879699141
0,023077999222184
0,0238031575507631
0,0267291613114584
0,0267899748242477
0,0327634555655016
0,0323898148951833
0,0189386621421413
0,0257434376593504
0,0174573106716667
0,0195842481715327
0,0267778537521627
0,0239846313114356
0,0206270887962227
0,0202434700389605
0,0232077531358827
0,0203157128292562
0,0178949001248613
0,022242413995256
0,0260659116757363
0,0233234512724288
0,0208846434565997
0,020142089030949
0,0232589975764187
0,0249899237221163
0,0261637603204766
0,0264606135346393
0,0277096229241051
0,0391581676110926
0,0326878617618394
0,0300542916687413
0,0339033729908641
0,0269727166232844
0,0275311050718319
0,0238706904372956
0,0246940750571821
0,0279585663362643
0,0307714410100202
0,0320076213993569
0,0312637482080632
0,0306903960778819
0,0294064165740863
0,0356254378346005
0,0328496914751302
0,0450507782618878
0,0273344592665829
0,0355457908653644
0,0305170975691874
0,0340298453828669
0,0298073135279121
0,0527694501549631
0,0415073207220169
0,0402850588253164
0,0390814729065782
0,036318275099219
0,0388432014399637
0,0387263441276629
0,0384181524559134
0,0413454258240262
0,0409160984358975
0,0411080782426041
0,0446781001984279
0,0404176993209802
0,0434184298409033
0,0437600674257458
0,0476714140127683
0,0502811442941475
0,0459394234391072
0,049738111074199
0,0536736087381172
0,0495669137691891
0,06144319852184
0,0571637728848221
0,0596541995236649
0,0599565289772403
0,0541360951950227
0,0582069377239917
0,0532268571061934
0,0657577025329968
0,0560439455992219
0,0696988747751729
0,0613058550834926
0,0595051881270645
0,063704263021375
0,0710547694535754
0,0679373964086115
0,0726437475048568
0,0653552919816983
0,0779164756888237
0,0770068335357258
0,0853135140753095
0,0667907638032219
0,0781509399460958
0,0873711774099568
0,116579439767471
0,0960118487523692
0,0752242667542749
0,0731614072166149
0,0907779222742913
0,0806379314604968
0,0906738612876171
0,08506584977359
0,0934212420864886
0,101746075188273
0,103512312133961
0,0911655128769698
0,10271299780602
0,103530557884822
0,104576620966826
0,0936706328758375
0,111908529169617
0,102662874617802
0,116014693698807
0,0989087896671449
0,110279864974181
0,11282598173991
0,109134249935677
0,12486014361719
0,131618827342374
0,117340771607141
0,119784601938998
0,119632414968142
0,122793426500124
0,124970728297082
0,135532424017551
0,140442383041318
0,132148754831956
0,133286512602266
0,140615399645693
0,13991402277952
0,144985454182205
0,14551148647155
0,149814709005827
0,149364292312666
0,145086884710007
0,138983213653955
0,157381847273848
0,155417544581888
0,16111840450988
0,153507288045758
0,171992473787608
0,149153941794346
0,146306101685387
0,162063226493564
0,157857348599644
0,15852636540885
0,177178603038819
0,180666174803691
0,181747349160737
0,171025675655802
0,178370269664038
0,177703416380697
0,186060753286294
0,184951271755653
0,196213256684997
0,199121834489334
0,200306058283461
0,192149045058202
0,201766655152592
0,214127376824337
0,222797171142785
0,226393391626776
0,201227665454627
0,195947708980422
0,203808076186337
0,209068484777834
0,210429828336156
0,214860490812694
0,224642473311135
0,222579848774884
0,232173248432167
0,241681467683219
0,242601168825214
0,239100596654932
0,246026617221286
0,228125745543709
0,245508287373946
0,255547257622691
0,234672492906239
0,239825929125417
0,255303191556045
0,262182714450543
0,273081808534836
0,256365109456281
0,26284911599902
0,273312005089503
0,281811251441308
0,271986937252806
0,274442915640992
0,278460370996691
0,28312091410794
0,277200837491841
0,286703877342865
0,287678201430481
0,28969689295557
0,290520417596607
0,299974988181712
0,310958850553281
0,315751181081012
0,303027501547329
0,313636125192855
0,305146437109456
0,31478937439794
0,33990258469661
0,324592380642043
0,305359320941091
0,323446579580691
0,342744138081929
0,342762351497623
0,349008145336496
0,35297872141868
0,356633653233527
0,356109546022394
0,339366100433308
0,372616830708036
0,345337937646141
0,348627474436381
0,372779640504264
0,357070560106086
0,360425516055776
0,379885858087448
0,375939657743693
0,384881873806659
0,379260059177913
0,388327667799451
0,386400059879541
0,394948574923941
0,405883018944414
0,39924001564943
0,392067913595391
0,39530315232998
0,396066633640045
0,409019213070312
0,416878488582169
0,428720265255963
0,415588896504801
0,412611453703287
0,421061257384094
0,435106550940779
0,423754915657476
0,445236590093782
0,438335841349965
0,432847590701538
0,439722264135823
0,44298425378526
0,467868056470166
0,461375626335501
0,453992491018306
0,459311833660201
0,452927166517539
0,466395168378926
0,480904441194246
0,467438526819805
0,476180865501064
0,476887796118063
0,480805288140252
0,483189526811376
0,483517348853908
0,503779499900683
0,490754083182279
0,512044800878835
0,512427753939534
0,503312409038026
0,530087807118405
0,490938580034915
0,508504270169794
0,519677979794113
0,514924857747485
0,538320363681273
0,538872106424263
0,531759625181577
0,540049842210843
0,5429681748012
0,540998476361747
0,532255634406872
0,53855743454298
0,576829576039907
0,571885243962868
0,56663471784195
0,56690860859266
0,550513908748179
0,556112365622203
0,584891813888342
0,586333757235704
0,564381903174148
0,578566305150564
0,586464418412566
0,603404089826163
0,576065503538974
0,575904282900726
0,596362351974262
0,592811267370622
0,586738795530135
0,597223075667855
0,611840534796587
0,625331259821684
0,622478200597306
0,614090671683147
0,601497510696831
0,602520503025704
0,620754647725513
0,636262665235193
0,612547933052389
0,604620498519415
0,636724820177967
0,658765764029819
0,646598701812957
0,658638817503725
0,642068423693
0,645274692554622
0,637501812971344
0,651249875982413
0,643108784680579
0,664434656306927
0,669638366497473
0,668528212880933
0,696820307863531
0,668032630318025
0,614249601575316
0,650558659424358
0,688890540016329
0,696796614607266
0,675124666823873
0,667535071010154
0,663929944772718
0,700416398327628
0,678280792761612
0,692320091545614
0,678980442010594
0,706497791805558
0,694396016870281
0,720131281110005
0,719144619496056
0,709928837628638
0,720166804477227
0,692783000552402
0,686170567581202
0,690777484926462
0,680888578929032
0,70674248247709
0,700931791962524
0,741943055719515
0,751870529500421
0,748530064984878
0,718899382440595
0,734810367653673
0,720568257204875
0,733670335051905
0,721223436122526
0,72536419535221
0,750898561919877
0,78213928372566
0,777759590733079
0,767082537648407
0,749211655070981
0,786300686875178
0,758068527727531
0,760621958710228
0,755945082752353
0,803794941108223
0,797266950135415
0,761507404833154
0,758830364076369
0,817135393845788
0,776153404539111
0,782240055590835
0,769550212763126
0,787376409558547
0,760911744012062
0,762692555608157
0,761290833507461
0,778246818140431
0,778565983711667
0,791933455107219
0,762892088913508
0,812282794746462
0,761795105734406
0,803602988199229
0,799341296248979
0,833806142153074
0,786042386905818
0,81646921372974
0,781839271741366
0,779668121790199
0,788033126056926
0,831989772093917
0,799392409587761
0,790907334663611
0,789311597625846
0,805818945139761
0,771885403642773
0,822365534484569
0,774920807293717
0,784810902251206
0,789709785413312
0,816154849522027
0,811136565051595
0,829014636352521
0,7748628585428
0,800216376677287
0,811650563798155
0,833916411610213
0,821770795675147
0,840301803899205
0,805711724137262
0,835488725638041
0,825165247763608
0,822355468154658
0,78519902057131
0,849535469030823
0,822240953894168
0,812439562853125
0,825989015775011
0,847490913516736
0,82998822629219
0,820932991524352
0,802828238232789
0,834214798888368
0,794979860075911
0,815596692227019
0,784898869231616
0,837278756114837
0,840463197534979
0,858914807091798
0,823954335218028
0,834335325599314
0,830769336589298
0,860504350121556
0,795737523572255
0,818424964646893
0,815408774385693
0,823181153103495
0,823952564551382
0,858097690848779
0,798307146378066
0,833531042999629
0,806434194679772
0,855115701835768
0,831255003186259
0,825615117677652
0,834953245364412
0,844188777683786
0,80613056732451
0,839600077723912
0,810617012921961
0,847934273577941
0,840781463303512
0,85715012834917
0,817452913747124
0,835514930665422
0,813123644869735
0,83306081401648
0,810231910129886
0,81930829757842
0,79120942363609
0,809012639280641
0,811658832553486
0,852803052073784
0,832195202830908
0,847360977366366
0,793704534479834
0,824503839602881
0,823594454732968
0,830851810310918
0,799223795526743
0,817053867450241
0,831741861646851
0,861355286728186
0,824172130673657
0,83814192380315
0,834257810414948
0,807993813510441
0,787422376139794
0,811307401667727
0,811073149159893
0,822925709923754
0,784970883464172
0,816183433619322
0,802614396783649
0,814210294446563
0,798443406684654
0,825136427545942
0,822843982090995
0,847685209581694
0,804093302951759
0,800695498589113
0,76990084698019
0,816562496469069
0,810083450153235
0,831819074689059
0,787895627669077
0,822651494863173
0,784727209762375
0,796471427966068
0,790020607973925
0,797486093235905
0,797969769720842
0,802132811519256
0,770791689270975
0,811589208778426
0,780393632398901
0,808870246006877
0,770837873750132
0,78833569853674
0,773199776615748
0,794665897804923
0,77116636778539
0,810173978164817
0,785782705467628
0,778117206403149
0,786900804824304
0,786481018197537
0,744202154324037
0,783914926883878
0,750757056666336
0,804925133056444
0,74962848632712
0,765923934172713
0,753731777763256
0,76532472096845
0,760717152360582
0,766308438809501
0,731015489859567
0,735680538030298
0,751400796329864
0,770224610127245
0,754118046173522
0,764020467734149
0,720803727136751
0,770568430407784
0,738377182643776
0,735907294996487
0,731842070866071
0,754171914944927
0,711846905493167
0,735324179451601
0,735235482009552
0,739087364962444
0,714819734726539
0,736688516805209
0,689526167878045
0,714380891481419
0,704885179082529
0,74094245991825
0,690054244205642
0,714870470765625
0,712877425280871
0,726251886792183
0,689080538800164
0,723057143979297
0,702125840206819
0,719129643682457
0,667209106178051
0,708514579809621
0,687528593762181
0,710631608874319
0,675474509810372
0,670336226824393
0,67725626789443
0,669193998089569
0,67326053991101
0,685185564980011
0,680842765610853
0,691441097836283
0,678910391206385
0,675887384265015
0,654366176422052
0,656462488112201
0,657474067159108
0,665540375873553
0,645098407323876
0,677586636894442
0,64891475729508
0,652367779346486
0,644303284037573
0,653303840270815
0,631680147502283
0,644155636379987
0,631713046323837
0,643145464141998
0,61881940947859
0,644472771266641
0,623040162872104
0,62522592470902
0,604727055271286
0,61377091164064
0,604517386991073
0,612702442485774
0,612941712835598
0,621147706610755
0,584543366945924
0,611550827702435
0,599143034857513
0,603801864158187
0,589143892957011
0,609920253149228
0,587752770232955
0,585159302938434
0,576133576515254
0,616648700544209
0,576917811026272
0,585662205468209
0,569021337540331
0,578053796648731
0,575826209936376
0,566772370098535
0,579213661234303
0,571893229864363
0,560411344156369
0,57571080407496
0,548278492977329
0,563876694735114
0,540542771734481
0,556395238570996
0,536205458208769
0,544272060927447
0,536843927545651
0,541596302920934
0,529826902538865
0,543217793967861
0,526797260194653
0,541843454299951
0,520517675699541
0,544047856489742
0,528445005332307
0,528372978074874
0,52011315558184
0,521694895020053
0,50554011270372
0,516147119374132
0,501163373275066
0,512304499334306
0,508090010656375
0,509770774320566
0,498175307835881
0,508053731003419
0,49417149062861
0,502672876816607
0,485402892448758
0,485502208426328
0,479825881841865
0,486838844282577
0,47691931965153
0,499007874897714
0,467104503140955
0,476778272240215
0,471050394839581
0,482126535507459
0,470690020667463
0,472194259536657
0,459789426091
0,462996198965274
0,459702593346339
0,466291184619222
0,445366658681892
0,473153534987058
0,442887004232794
0,448614772507419
0,42978893905828
0,449729826199454
0,444818105688571
0,451116505838103
0,444205204894666
0,441005076767743
0,434387875450058
0,434212688058928
0,424384598400512
0,438355088786129
0,434832940475903
0,430137628870334
0,419797948857174
0,437051205007044
0,418487940055946
0,415522724378023
0,410522614208237
0,423285339710702
0,405847193286311
0,423333908440732
0,393793617346275
0,418928608320798
0,402758786676522
0,406760765229164
0,396962364508241
0,397169980907386
0,391977762643563
0,408681389627086
0,397774393645628
0,397023210870215
0,387130783191187
0,395948646977225
0,389049932961385
0,389119191721222
0,386572563598125
0,391624415692742
0,376318174294845
0,380323184988489
0,369266975449398
0,373897136942871
0,362885316700342
0,374617071203707
0,370383970350246
0,374185732202255
0,367025568232129
0,371547372853792
0,371462662986753
0,370817482107843
0,362948552968961
0,3615425124673
0,357709038721326
0,353073331189349
0,357766421828755
0,357975621764492
0,351667433582908
0,349880869898935
0,344811513848383
0,350011974386241
0,34654327050093
0,337482558410468
0,341046453093549
0,345550702685436
0,33309222304214
0,337341386337863
0,330749151198416
0,332385030034984
0,332332251142436
0,328300538165915
0,326663167162768
0,329415608312978
0,321645717845811
0,328047618979841
0,32636827525955
0,322844426191835
0,313391530724928
0,318917209354852
0,30675174238367
0,322364330207474
0,308264308833972
0,313691730886076
0,314605351524442
0,312055799561823
0,306191271759045
0,305928072213589
0,297930582415438
0,306438084531639
0,294257316901127
0,296245258858168
0,292190312521869
0,298445147643557
0,290641354064375
0,294625595508823
0,293015155305494
0,288077720730741
0,294874348694893
0,28732946939742
0,287781994969408
0,285842401490607
0,283213245347259
0,293205491709787
0,284322344432238
0,284657486369312
0,276476112900443
0,290661337456459
0,273558478109106
0,281585961681368
0,276570282762416
0,268463846918132
0,281867011385535
0,278650009019517
0,273124399460404
0,272139196250992
0,274306858338738
0,268935393080734
0,26969281494381
0,273223009292668
0,267781700016186
0,272409394108175
0,262040560669337
0,278088623507526
0,265486987355625
0,270037902782903
0,265812206494619
0,274331324637393
0,273389814804437
0,27292216781278
0,271556993198133
0,276504192498635
0,267130864472541
0,271552927029013
0,273246337660691
0,273054171895922
0,27211478697715
0,277779906832112
0,274440194637136
0,276149661223027
0,272771250279629
0,278932084419397
0,277784099836089
0,284198662876288
0,288887035287117
0,283945846990585
0,281406977990787
0,285824373963799
0,282662663026225
0,292174765954658
0,293363346122088
0,294859864132745
0,289878466008853
0,291858083216404
0,299599846388432
0,298492339532142
0,298737161607821
0,301994621297704
0,300616822601517
0,300349353607213
0,304175817621193
0,311135270482239
0,309810290191321
0,30932411565619
0,309531030256078
0,317818952141835
0,314208353855044
0,322799258583654
0,322821273082873
0,326939464276748
0,318578752590282
0,325766509243773
0,331499406280887
0,336906134992606
0,326834754013866
0,334952643794332
0,32495379246316
0,343681949981357
0,33443182033572
0,342642880954207
0,340673968603532
0,351900522062878
0,352079973344106
0,357030682072837
0,355184812830235
0,356960247574855
0,35550933700146
0,366848010809071
0,364867646240969
0,371693762966856
0,357254885592425
0,369703840857644
0,363245761454908
0,370079902973853
0,36513001826011
0,371474784739224
0,370273411128845
0,368140980552509
0,368421201053038
0,372952922949356
0,363001518461977
0,374284175105163
0,372610218321716
0,379003943248414
0,360656112348478
0,368748209775402
0,364096732320402
0,366038796926461
0,362627954424187
0,372597078224641
0,362494009448223
0,368683628832541
0,363151995697079
0,377807681290744
0,373679543355968
0,376207804395344
0,365396811922713
0,371816630884446
0,367888372807597
0,372187429662944
0,368844677216921
0,370254953175519
0,363963000418231
0,371849377895002
0,370112599331547
0,373339376040555
0,369533607310509
0,374231249517396
0,376788489564241
0,374126508999568
0,374867250848605
0,377361739903333
0,372867061488331
0,375281840971578
0,374178516794656
0,380197088043756
0,3753037209856
0,380202819204796
0,36855779562822
0,378664056468427
0,366867761347549
0,379459458429745
0,358957467073773
0,371509667002781
0,362641030534909
0,366100836406156
0,369326512078745
0,374347099636723
0,369541259590662
0,36593508435301
0,36915332044166
0,364341272756119
0,364564389097257
0,362745041828987
0,361852647261978
0,363038576034531
0,353647830287739
0,357880329920924
0,351164448914382
0,352379013438228
0,344333298347983
0,350539556467278
0,34787817173175
0,348670725253066
0,340524176182753
0,343768574983004
0,333821410802501
0,336088797254461
0,324853754950842
0,33235578609491
0,322486168578108
0,326214212015568
0,315308232648127
0,317580139234915
0,308082530918162
0,31249841502638
0,307236464989436
0,308368578116583
0,304413523919466
0,304969184833797
0,303854191570191
0,303440514074209
0,299418396373452
0,300530565059483
0,290085789586681
0,294892424230838
0,287708807019309
0,29287806366926
0,287042137589998
0,280337439494849
0,284635126635493
0,28266773062315
0,281205112150645
0,284750219961616
0,277238262656021
0,274842668255769
0,266980339753337
0,270257788917944
0,271498083577659
0,268403227184801
0,266375614980342
0,268897385963077
0,25887270007285
0,258080782266452
0,257943567695831
0,256547083033681
0,257200141264625
0,257332764298705
0,246602372986396
0,255093592546166
0,253718193643121
0,253904639444373
0,241208110618182
0,25213446807626
0,249941630455972
0,248821457848464
0,243666292355821
0,241994256113079
0,242843545126687
0,247512637001036
0,236603823880631
0,237594838366745
0,239081214490608
0,239264204148558
0,232800788853816
0,238478224106997
0,230893375451275
0,235413073728697
0,232821061329563
0,234533464761978
0,230501736872191
0,225981263808555
0,225289657272229
0,233861737471782
0,226295264588415
0,227992974253088
0,225039738438886
0,225736477736023
0,222075275245006
0,225807970380361
0,219715949778076
0,224321902929622
0,220952882942443
0,216952923910438
0,213213226766974
0,218263402155242
0,218000697858659
0,215576665611075
0,219334927161699
0,218219182129371
0,219762685153613
0,213264917733623
0,212050571199152
0,210893980601301
0,21131018050634
0,216293274001963
0,209415472261144
0,211256452037823
0,204325155133517
0,20499819916988
0,204337370061675
0,207748823744943
0,204259193293413
0,203868166546828
0,200311980423213
0,202270477692165
0,201583501388025
0,201799637575444
0,202325859075334
0,200780005301693
0,196111049108692
0,203926492560902
0,199786271922386
0,199904948131716
0,196246473850005
0,200705333400332
0,195222089131934
0,196152545662549
0,193912552469102
0,194318413860702
0,198914195001741
0,192937052744517
0,19141897141506
0,195217791552941
0,198450099216893
0,195305126728745
0,18925723010849
0,192294579811478
0,188728512985696
0,193059096422384
0,190281366916621
0,193059165433964
0,191129332969645
0,189360920221861
0,188236605838583
0,185823595780945
0,190269759966305
0,191398755298243
0,189395061340474
0,188926115361883
0,184465240220908
0,185435282168898
0,185802212287782
0,18663210935394
0,185340435061902
0,186316754060529
0,182921705133513
0,186112616747159
0,182255895800114
0,181808526146699
0,184520422237068
0,188370448498913
0,182233135718025
0,185920662345713
0,182663962183833
0,178683880887885
0,1812897021282
0,18601324230077
0,17976774648214
0,180593140831659
0,182231533309751
0,180641203127821
0,179756589297635
0,180574558180188
0,178029523032435
0,180201385047126
0,177014560522696
0,179453678818322
0,176080149224504
0,173685818029573
0,173275482410512
0,171628955556176
0,173699170838208
0,176948085153264
0,171799130833557
0,17247696509624
0,170967670949732
0,174458241028873
0,168006839299441
0,173466024646207
0,173180932637694
0,173068791170754
0,169036229758884
0,169362458916113
0,168422625947739
0,169279893925079
0,166149769343723
0,164340786955269
0,168499311199514
0,170108261524381
0,165015375503547
0,166819910025159
0,166885035015646
0,167900000894212
0,166021702497798
0,169125555340679
0,164843695461093
0,163064961877472
0,159630474700064
0,158306068553511
0,161378929196094
0,16264568315711
0,159766129805936
0,161684391183969
0,158130863057144
0,16111949867136
0,159016449985606
0,162064715953112
0,158927858093791
0,158917777545171
0,154427576226093
0,155056779087314
0,155429101372162
0,15270820062118
0,152404066882499
0,152391037653453
0,152008611496435
0,156838451968903
0,15283156210013
0,1505475193
0,15074263779614
0,153072456659634
0,148242582244033
0,150817145768726
0,147392055213684
0,147340204016688
0,149421493437884
0,146914100386848
0,140882199918123
0,141640831916679
0,142265741993578
0,143898991379177
0,141631644877966
0,140822528843693
0,141712600481085
0,142167526057174
0,139821842498291
0,143056405051923
0,137178443435227
0,139093719846174
0,139738518933604
0,141520348410173
0,13712472821364
0,136110567114955
0,135093896158611
0,132670178238644
0,129387134702762
0,13097466792184
0,131657096267397
0,131437315580574
0,128390413698402
0,131012644786784
0,128030126834563
0,130587437666426
0,130816601627911
0,131148538522766
0,126614541682631
0,126667323176452
0,126605751724125
0,126773164747605
0,120648851601646
0,125261011851154
0,126221090722622
0,124140840499051
0,124100851772136
0,124905208568441
0,121679021372849
0,122533668829316
0,120369423997322
0,118185544246529
0,119105224905699
0,119876156303225
0,11642215472724
0,118638855943261
0,118777134993283
0,117800691691092
0,114387606563691
0,11686111254098
0,115805800228219
0,117163743269448
0,116384308380044
0,116786769886445
0,117000045745316
0,116380786012955
0,11396626520123
0,114829392626682
0,114061554967923
0,113740303585676
0,112368427535733
0,11215835488223
0,111175095595543
0,110848385535082
0,110166650101665
0,109033756731563
0,110309971224995
0,112772102341639
0,10825958224811
0,110931922689914
0,10690298223377
0,107942480615568
0,106310261081245
0,10708525490173
0,108866342766394
0,107686704998624
0,10609841936817
0,106930757636157
0,105231063633331
0,105646027721411
0,104466957917621
0,10647359644905
0,103378526698894
0,105133764264189
0,103750752798458
0,102235974962058
0,105316430853884
0,102307491858808
0,102236968350981
0,103040401105906
0,0995482026640864
0,101941529572631
0,100550727075321
0,100824706780977
0,101020151816503
0,101607811220246
0,102648330362617
0,101379005867267
0,0985975930976343
0,101088785695455
0,100657813926576
0,0999406189324699
0,0985059475507561
0,100478511593942
0,0967204564168399
0,0996543013760793
0,100255317713152
0,0979197140026117
0,0991891971213111
0,101605549057199
0,0989409977795472
0,0972442356848966
0,095524627608916
0,096651004732616
0,0974942223120161
0,097549892669571
0,0924636332101795
0,096247465303434
0,0965458671326621
0,0931777231911462
0,092348797219512
0,0906349367866101
0,0914554943396756
0,0938532782673888
0,0935326372454085
0,0937136214295557
0,0939167638174813
0,0931697719302224
0,0924926163774603
0,0922156673379662
0,0918581617771244
0,0930770367822853
0,0925978893899422
0,0932703531643942
0,0922426628251395
0,0932265437719705
0,0914726687002433
0,0928937436926191
0,0919482826568457
0,0903880096223967
0,0856320672363747
0,0864277173886521
0,0888200262091799
0,0906563200178111
0,0898207711048656
0,0896368769640039
0,0880544669104544
0,0882950027536569
0,0873849651725022
0,0887174503795664
0,0888979413143397
0,0892287271585268
0,0875785384773227
0,0885649450409874
0,0886789638136879
0,0880519709576087
0,0876868472035516
0,0869701738634647
0,0847466830444268
0,0895117363028758
0,0893949481647563
0,0864256315355768
0,0861536013489415
0,0853402222765219
0,0859008734932044
0,0877460910544536
0,0847797841901531
0,0844604300322503
0,0843552135521124
0,0832956995758083
0,0838705043594706
0,0838039388399242
0,0817993963146594
0,0849046247541178
0,0841427157630154
0,0809733174367654
0,0810674171136133
0,082534314426158
0,0797498591385145
0,0834233372042981
0,0823170175889619
0,0791718716636194
0,0793089511869434
0,0795019469335805
0,0810624849083537
0,0808506906373334
0,0792552181753999
0,0797154402764283
0,0786186021493315
0,0781280625684067
0,0786471219466464
0,0775367781088901
0,0751401622244882
0,0764884562426026
0,0765392117048039
0,0767577783081259
0,0755671212573968
0,0775959263164988
0,0751174786173308
0,0736382672955762
0,0741615543822354
0,0753509383953226
0,0755634924037875
0,0750709281186904
0,0746948917279478
0,0716098420555136
0,0714988301474989
0,0722663926661609
0,0710260782171664
0,0733344032330571
0,0709175097705664
0,0704348855678476
0,0714806256289595
0,0722982713198239
0,0691949838121997
0,0716709293478609
0,0719033095676601
0,0690927712760323
0,0694359426266477
0,0675203152263184
0,067106004384977
0,0693664828266328
0,0686009890809259
0,0672756121334294
0,0700027280081406
0,0702786757806966
0,0675690624045192
0,0671077450099343
0,063361214551288
0,0654874002697435
0,0654230970357763
0,0660179695551638
0,0628819044164824
0,064612107920478
0,0656346310934295
0,0623981361087247
0,0619869805757037
0,0648951575330679
0,066938484981436
0,0636658076571779
0,0639330281194538
0,0621493577568605
0,0610728619483184
0,0617767975387035
0,0611126803395704
0,0633022393505307
0,0616534176927883
0,0610899005547758
0,060236228295636
0,05959014476202
0,0597418839369337
0,0597298968493906
0,0592778929407093
0,0601168160108155
0,0609591793623664
0,0610065104326726
0,0578935461970195
0,0617221751734754
0,0584509743504526
0,0589748807729051
0,0587838692557191
0,0571055928291048
0,0572243942768198
0,0589941190378967
0,055257868479323
0,0563075533542315
0,0579382172879396
0,0554369587779466
0,0564834053497358
0,055630680822132
0,0557726620747341
0,0581795397248202
0,0566096306504488
0,0549542828343924
0,0535157550502227
0,05287491514946
0,0517946597052544
0,0548806762437528
0,0556937789966447
0,0542395495830229
0,0562664721345215
0,0564438327121707
0,0575896710487481
0,0539789069425747
0,0516677986530253
0,053805256153511
0,056001737053787
0,0547404129126754
0,0529721679868441
0,0558487442106845
0,0529258215174372
0,0506081875975664
0,0501007031641458
0,0530261285802735
0,05509817998892
0,054377925005889
0,0544367027973809
0,0529400813426864
0,0484133685115392
0,0505200549208495
0,0512782272254731
0,0555777076742646
0,0564859700733419
0,0527867566961798
0,0519889063755939
0,052046216137684
0,0536091839898344
0,0538006763489923
0,0503339605820228
0,0492478200638885
0,0524347252530238
0,0532687121614782
0,0509657430180217
0,0549392996401399
0,0495236376344487
0,0460597989897115
0,0531811885980503
0,0503279675054717
0,0503566441550843
0,0535485124239404
0,0527606514116998
0,051688517906543
0,0517329380603713
0,0504302439436678
0,0470713707546056
0,0451562054900086
0,0486345918152184
0,048158594066706
0,0515567984710006
0,0506757302126011
0,0499869369642821
0,0485459778830062
0,0474228488549266
0,0449382815119651
0,0487704105108708
0,049095246702915
0,050549946185064
0,0481324896437722
0,0559305229368995
0,0503968979099685
0,0518069922831127
0,0461047920550943
0,0496248978928863
0,0431952573960305
0,0537446095341198
0,0453749287380738
0,0492302179772663
0,042849209174715
0,0502514937490591
0,0432614314707553
0,0554208420179985
0,0419660505458494
0,0497085071666093
0,0387101689117567
0,0543210356634177
0,0403702398662127
0,0529419561910353
0,0403697862584593
0,0520158188443204
0,0442877460503146
0,0506369167051709
0,0432176512860612
0,0462293439746765
0,0443993158290617
0,0449587316657106
0,0472622282097916
0,0453019151391638
0,0510123013153258
0,04370571673527
0,0480628018093158
0,0405285760312935
0,0480841130061772
0,0427602055249081
0,0453657711640566
0,0430864623526267
0,0449500125828623
0,0456195751870382
0,0437253214566539
0,0438195451518387
0,0454453989927354
0,0442749836539712
0,0450201020136787
0,0441614827877614
0,0477476522986654
0,0449696106304917
0,0432291652776487
0,0451835044343426
0,0430530789614412
0,0448580467597574
0,0443098850720469
0,0434066252971752
0,0437971889946223
0,044141173011798
0,0456217791579304
0,0423014154324074
0,0422083173095433
0,041823249123314
0,0436559861710123
0,0432476314439867
0,0435624927267487
0,0423865812441073
0,0432577945142045
0,0434653360004642
0,0432258292069508
0,0417264474744854
0,0419885628660093
0,0434384497772927
0,0439612709625442
0,0429036081382188
0,0431716743146932
0,0437495106238813
0,042729616619096
0,0440810056198399
0,0438170865224652
0,0422277115312018
0,0425167624306367
0,0437935168826803
0,0433093372938782
0,0437124571010863
0,0424529231318839
0,042727990324887
0,0433957240860405
0,0451956639558224
0,0428443190809951
0,0418940250056606
0,0434830047109154
0,0428635361920595
0,0436382670653984
0,0430937285417916
0,0464290542101753
0,0465245926838595
0,0462092122399421
0,0434113477570927
0,0410721484149328
0,042567024178615
0,0432086690151592
0,0434255839586858
0,0447617539423985
0,0433860919893216
0,047038794242461
0,0414340235244087
0,0450270876768901
0,0443532193136242
0,0423068480917471
0,0453280149188919
0,0428381394598418
0,0418928998112854
0,0425184473269565
0,0437729126996512
0,0425468127252433
0,0435563506867662
0,0464260428610524
0,0412795661782563
0,0435391565039652
0,0437791785529638
0,0419718660754052
0,0416996509483573
0,0444234229684217
0,0414845943142131
0,0437357193473172
0,0440907752644194
0,0461592528995419
0,0444966627531901
0,0443995705863119
0,0438913811205984
0,0466356655651141
0,0434816111964248
0,0451187886362201
0,0452047341149839
0,0424202950981627
0,042127307627605
0,0461064023157053
0,046698323554409
0,0436867921801007
0,0444563743575253
0,0435153520541739
0,044472984539761
0,0441849503235774
0,0457214852599947
0,0442723978572842
0,0438826223962628
0,0453381837517138
0,0469206769130856
0,0431069232137353
0,0481002393030479
0,0458014959928778
0,0447494062767645
0,0450315863331008
0,0447437026365013
0,043812896173179
0,0463135797605656
0,0481264668837224
0,0436885570802719
0,0464541158108085
0,0457013227371153
0,0467357818161494
0,046157206902043
0,0464267317369482
0,0471980214307455
0,0449022640852538
0,0480170969262455
0,044714205168638
0,0457582971886265
0,0457230109738095
0,0450102044786092
0,0469199388062492
0,0430018947527979
0,0444395562099996
0,0463568857595318
0,04710647357924
0,047965294937316
0,0461199724039508
0,0453827570148637
0,0476876484760947
0,0452314712713216
0,0473721274577479
0,0460705916586783
0,0463303491839993
0,0457344767471781
0,045253814989191
0,0481471021026625
0,0470011961063111
0,046160653605406
0,0464519943064959
0,0485123388903739
0,0459671144695018
0,047682992261817
0,047987973376158
0,0475360045312729
0,0483122935528076
0,0472506784620746
0,0487533020427477
0,0460414129060493
0,0472730409915631
0,0485280655141579
0,0480610372211307
0,0477639903347305
0,0500685371392081
0,0490365752071302
0,0465703767789747
0,0464055421901192
0,049069375384848
0,0475908641410865
0,0487340158121182
0,0487600245025723
0,0493849783931517
0,0463079981750722
0,048824717702721
0,0486105430616644
0,0463351665302082
0,0483732012212272
0,0488538355628688
0,0459573506540648
0,0468246309737347
0,046783781194839
0,0460017932034133
0,0459507259258856
0,0462363167799595
0,046365493447455
0,0471899877230793
0,0465475158250585
0,0467052160734076
0,0475149321194135
0,0447200379538471
0,0459373667500933
0,0467674935059383
0,0457638196130434
0,0487067741113216
0,0465376569622094
0,0460068064679946
0,0449452371654082
0,048102514074319
0,0435074545901431
0,0461230266161526
0,0449019744778899
0,0449896525573141
0,0483469288354778
0,047358765705769
0,045433648244976
0,0450660900076265
0,0453229577162297
0,0449862289683472
0,0441991238588452
0,0457429495602287
0,0454788936966123
0,0442753050998238
0,0443957662489578
0,0456173324730998
0,0454444730088294
0,0493297863090667
0,0427505901913152
0,0436249105840756
0,0443029780548754
0,0460117703186229
0,0448676062917833
0,0471079238798273
0,0469528535428854
0,0453429363767792
0,0446641965437149
0,0421771822229217
0,0396592785081041
0,0450448937920976
0,0440602127509566
0,0435032127073146
0,044481231757692
0,044908727631729
0,0426484647479593
0,0465991296402199
0,0418607023600741
0,0421494555835828
0,0460127514262047
0,0446211474870871
0,0437792048975301
0,0451130660787605
0,0433414292032822
0,0446272232595448
0,0448056365551049
0,0442602600333732
0,0465070863100583
0,0425088570651985
0,0449676673290383
0,0443288326396857
0,0434037447385136
0,0444997090942012
0,0444719550128642
0,0454442405455867
0,0456443154725238
0,0431410451782055
0,0420951694733952
0,0453396741666036
0,0438168131933763
0,0450711841679384
0,0453852734947922
0,042260074139026
0,0434805581652968
0,0443000374605257
0,0462592556840462
0,0437358411978618
0,0427468606233199
0,0453799777881155
0,0447004593256751
0,04675810706558
0,0434025534544214
0,0439984257204356
0,042075998655768
0,0429110665827999
0,0442524517467117
0,0440517749007664
0,0448655714257054
0,0433514801721407
0,0445769187730832
0,0437511389908223
0,0433760337929775
0,0406950019532466
0,0451618654389708
0,044549170260971
0,0418393982016643
0,043227209518986
0,0418533701097321
0,0428156927125843
0,0409532023929058
0,0447679778135777
0,0407759113421382
0,0409933935943112
0,0430897161612554
0,0436161612770837
0,0401147833990053
0,0457827201590968
0,0417198157073283
0,0422242222366878
0,042729234406723
0,0412182985175394
0,0422537648167837
0,0417542095521753
0,0444896597621489
0,0397078558625549
0,0418746501948686
0,0416679170405241
0,0413745741896122
0,0386893135390072
0,0414340051249821
0,0419672122328166
0,0401560745575682
0,0414085599582938
0,0416032888705896
0,0396624915988115
0,0406586108817622
0,0379390168534381
0,0388146456472049
0,0386353299728253
0,0379404379000149
0,0374365922727926
0,0399616169239376
0,0384073676526506
0,0383658471534459
0,0399447796816718
0,0397064586682933
0,036860250473869
0,0398648504533153
0,0374753711684262
0,0376549378478367
0,0379443378726856
0,0409498571648141
0,0403853344320478
0,0385399527473167
0,0368679720348657
0,0390768518492704
0,0386209947062777
0,0356528434552921
0,0368175672206806
0,0375177566237967
0,0351337578636357
0,0366087987064753
0,0364492031157707
0,0388980166911726
0,0365341032943127
0,0379357265466154
0,0360918669841474
0,0376097098366593
0,038056759137025
0,0367483550095206
0,0360307415953428
0,0361331379046267
0,0351667506211396
0,0366221079594301
0,0344011385036305
0,0398413870425653
0,0360266656970404
0,0356007949866603
0,0350995263714999
0,037328098665326
0,0366527261944195
0,0386793120848175
0,0370343497317216
0,0376842594351949
0,0377999846712436
0,0367304561256026
0,0347983882788826
0,0331603379075755
0,0349546415651868
0,0367495380166971
0,036855915241942
0,0350387327364789
0,0371212011217892
0,0367237915218711
0,0337458613000354
0,0364726080529262
0,0370387379801071
0,0365247539986966
0,0355150503331538
0,0347050215037137
0,0372477117115071
0,034462819827938
0,033077571681514
0,034784545136903
0,0345686057154333
0,0358064830945711
0,0351689533371599
0,0327282870171298
0,0358365445772709
0,035834006430693
0,0360787133320334
0,0352480983488697
0,0385423156530691
0,0342181906339862
0,0343779884185314
0,0348740929590539
0,0325891881109595
0,0353938716425186
0,0349513402057596
0,0355851888156624
0,0357627862788467
0,0350948511534059
0,0347010348650528
0,0339146695838321
0,032946707740521
0,0352363748023782
0,0322844185557153
0,0350777636361672
0,0321832841280732
0,0339657654140091
0,0336468442986031
0,0351851528215509
0,0352083662475404
0,0364452370683144
0,0343109504370218
0,0298328607505512
0,0342547611774947
0,0327928421672583
0,0363125001600814
0,0364990635030603
0,0293896556143955
0,0328420334598307
0,0317781878839878
0,0336210240871221
0,0343718100923877
0,0342054669654774
0,0321024953889017
0,0356892032339998
0,0335939465778789
0,0361957792059108
0,0346013195605705
0,0354479781386793
0,0362297813398633
0,0346434435174259
0,0337178095045153
0,0354587856795159
0,0328145133892448
0,0350541086394086
0,033929600624769
0,0332232285054836
0,0342080310759823
0,0356592445774283
0,0308015035532804
0,0366081635013463
0,0305795871876546
0,0317079390962642
0,0319633459980182
0,0354032751103695
0,0322473051882768
0,0352740917325174
0,0340393781070024
0,0343082988563715
0,0348411016794596
0,0335392977410917
0,0338069544595412
0,0321781551566162
0,033723544179909
0,0332185204880794
0,0320592047521334
0,0308326786616974
0,0339392587911799
0,0328650889170926
0,0334995750446012
0,0350171829818103
0,0357314795343173
0,0325552096205067
0,0325104018699535
0,0326448151561585
0,0351877769658136
0,0355019182020299
0,0331897886359381
0,0377801434066123
0,0357476434927398
0,0338815104715345
0,0318590001115034
0,0344612726282425
0,031660595174917
0,031906264945009
0,0301615703334653
0,0341337281163193
0,0321304192752492
0,0340425497188589
0,0350270135238882
0,0347979023227121
0,0325725973338823
0,0323610139207752
0,0325984045448471
0,0333608625517086
0,0354163607231016
0,0335846862649101
0,0319462875222645
0,0325394534461311
0,0326881143131653
0,0312291390811805
0,0350893989171471
0,0311947856958669
0,0345458563766788
0,0343776062132901
0,044114667187879
0,0295335518561911
0,0357423733736638
0,0332545915099287
0,0348358688145573
0,0342969652581829
0,033389517974206
0,0355631023633776
0,0349608133929367
0,0337815719853794
0,035093848689204
0,0326354503604962
0,0341967169153145
0,0354451494553258
0,0357643780586984
0,035957298698691
0,0352550466062991
0,0335021319702275
0,0338320354221353
0,033570627433894
0,0372011215398625
0,0309055220826611
0,0329831274663206
0,036594439781094
0,0341000540115255
0,0352312156863845
0,0360025195866176
0,0355339595111319
0,0361448804218797
0,0371851372978189
0,0353571928226885
0,0350936521580567
0,035907674188688
0,0357515177817675
0,0352582380454
0,0353379397686258
0,0371531078515156
0,0345823074649125
0,0366674205066203
0,0374492556422998
0,0340165118367758
0,03714547898669
0,0354806268164748
0,0353958554138337
0,0376445912454495
0,0402221910183283
0,0370332491433524
0,0357238881744703
0,0389726336253277
0,0359514757939313
0,0369127936778854
0,0376168889963865
0,0365659082355692
0,0386080687846661
0,0339861447834655
0,0456347006596867
0,0386630035177926
0,0377381539722893
0,0373516438161077
0,0363565212095687
0,0385639583661986
0,0383678699084743
0,0413849987616462
0,0370010783172188
0,0394023819733702
0,0357786007419656
0,0424485628012211
0,0376336673900648
0,0467319215646753
0,0392395870369559
0,0393027902806337
0,0395493605240658
0,0416600699721042
0,0378872698659037
0,0400250154751626
0,0397988257864457
0,0448838130045192
0,0489748681319206
0,0388234089204875
0,0389402737037928
0,0425914030306872
0,0439689997735839
0,046177087161128
0,0372436045324407
0,0428820915752859
0,0416463589170571
0,0433336548553083
0,0408761261699058
0,044243566486444
0,0465445542269059
0,0411703410724742
0,0428443846721419
0,0436835086080839
0,043658553122602
0,0515570827337541
0,0423009531401035
0,0459336543783144
0,045830032712061
0,0499023519022801
0,0420777419578554
0,0573554099966485
0,0443306799462981
0,0518548584815967
0,0431961588187029
0,0470779011738569
0,0501024282124543
0,0514528189123891
0,0527012973636996
0,0546494050315228
0,0524882503427206
0,0496691565804007
0,0521035580978714
0,0569897671562896
0,0564838300652472
0,0514147711163208
0,0561639195074762
0,0532687751880051
0,0604548625709372
0,0715294897396881
0,0630911979621179
0,0592491922881034
0,0623553624600881
0,0616310077051988
0,0679272648076995
0,0588434233915145
0,063479468484541
0,0629685534860452
0,0656692120036903
0,0634969735981306
0,0656695121650693
0,0720478375454159
0,0671566537711522
0,0690707716360004
0,0691024032343757
0,0718182331070043
0,0754591019516889
0,0768100635586946
0,0764249307959178
0,072986200904996
0,0773192695610834
0,0688791961942443
0,075639272136292
0,0763332386259989
0,0796126481820769
0,0821542549126627
0,0801906253057865
0,0811037509165012
0,0840703870505835
0,0895094224172229
0,0853035470854405
0,0841757832371471
0,0869821937218912
0,0902247504066562
0,0974386034063334
0,0898018768191439
0,135754895536923
0,0925651362650186
0,109281967939402
0,106188391899582
0,114888126919617
0,1202542721592
0,115707241789587
0,119664299962539
0,12577907262159
0,127371960248034
0,132052916536069
0,14045547291344
0,142834543585329
0,143510761600915
0,146905582330134
0,154256041171003
0,170343505956062
0,154098470114966
0,176294877800122
0,172746131049753
0,178362484009249
0,187439678609375
0,190717553567428
0,189872447604477
0,200469027124807
0,202026616101115
0,209167302233775
0,221098461562786
0,214581887434352
0,224065278501872
0,22964581913127
0,23821850908269
0,237806713989052
0,25030228593059
0,242810854914535
0,252853040178887
0,26158036901115
0,261679045301924
0,274451986443624
0,272590588459921
0,284070702834187
0,283268506245048
0,288271832563935
0,288368964609285
0,296106761335575
0,299739553660748
0,303486914218073
0,307159521141489
0,310827524245301
0,320404797710601
0,322437235325289
0,308769753478977
0,304342026286141
0,307669902074798
0,322503064383293
0,321311430814616
0,324029154288097
0,321006045530556
0,33508988501594
0,317418635930497
0,323247061567838
0,322465411587121
0,32167935813066
0,321037644446363
0,324312664508419
0,325419184736118
0,322720710996488
0,331177559376732
0,325573549738534
0,322886565660504
0,335525752408377
0,324114816645151
0,321831461605071
0,318521735427847
0,323718351283705
0,319923027881012
0,324569004347686
0,317414188260343
0,317986365645841
0,310130811024906
0,312126364681303
0,311063935152587
0,32563717771014
0,309979330702038
0,301559701091918
0,29031468862796
0,293584753600975
0,290097000135422
0,286215157191151
0,290494725591834
0,301513454986946
0,279294120621012
0,283091173936928
0,279505619995222
0,278866795430842
0,273807008179581
0,278797767595732
0,273527812183474
0,269082346401758
0,270081523136292
0,275587035205667
0,26850447570973
0,268181184276317
0,263942220077586
0,264431128362432
0,261281320591031
0,265884249170721
0,259546442918845
0,259907725670767
0,260513412055133
0,259483244530645
0,25994949581753
0,261096640445859
0,259047211143442
0,261761973742021
0,260971559080569
0,26424733263715
0,257960885334369
0,258704623904681
0,25594160736712
0,256041501620142
0,254991918522499
0,254860818509675
0,257473509730697
0,259640298545444
0,256669699053785
0,256819662092784
0,256143410016441
0,255572988613709
0,252804220315306
0,249621404281723
0,250246976172981
0,249414673252354
0,252455956298736
0,245132295282088
0,249329409258827
0,252527413473934
0,244227357072139
0,24481290821358
0,242008184410424
0,250827567903587
0,242835496371762
0,239199827021196
0,237217183571577
0,239138303519565
0,241248399342538
0,236182213579775
0,228611454529601
0,23663068792186
0,231763579653727
0,250076947590216
0,263628829645116
0,257081362140248
0,234881778558708
0,22159259774525
0,227688443704305
0,227855019069354
0,23109497470707
0,226136348451411
0,226844056188703
0,223351166213397
0,223747153561522
0,223116088121991
0,221489718361343
0,225236157780317
0,222009391829412
0,22258847302288
0,224170952790682
0,221239662196473
0,224019367379107
0,227232024000382
0,218829746979495
0,234357510822157
0,212001854633233
0,209225641011312
0,211532651942227
0,208864256643025
0,209688281355292
0,216920939928252
0,219314158247422
0,201556983703695
0,20215656008037
0,199435806969464
0,196724447501231
0,199512631669874
0,193649545538722
0,20110540979548
0,191587433981734
0,198441705715094
0,188514233658028
0,190413970045817
0,187802213638682
0,192479761026658
0,192908840165895
0,183942189810927
0,18366261266321
0,187676940111494
0,191048197490504
0,184640656372902
0,181888790016629
0,178238896979592
0,178830732450053
0,178487796789451
0,168560829359817
0,169936482391198
0,168166067144003
0,17062401614224
0,18208321371056
0,167939699681581
0,156324178106458
0,159172682316293
0,16196987926629
0,161329721456543
0,15884042173109
0,15868122914334
0,165027726925306
0,160781422224101
0,163026051467622
0,162215325179888
0,158701066017225
0,157321629812405
0,161131898789782
0,163000753913024
0,164965284179999
0,169704459603778
0,174574238417609
0,171283271617303
0,174269450792749
0,166865763227238
0,174418324203089
0,173508912662649
0,178238484575794
0,178837379058521
0,182739471550437
0,18327968097734
0,18935335753865
0,1925462262891
0,199034929867895
0,198884556707293
0,207074734412682
0,207154837597145
0,217067015137934
0,215332651639364
0,225162385988725
0,22354740103486
0,231096074886694
0,238369829900843
0,238723546727862
0,245220201062581
0,246072615931465
0,24907570080955
0,25395856911273
0,256008097020792
0,264465789092808
0,26267926234185
0,270492058219878
0,268424346160334
0,270484388379257
0,275570530241545
0,280475646712391
0,284646066829509
0,284286377761142
0,291260364770254
0,290420375853673
0,292201622629801
0,294549217444465
0,293237302374184
0,292284275985629
0,295420290653172
0,299732014997683
0,303090346045533
0,30947337798489
0,307868205915042
0,307383306327919
0,30693528289731
0,306566268315612
0,31045921151381
0,318438139278275
0,316791525507725
0,317618342597376
0,319366266208312
0,321332666395349
0,325024296345163
0,326806259850379
0,326488910567886
0,330066512431866
0,329771030668208
0,336843895927657
0,341592593172037
0,339200145332529
0,346008910507203
0,35157798675995
0,349165786769226
0,355639886716434
0,359932239987271
0,359694238728686
0,358954596700869
0,362152068847469
0,358194911342358
0,362002109057829
0,371016627791712
0,365094708220281
0,380024005209174
0,371777804755813
0,374564497708618
0,376757022963106
0,378453987178939
0,381726318018815
0,384670051549661
0,385289396731862
0,383733578118058
0,382050728886857
0,383553234192294
0,388174650087219
0,386572785943176
0,386370455047
0,385335458600216
0,387834165718754
0,382876965251753
0,385945193979035
0,382667120204376
0,381412093768231
0,383940526879236
0,382975667316354
0,3930359878024
0,387287557441334
0,38714113609544
0,389955499676341
0,390779103384014
0,378450078606245
0,381230332748826
0,389164987221453
0,386922933865739
0,385054101116053
0,390724993932735
0,389836995616366
0,392627194921171
0,390458935185659
0,389495203546502
0,39371067601968
0,396283878674211
0,397514253783499
0,398150575168577
0,402786225589236
0,401863342631536
0,401783905483177
0,407110690886065
0,40653491733153
0,403857775586836
0,407346363733929
0,407404134510512
0,402246924222959
0,400077144241591
0,403839373304357
0,403302680484936
0,402632832135869
0,398934953057885
0,396167913425004
0,39458903042319
0,391538253813078
0,388155050936614
0,384624029512098
0,384307001130614
0,380130280833993
0,376651109326253
0,373174958226379
0,369856318313187
0,372923741442468
0,366758805996437
0,362170748954647
0,360776671449552
0,360008438212408
0,355521376196116
0,357991500668609
0,354566154261318
0,356886968158979
0,351115269736479
0,354988707209025
0,350968402273012
0,3494434374789
0,346293292798082
0,345859614202264
0,349743450394123
0,349605551752184
0,349833270564511
0,346748495292651
0,347142157491443
0,346500171095645
0,340489372339661
0,351235433959484
0,346699630198938
0,343924895174801
0,345384790738164
0,343988374265042
0,343608272924829
0,343273650195203
0,343446659424299
0,343475119702767
0,342732738693277
0,344049933392587
0,341592658159257
0,3413763300555
0,344647010028383
0,341869058348522
0,34012065432971
0,342561984516939
0,344213572894202
0,343507080079529
0,339149768557923
0,343860989739109
0,344122858622825
0,342822513048118
0,341243230287552
0,343018151404524
0,34655855213437
0,34148853759502
0,343123983605386
0,344007725527456
0,338390524103251
0,342480485101401
0,341138838275775
0,338842855712774
0,341511540289853
0,342167340420527
0,338306159952417
0,337559002829518
0,336002521239836
0,336723488633029
0,334789556812483
0,330629276102124
0,3292742177938
0,32427807517485
0,32292059331933
0,31905146878737
0,319591607886243
0,317178435208064
0,310616982332374
0,309434836909053
0,3074941507964
0,30450339970769
0,306583313984866
0,2990578399276
0,301401695169048
0,296945216859879
0,297243585589586
0,297408236617966
0,29377608384394
0,294640605789787
0,291671005193194
0,292941727135845
0,296055673265356
0,291503054941283
0,291359323027567
0,292136085241791
0,291596559633953
0,295056313602805
0,295823252533557
0,295426820453226
0,297447041631722
0,296437130487784
0,298752430613913
0,299573779424909
0,297791203322776
0,302699040694872
0,301872440497095
0,302851331607226
0,303963922418189
0,30494315184158
0,308003086605629
0,30694765809523
0,307277693693575
0,312409864523799
0,311111175134505
0,310737021618043
0,312024204579157
0,311503245682137
0,311509008017885
0,312815707898993
0,312242472719927
0,311371422753051
0,311220066973609
0,312615950057431
0,309841617544903
0,313194384830545
0,307834099127158
0,306107803737891
0,307100682933392
0,305145905025058
0,304474613461695
0,305539985684949
0,30293880414062
0,304316567407566
0,303204087891975
0,299375372172073
0,297937590795021
0,298855139714658
0,295867761695004
0,297883926655308
0,297139474525886
0,296519217007066
0,292778625371922
0,293212939449557
0,293720484368172
0,29346639765254
0,293215423559602
0,291103474576691
0,289206695389561
0,286307871044493
0,286650051871205
0,286991964318208
0,285408218007161
0,284758392612648
0,285889668716698
0,284004016637852
0,282092955537748
0,280124866436149
0,278643035540494
0,278181645769123
0,274985090171463
0,275498587691996
0,273406025846815
0,269286103976809
0,266345414612396
0,265757645858652
0,263261758211514
0,264492539057229
0,258525961418271
0,257077662709954
0,255916546143993
0,253255524490427
0,251776554124833
0,252144147999535
0,252352076712421
0,251036709507221
0,248852753619855
0,249439462195652
0,251786788806822
0,248230146158698
0,246543720186124
0,243701570338307
0,244652869406172
0,24040941906984
0,239607864972864
0,239075555730902
0,234863711282275
0,232281392693374
0,232701845038953
0,226407277762115
0,225388225788285
0,223291405151278
0,222401864518055
0,220476572306288
0,217370337471921
0,218678817885942
0,220981855914512
0,222313317868901
0,227975563265234
0,233507932141302
0,236371922793676
0,242377548946146
0,252758284206298
0,259223695184849
0,267130101067092
0,277419412454641
0,289311932895324
0,299438812528105
0,309392654203716
0,321528090244366
0,333144488942752
0,342113528557127
0,355202782064614
0,364735888692046
0,377871603159227
0,387187898776877
0,397400327635582
0,408629088726099
0,416363973007314
0,428102424112872
0,438703049373866
0,439952898610494
0,449821310435187
0,457698621988001
0,463345605415489
0,469817681074817
0,473951394422828
0,482318447902772
0,491424170953831
0,497788094192588
0,499108597292451
0,504411274453138
0,503701131357517
0,505231991180464
0,506634861257933
0,509455752266059
0,510875795305622
0,513464145967483
0,510674636096789
0,512852632714252
0,514774404788636
0,514905801633335
0,512658691954078
0,517306987961845
0,518157907340277
0,521851759245317
0,521975005714327
0,528570455466655
0,526389274843471
0,532197156545072
0,536882071653068
0,545957228553994
0,543391899599166
0,548466173902561
0,553468095940945
0,560017636779049
0,565255710733578
0,571689068467495
0,578216490996819
0,588941033309047
0,592132226939141
0,600523987827519
0,606776432247623
0,62175466495181
0,626907622609143
0,631465232798946
0,639032058828756
0,648506308901162
0,645554495151473
0,656637039374375
0,6575700072779
0,659690816450077
0,658096072593248
0,659667904714122
0,658857338001386
0,650910085682929
0,652032399006006
0,65166589169182
0,650158664890837
0,645329687565378
0,6480097018698
0,655008720637065
0,65869794448369
0,669551966228405
0,673851353361371
0,679661207471319
0,68886198103254
0,703112335032699
0,707039816655228
0,718201379323952
0,739005769612909
0,740374200562425
0,761709325971523
0,765586911231012
0,7719591183045
0,791021775637953
0,803084475768414
0,815442388946574
0,821191211221592
0,831674426239987
0,841178643821166
0,864941973081458
0,872211232682131
0,888737981591689
0,914218160804477
0,930692996128773
0,946746087407565
0,940950214798402
0,968842517206502
0,989025260895082
0,991891060054613
1,02164458612396
1,02893881568967
1,03513039950542
1,05915710823732
1,0812545344029
1,09009225757559
1,08357127285863
1,0959245623686
1,1036176731412
1,1181460556386
1,11828108954547
1,12318345168844
1,15093303848006
1,13761612366488
1,13022361613555
1,13563250747612
1,12008449171933
1,13616718109628
1,13199571397541
1,10379805718098
1,14677585328056
1,10954570368153
1,13880277137284
1,12359371609313
1,12708925041757
1,13080662588106
1,14898200081715
1,15019444557444
1,16984652552754
1,18190808303243
1,20071624758388
1,20612851997357
1,19467157659987
1,22740615342706
1,24756869674594
1,22926002862074
1,24788184743681
1,2740518680424
1,29776857874758
1,27760826786941
1,29356976490759
1,30837080811125
1,32819770208622
1,30703147588555
1,33901832952661
1,33652822998213
1,34195532037141
1,35847739313561
1,37524507963889
1,39732713350548
1,39451299973158
1,36549215189023
1,39744112622682
1,40842743986576
1,41141097945883
1,38102867695973
1,37433931026867
1,43459518223873
1,40696417838437
1,40447475465498
1,43600016499131
1,3988843643244
1,40135360956856
1,44347152794436
1,39301572096302
1,41916117686489
1,38661949401952
1,36324677469259
1,33294824311472
1,35395591275354
1,30658661880914
1,24649078662141
1,24010399603529
1,20636415964742
1,13633524593839
1,09628451016332
1,05973069903664
1,02487477358161
0,984809897006474
0,947117424160752
0,953042166090606
0,926929472124009
0,905987063049828
0,888174809962273
0,887517499990921
0,870038695872939
0,862601616153063
0,856922240996247
0,851676680885251
0,839571190356848
0,833398118381976
0,829118947620031
0,810074721223071
0,801176970997723
0,782447173776834
0,781095970881007
0,770602412601116
0,74573279664005
0,718747191718052
0,718568596193098
0,70022083957494
0,681378407474111
0,651849696346271
0,631859729007762
0,605020477621368
0,587840555180492
0,556712293957317
0,532307556435531
0,505534954318016
0,480106089454563
0,458506754233292
0,440173872718528
0,419199094888567
0,395606855925633
0,38038796836694
0,3651671762261
0,347414714631852
0,332599938132267
0,320323248867653
0,308661151309777
0,3019263713927
0,292391485826999
0,279027456000303
0,280117628944763
0,269310064737656
0,269056963267913
0,261270031819115
0,255966297621168
0,252823787302608
0,253174244541266
0,25697646708246
0,249722624968893
0,251824287606054
0,256751264209866
0,252296326194538
0,250660892111175
0,255993459407034
0,25621128094423
0,252542876196319
0,261510891167842
0,258836683916522
0,257245979380832
0,254745233874622
0,252125940338559
0,253360087603911
0,251977161961139
0,249774935426753
0,24455966903429
0,24431301661114
0,243743523650526
0,243161675552848
0,240359183690167
0,234443574992493
0,233426129013704
0,235822751657969
0,234992710824024
0,237396458475625
0,239217855324121
0,239286047294833
0,234200801393662
0,242508692630981
0,243829586488012
0,245412731514987
0,24821795208056
0,253878023862559
0,252246240994791
0,252127555583064
0,258190847389538
0,256752393642903
0,26159979189405
0,264151669908792
0,25816420680513
0,263767834640944
0,268551400399824
0,266854265952528
0,266635673359424
0,265177739922022
0,26722792525793
0,266488111540816
0,270066686351949
0,265414373435808
0,270281614168512
0,278884745252257
0,282898701878129
0,276910995981644
0,285610476073797
0,286548977179484
0,301846916553613
0,306592857212678
0,303971602783587
0,31561453481178
0,324355612371499
0,345195504017798
0,34802162018374
0,349662525753544
0,367844873641524
0,36267547243216
0,361474226383625
0,370258047165395
0,36502539743115
0,364207373754215
0,359770774366024
0,354122146746581
0,347154498863174
0,340432188965402
0,330909373975981
0,32954009210859
0,324765022076563
0,319248238751838
0,326019469632422
0,311223725561202
0,315894796384444
0,318215810169659
0,319881007109581
0,319690552553753
0,317134262038117
0,319472076476947
0,317502773944117
0,312248838985364
0,309216551536229
0,307677056002921
0,31075507530033
0,306210477501183
0,306015081028057
0,299048578494937
0,286035499975832
0,283551746512017
0,290802375805413
0,283692405297416
0,284619057699172
0,28085093421258
0,27686724080389
0,274717272134554
0,272800297513203
0,274807531137046
0,270018804123749
0,26884495872905
0,266494198362595
0,26303641513961
0,254729763545658
0,251876357744408
0,257913659477596
0,259156206483792
0,254648997431753
0,255604595527312
0,26004506628128
0,248425374931278
0,249649504761792
0,249718870839671
0,25222357843316
0,239419927436237
0,239828623110258
0,242820549275555
0,241769185969865
0,237080242115755
0,239043839950482
0,226473540809142
0,234452834652463
0,229085593087287
0,230599053098523
0,23022273992968
0,23456747474786
0,237321148945681
0,227282922127842
0,230252836302542
0,232282825940879
0,231517834232058
0,225882415150982
0,22972826112968
0,232822854838212
0,219647086077536
0,228192575701694
0,234242027343791
0,229465812711918
0,222732969263911
0,23592689374666
0,226513053730134
0,231587631162258
0,230484485820465
0,240097948261924
0,236194628780022
0,230246562026911
0,229240938297192
0,237652459422627
0,248634733659241
0,243290855787373
0,234511372436085
0,25326315419043
0,251587521346177
0,248254640381077
0,257851749275095
0,263835220890758
0,257691007653086
0,260588323801192
0,269725615216283
0,281032792627206
0,27680532454091
0,285957054625395
0,294303368466011
0,288405232323112
0,28524082903319
0,314667636210261
0,32616576388546
0,339432991458753
0,342850138191823
0,359031660146937
0,359389706108039
0,357942543617134
0,388418241700961
0,404465951842326
0,398401516573265
0,43576226179163
0,419403988515883
0,415143196297063
0,431216556644902
0,42862564210686
0,434451187510058
0,438351917522339
0,421212909507996
0,431220534452834
0,439543056714756
0,427798586959729
0,43160987693045
0,424082199331877
0,44227964874456
0,427655680817699
0,41511994106635
0,412059196048385
0,407598018189624
0,429212583226397
0,404707467497485
0,388601455810086
0,41479201326188
0,415242427186942
0,386733486782118
0,415682747362619
0,391342577493303
0,382290871401199
0,371481716132915
0,374241899027216
0,376831418282214
0,375352246697238
0,366469474473564
0,367029574844823
0,377305783364451
0,373234167804821
0,335054491067339
0,360159788925856
0,384993132274372
0,344509943948252
0,357069400302524
0,360838384551997
0,349963863689034
0,371771014094627
0,335066734481977
0,370368652627302
0,371132413354506
0,365770309139315
0,350151955129391
0,371489905132145
0,352847632667262
0,358108968882808
0,382364161760833
0,355756218178509
0,362015426881834
0,374526550893742
0,408853143460753
0,400438989466414
0,38523688853918
0,420510226702641
0,364336086279285
0,372558722195757
0,395369863002421
0,382908892054353
0,391123651055541
0,402991254801146
0,396640813449023
0,368111643307409
0,390179739853947
0,413375529022659
0,408228831433021
0,395005570969734
0,397181166463029
0,456733891422879
0,394143860015664
0,41725846628958
0,41430269472696
0,503438153807601
0,462543153406566
0,42784538481482
0,473943601046661
0,478263354786799
0,424259635091659
0,517865643792638
0,514287347596419
0,507853200801246
0,49830025335528
0,533909432637593
0,463063589249657
0,510164352007119
0,525345030032391
0,555926869056547
0,521219797395983
0,509597183216184
0,573819418220164
0,594441626076206
0,552715978267062
0,497304443586537
0,544009772741476
0,469518367195148
0,479072538075316
0,567581913822671
0,54835819853177
0,529531212198931
0,458551724813955
0,540538227412773
0,471649572784453
0,470730209770936
0,445833267028138
0,434115019232197
0,489539191300726
0,536103162326505
0,525860640087577
0,519659287720008
0,449909829385189
0,440226588641137
0,440600197196126
0,518566222307665
0,480021881399
0,469113881466131
0,478747988747591
0,479546232976865
0,436545219119042
0,426385402135751
0,538425008857561
0,601777117908768
0,532385794168307
0,519586209142296
0,505359420843804
0,865714987734159
0,362446749498864
0,406837962853162
0,468497047362882
0,697113832510675
0,651069078551877
0,692962142127099
0,622839381629752
0,669639875209913
0,717329092230582
0,655066058005288
0,469156318822357
0,466601899059282
0,567105332881728
0,815678050928583
0,387069139212443
0,505692529409813
0,591892140252965
0,340107528693606
0,498214783314126
