3596
4000,36533379555
650,420452594757
1
2
2
0,0483735348790199
0,0453678087735954
0,0617585827092145
0,0501795715765989
0,0360338359702477
0,0446576923843279
0,0471127751049476
0,0474887940510304
0,0442778414325696
0,048437304320086
0,0455805513544625
0,0492665644914516
0,0533009242895458
0,0509801376073742
0,0454112197706571
0,0505038619590928
0,0403024125896234
0,0630898702506962
0,0530619576439376
0,0535227719319774
0,0468625180002428
0,0483650757198386
0,0463580023579884
0,0632970404443884
0,0502602633653533
0,0498884071170446
0,0460585622773457
0,0548374473975071
0,0532524229033004
0,0479831839585789
0,0536727356781461
0,0556892681605327
0,0517566344077725
0,0406721841438515
0,0429783155475528
0,0619420892294435
0,0537139903783433
0,049218790883875
0,0470798961747951
0,0462093430955492
0,0434065956089776
0,0480148099844082
0,0358925392881847
0,0520086189566043
0,0572198014065335
0,0485650543751469
0,0495310893467299
0,0403359857733033
0,0530017736486431
0,0558410447377132
0,0457036352217512
0,0387059514284186
0,0594111393025303
0,0453011623778127
0,0588123042654793
0,0480850405249388
0,0502816537782907
0,0528816751537649
0,0445640487934206
0,0476926486710595
0,0505514586736332
0,0393363954401113
0,0514756343503978
0,040385824954738
0,0552865033801749
0,0455543058602345
0,0492291226376238
0,0329769297115642
0,0604249075299213
0,0428375175729099
0,0579332176130438
0,0586068078932789
0,0334784925302286
0,054646206801984
0,0487349000918873
0,0504568360423475
0,0523861126078304
0,0370655378867312
0,0539825888413916
0,0574289819422306
0,0322109036409423
0,0474785741232238
0,0443658169610005
0,0479047585293768
0,0635712722034727
0,036611244986209
0,0499863009404845
0,0526263864416095
0,030388828575268
0,0364813806906791
0,0359233935367262
0,0378285335461808
0,0456871615460024
0,0407126784193379
0,0448965668264222
0,0450005514105266
0,0443625354870946
0,052128794355944
0,0507667582862307
0,0578727773608886
0,0239840912959499
0,0949745611129655
0,02382481477131
0,0676858742432709
0,0700119276486986
0,0201059159126654
0,0654252624492783
0,0189791064963947
0,0562074443013566
0,0323352336742233
0,0488808637819854
0,0370505785196556
0,0569088563997781
0,0341952682626359
0,0386455063050757
0,0460847187537121
0,0348792038824653
0,0369886296824566
0,0323477901856952
0,0361594699392704
0,0361504675946265
0,0714462885200895
0,0180331155387897
0,043177699415325
0,0459961993504389
0,0343281965033365
0,041633418982658
0,0490022151053204
0,0164447040673584
0,0484410460389685
0,0327343860314378
0,0399682314923479
0,0259988532208614
0,0733034459467465
0,0401886878325688
0,0436266451594016
0,0404109162152782
0,0498044471430292
0,0585736548841745
0,0309443205903892
0,0466922336981752
0,0387648558711211
0,0341156301671131
0,0449622732627267
0,0316664523019234
0,0438887112431537
0,0481293268066648
0,0570021057742732
0,0345239397623634
0,0514300018860368
0,0332852423660228
0,0505553800846731
0,047203717014059
0,0363635103772004
0,0508095977463054
0,067564411355863
-0,0134832479065558
0,0829885224974503
0,0183417463605517
0,0411534609686421
0,0418051607608059
0,0279423066629582
0,0406683692031016
0,0372678363766198
0,048037594789792
0,0300965951438363
0,0694737432147191
0,0272838741776028
0,0440761956184045
0,0430073888064606
0,0367161744358005
0,0305979974631681
0,0749859767452346
0,037633783192881
0,0249526096524232
0,0653029363974336
0,0420270045396688
0,0346398840729707
0,0252301667376945
0,0554633966989115
0,041755967374475
0,0334996923887803
0,0335896059278981
0,0420857754382237
0,0409526844442093
0,0439128574746143
0,0454726266963167
0,0448106832379776
0,0299014021199512
0,0410554909804353
0,0641280965265761
0,0501174392568714
0,0191387710917563
0,0484100433465638
0,035161479041245
0,0429617109685957
0,0668443675953129
0,0363893119653711
0,0514137965564564
0,0383699308878359
0,0373933131827489
0,0409172940569341
0,0308757003650988
0,0490240630137041
0,0320554751995965
0,0456613080869293
0,0368230931242523
0,0342901199507085
0,0530501199728033
0,0290669200264124
0,0439398574347185
0,0582032666503987
0,0890408511276053
0,00663648184282063
0,0502738109844532
0,0338119216961183
0,0509608035295606
0,038574974502529
0,0361277247773841
0,0292268166204308
0,0391214287444258
0,0361753349283836
0,0472988422498357
0,0411315701422612
0,042343756321695
0,0343497780125646
0,036475436959067
0,0361393727143085
0,0380715023784366
0,0475160801752972
0,0489509898900506
0,0326348543513931
0,0452439513512462
0,0378283963598968
0,0376995323545811
0,0617036905987481
0,0281271776804388
0,0386981186498891
0,046046138421003
0,0440409629311439
0,0380175603240666
0,0388979622924076
0,0302098350144089
0,0479925617097156
0,0452359002156959
0,0528111377428682
0,0464700132839313
0,0381439796197552
0,0507135088027398
0,0343802783272584
0,0685972733781033
0,0164624393229194
0,0547607467730607
0,0368880109756111
0,0526281219141372
0,0253067601301646
0,0601728822795031
0,0283464174567728
0,0395444700655117
0,0396753530816003
0,0586432754060454
0,0231525736503765
0,0555000702117477
0,0389310228532793
0,0748585515051954
0,0480381641560477
0,0289458769289352
0,0446924037752136
0,047965147317212
0,0292738443811171
0,0619586200116683
0,0270713318348311
0,0801503176272036
0,00934014750130752
0,0425919425425675
0,0289124492598987
0,0591484184398424
0,0394726416093723
0,042806745467298
0,0493438264893379
0,0309750290270444
0,0628626205608419
0,0286270358978285
0,0410787494682961
0,0644861744418665
0,0293032918320868
0,0886747561150411
0,0193312354187706
0,0610742955082383
0,0274207262935801
0,0506704714842011
0,0407118133982272
0,0802584632313186
0,0308724300523551
0,0746230247458707
0,0258180988452533
0,071800209644081
0,0410476124533258
0,047932846453077
0,0407943042552955
0,0696983910005268
0,0417511199096738
0,0489993797887942
0,0419536447279956
0,0545058337820972
0,0539770132283341
0,0495706100235888
0,0542928335227398
0,0752350902947766
0,0433646492085485
0,0722136807014686
0,0330159102493554
0,0561066083992146
0,0462629933704157
0,05287256184325
0,0524701011072871
0,0546034933843717
0,0516563217024865
0,0613202535109697
0,0592535823573222
0,045461781063147
0,0610476722335859
0,0560716259110902
0,0512308824528916
0,056558138002868
0,0585893973796476
0,0549041573410948
0,0551408129540558
0,0611738251364201
0,0606205155344735
0,083959440439925
0,0582135922303426
0,0549139475020403
0,0819840976869674
0,0526233397471672
0,0647942981445972
0,0585065550663594
0,0604049495868946
0,0661934539249971
0,063964860746861
0,0727891691848003
0,069061109407868
0,072166994833402
0,0743495856511153
0,0755757741884623
0,0721193214071247
0,0958777912887005
0,0852335597562576
0,0900740587530347
0,0518842681783952
0,0828380029308177
0,0778170802552281
0,133904569075364
0,0641358046457504
0,103532323058644
0,0680668651257276
0,086710195566907
0,0779606466908943
0,081187899194659
0,0865939399841045
0,0822854753607167
0,0878531635053555
0,0894197353447784
0,0908374251822214
0,0913036730736901
0,100008027317688
0,0956618209496958
0,111532273501505
0,11482780752732
0,0933368460241854
0,110625808872118
0,104902473725648
0,105054287520633
0,13660693251183
0,108858068117185
0,128200207397842
0,108017873685691
0,123875756012018
0,114325167502193
0,106440161866015
0,129610912024794
0,109184878599473
0,133232508926331
0,122054959067575
0,130736352795823
0,124030417854982
0,138190758320647
0,134659284469945
0,151390498437111
0,131875640870699
0,151546301850547
0,129668253013105
0,178529404659249
0,131754614878889
0,161275657240619
0,148371451582365
0,206233375361585
0,156263787362473
0,189173458175236
0,148749090515973
0,166045305503027
0,153417911433238
0,181919140334875
0,173769621641385
0,187364471774016
0,179676357327362
0,182322286669012
0,19428702165032
0,205270270900995
0,181396792645297
0,206204314180826
0,16930042058796
0,216047383336311
0,178010409514175
0,229724963688347
0,193644794727133
0,217570092732567
0,196173526380789
0,231478434790661
0,198957017988526
0,236690734621874
0,199158952936246
0,231034643556061
0,221699121543125
0,250746497688451
0,251854060795104
0,240081209716059
0,240652198104139
0,248515056734819
0,243164529006273
0,256001903687812
0,248065512669151
0,264315731211186
0,261677432689856
0,265545297231723
0,26343738090602
0,267791608592727
0,2548593062671
0,296234315661642
0,255789515434157
0,307187912746952
0,268596968984371
0,317992958936615
0,287332787048636
0,309475641911941
0,286528742733796
0,293766752947835
0,280407444119264
0,314545149307661
0,315204755439991
0,327741375542521
0,313247449441391
0,340408732353536
0,319711365500886
0,3502021321563
0,324743700319439
0,347657787054093
0,321075674511013
0,35330702405633
0,325352801232557
0,351504004878407
0,338373782352516
0,41968433383235
0,358016750673342
0,399538101326202
0,344349798299333
0,367242347326039
0,375214355433011
0,402316122251987
0,384407717284252
0,395815791324608
0,398405678866429
0,421324379162248
0,401379560515136
0,392664712950038
0,403244655158542
0,433297493130584
0,401063245516626
0,449518596667215
0,423885771535721
0,454376051423954
0,431743979578382
0,437102901406055
0,421495743853853
0,45344870854676
0,435274176777557
0,46924278168108
0,465602689583746
0,482311715413131
0,463690345703628
0,481872989787237
0,467187172761925
0,516523512759896
0,468639197561977
0,50447361744099
0,482280264402067
0,525172137818884
0,506924139764336
0,534665178020695
0,518870477522299
0,551647933806973
0,507289503129697
0,536089787094835
0,530209954975464
0,555955779212464
0,504274543947502
0,574610326596191
0,540657953538586
0,569639217095726
0,547353602554474
0,568218781836532
0,553560816596098
0,594235827937952
0,574800662040682
0,584615045558939
0,575156221528787
0,587146157166765
0,578580349743203
0,629522395963005
0,585753724142594
0,616978509166836
0,58842021127414
0,619656988707183
0,607556773075113
0,665517502970291
0,627405684475696
0,664170154030179
0,644884257563857
0,66649920609033
0,634332905905662
0,663862838369854
0,617799175900803
0,668634704750016
0,639615661399306
0,679101372035581
0,659102590497382
0,692019376372518
0,664971331912699
0,724632987370222
0,675577445699545
0,717039251795473
0,627486508359751
0,69366127796907
0,686446005172962
0,758451588681772
0,727049061616236
0,726436669537192
0,719851280152161
0,780898749105393
0,720480107054635
0,781930754774527
0,737512639455282
0,775382682577876
0,748840056000641
0,771365279077114
0,711878267615543
0,768388826982559
0,768686350594772
0,846969941520073
0,805662415534404
0,838740714025051
0,760451145193576
0,835763202495696
0,810928231964167
0,803291698661036
0,806242462585199
0,821117308965667
0,799784922387826
0,873668710790986
0,779927842448652
0,834911890283227
0,819888349349183
0,876265491308251
0,847357279252022
0,896543472407342
0,871488092195495
0,9360545929298
0,832833951317613
0,874103171857513
0,840414928888413
0,940415797344833
0,903304126830303
0,949779775107797
0,934579261171606
0,987616177129644
0,919840258571575
0,993320226022636
0,905897484780219
0,920526819227389
0,930838382237046
0,977517058181618
0,933900530911592
0,966143113709007
0,951896691058238
0,928060834074929
0,910367040699018
0,997441418974845
0,96250896868622
1,00646144348546
0,939592380957936
0,963826302214756
0,965691820558251
0,974710259741907
0,931043722480769
1,01598564941289
1,02006637157212
1,0497887052509
1,03359664656052
1,03475260167831
0,931008412366119
0,972902344211825
0,9702006900597
1,0218419263019
1,02937923192628
1,10648991275491
1,06180337587803
1,10331147646903
0,980968287777787
1,04949664088526
1,06265057941022
1,07436859375476
1,00648992705177
1,11187328464498
1,06179891498425
1,05232703077799
1,04728156810288
1,15600640748262
1,0844416605406
1,08472008791659
0,994024796765956
1,15159389868802
1,1145536205048
1,11345919638002
1,0590150629421
1,11692992101918
1,1467164347791
1,06831185142952
1,08850847308474
1,24010650729196
1,10923120474085
1,14810056611712
1,18479046512758
1,15771232078822
1,10667590112112
1,23519461617018
1,16940201373823
1,13432081371499
1,08011482015435
1,09957643759796
1,23302220838074
1,20449163055268
1,10501299902342
1,16793594856796
1,16290666340551
1,22055504853248
1,30132114012306
1,3472941584106
1,15543206675587
1,20327975922002
1,25944508849725
1,20137699609443
1,18184505020182
1,2154693743325
1,15537383617005
1,19302799292556
1,24341575893369
1,30421079179883
1,13240529874256
1,19951101720974
1,23230410532625
1,14497007305652
1,21388664301292
1,24949021704724
1,18490627284033
1,17026323478864
1,12658360508376
1,38098619716836
1,30363022988353
1,23513263604416
1,21240868576772
1,30088341114251
1,3407321368493
1,30796330262695
1,26949286197565
1,16270018065633
1,24091606420957
1,33858909344191
1,19934814583049
1,27603111097922
1,33691497139835
1,28782156371632
1,32659056705525
1,33901665538695
1,25112164214371
1,24036853141299
1,2309192641347
1,2775025451558
1,237360995829
1,25873619277047
1,35850426803778
1,31456561974308
1,20668492790792
1,31936594928792
1,315795129508
1,30021476131467
1,27579304153397
1,29352575938909
1,27846627268231
1,30875115920918
1,41403005047334
1,36346253510882
1,25263928632167
1,35410399189733
1,33538509822316
1,37198569011116
1,25661254925736
1,24693055473957
1,35079541623744
1,38490060786105
1,34253222826414
1,34094534723683
1,3023315230509
1,27142654456876
1,32924042592999
1,28823974534065
1,30686995294223
1,36000060453627
1,26840065071924
1,32567092554265
1,35109104417416
1,29216387673928
1,30079302435322
1,31687119426883
1,30308457290734
1,25906492739277
1,32555021048852
1,32613424112851
1,29836912778652
1,37289788628851
1,31008562638716
1,3004236774816
1,43126574943173
1,36670901977253
1,3875150072173
1,42085845624339
1,31884891318554
1,39835236774228
1,42086481322072
1,43346329589611
1,3198296657123
1,26817970480814
1,36231212218541
1,45319256721411
1,32335236505801
1,24617425958391
1,3674317044129
1,35895141736973
1,38673443509046
1,37131927614137
1,26069837284821
1,28729519007082
1,29763016516472
1,42939029364019
1,30215739006115
1,32098751450228
1,46515443875592
1,32502793988907
1,41186189400655
1,29946331175549
1,31506969452453
1,4168055551473
1,35225621197814
1,3110990037671
1,32403635413343
1,30683741123008
1,33488260064323
1,37594989481343
1,39516609533994
1,31222382054245
1,33307947292517
1,31823672016816
1,24069707454443
1,36351559090394
1,3529458590602
1,31893802411694
1,35064871350073
1,33030487220081
1,37245767655055
1,28837130751574
1,29137907504101
1,34511305758916
1,30325946286388
1,32905916875506
1,35201503383072
1,27687849724995
1,29568741035494
1,2810882040936
1,25565172537429
1,2786169056743
1,34702884894492
1,38332109071655
1,35579765540208
1,27019131388151
1,35047752114223
1,30233336547042
1,28316671960899
1,30342788522003
1,25025651646655
1,30602817770342
1,26504247900682
1,27296268978443
1,32214014852006
1,2133513912505
1,28884880554196
1,21918123534273
1,29877638642886
1,3516805563463
1,32459328496272
1,27843491300521
1,27353591139043
1,25296861020284
1,30299332397385
1,26200425112981
1,29662788894398
1,27391587980905
1,24403106297289
1,24566204299518
1,28278323042813
1,24317506190238
1,2513691622463
1,24431852521623
1,27254840054996
1,20058999178273
1,21661004343732
1,26169649279306
1,27613153009985
1,24737715870671
1,25344378792556
1,25740110925416
1,21142325253342
1,1892544514967
1,2172120441782
1,17391373729693
1,17262283568811
1,18118961049858
1,27247813911227
1,14394179827722
1,1805189123153
1,17500349955088
1,14078717140364
1,17859985074481
1,2077080575435
1,11189700042665
1,13407662641059
1,17564013483074
1,1893266100855
1,11348093547864
1,1426670775415
1,10565109179347
1,16433716994148
1,09539010165563
1,1639096984842
1,12195390995295
1,14216103798521
1,08544018730565
1,12082986659478
1,07238765053965
1,09990602940547
1,12121460722208
1,1293728638703
1,09851756727974
1,13204910455817
1,05640617189579
1,12571471510716
1,07481665347465
1,08554322940033
1,06542394598693
1,09669719547899
1,09903866468372
1,0986314089594
1,06645245621514
1,07952794033916
1,03571849615839
1,05086479226228
1,01947653784751
1,05736481960354
1,03118767424622
1,06023836547655
1,0118483526495
0,980519413510472
1,00359927368921
1,02452891914099
1,01122978603605
1,00551562949257
0,983968241117492
0,990486464329085
0,962410442947756
0,976015369871111
0,9430672013566
0,982283298965497
0,975009009451247
0,994289026951166
0,964221210757975
0,956380558307621
0,975007440844196
0,953726144950103
0,921890136886237
0,951467313585208
0,943622034233039
0,929250551638333
0,92582259977872
0,932958681535604
0,918603487529793
0,924638973297009
0,916442031713239
0,930524981789178
0,909606075638531
0,914467845971064
0,904914657448923
0,905281854264098
0,881864108338764
0,88278184327958
0,875807054053899
0,882223410115255
0,865214088017929
0,892600889101991
0,858548484797274
0,86158143374827
0,836823133733224
0,858876842951064
0,842509071405096
0,841668877780751
0,834305045804068
0,837257036019789
0,827036624880706
0,835037076298714
0,799364887579447
0,827629012966303
0,81319863669132
0,834328683817238
0,816727528395374
0,819438888043373
0,795431939769836
0,802748574110342
0,772055814296643
0,793479765527646
0,782620411098641
0,786148368252521
0,762812314827428
0,786920886792329
0,753190931775729
0,782454438160786
0,759171845014435
0,775406165690042
0,754500445897164
0,761137272881784
0,745389861099158
0,726470041142633
0,7506807222635
0,757590889654053
0,727329436498249
0,738831501402356
0,731549173151414
0,721740417147428
0,711688969771016
0,725298509725766
0,713820589636021
0,722600338643942
0,700285352889957
0,721941112202717
0,699332057600577
0,698413304339641
0,682250700841184
0,707304302886129
0,681388430636802
0,696652924884226
0,679977934360071
0,68744906203241
0,675615772297953
0,68514220310202
0,655505056760516
0,66448921313021
0,661679103552899
0,676097584694641
0,654098684429125
0,653007088266982
0,642725055587022
0,668566147771243
0,653186033393171
0,666753401133119
0,635548823329015
0,642626967054147
0,635609502402647
0,638135439045838
0,62470179444901
0,625509632027147
0,618001893569965
0,625491775292801
0,606141921831272
0,619363474820919
0,614002530059901
0,621599725323446
0,615001105929707
0,60850905947306
0,61151253591178
0,617453999899598
0,602074631102379
0,599256400859564
0,596227251269015
0,587336150833631
0,58478831621467
0,575296974082121
0,581910602465417
0,594382430695512
0,572988039854023
0,568899917527413
0,563238626977643
0,577203504705513
0,552795941366618
0,560893377148265
0,557856663699947
0,559965104755697
0,546841793796941
0,545552536589737
0,551258674708772
0,54937800927684
0,528165549978302
0,540656537374116
0,520876413933651
0,526318074395918
0,538693299391741
0,532566837607305
0,511603621091919
0,532871561285149
0,519457834440999
0,526447030491956
0,513064157914673
0,525143645518037
0,5139439335394
0,512791358384146
0,508435953248049
0,514477228211172
0,489247553846408
0,499022220302178
0,497205813198853
0,509418343499632
0,487938777309313
0,492793115386786
0,481580080603393
0,491538856814862
0,469362791691324
0,47962079096688
0,484473320461803
0,472249203965378
0,479776690701956
0,480117834971616
0,479477154344293
0,472762466866082
0,473269883090258
0,464158264002509
0,468307702845042
0,45970655201417
0,466141258838513
0,460743887014467
0,457963872035482
0,466993748532342
0,454798369714202
0,457474724911403
0,453311428129839
0,459122812394445
0,44672302580814
0,459037281790104
0,45049937440096
0,456019904194587
0,447514121985147
0,456156751821141
0,438977568133603
0,444971196510637
0,444027918037035
0,43987878508623
0,441667607248502
0,454020997839603
0,437799959241103
0,445390703407093
0,445266951952241
0,453145866908126
0,456101173205693
0,461433320823063
0,448546866461846
0,454786085044347
0,454670904811867
0,45779858789472
0,45436917180403
0,462796710252315
0,453280967504974
0,467848659790971
0,460916214083278
0,469751628842305
0,454306284306181
0,470751982266182
0,45951370357466
0,46678342917747
0,463049991197473
0,473102222935849
0,473281791242667
0,47588553547034
0,482610888364961
0,493787095071487
0,482088103888576
0,49022472365256
0,476413823886923
0,505367523632538
0,490652738324786
0,501159213871549
0,487393496272213
0,501515262107979
0,503913884605659
0,512341784142662
0,500157241112111
0,512635487333025
0,510302582421259
0,525470728388881
0,522625925290839
0,520941833821549
0,513273033221029
0,520791854984968
0,520718194070013
0,530763491913667
0,524200418734693
0,536761377833515
0,530399043967714
0,544364125402268
0,538521874764898
0,551376635408871
0,543322391104411
0,547646198711948
0,54714906839072
0,554724461824435
0,553015871455555
0,584676615964453
0,558716508493821
0,56945479291476
0,57240102402189
0,589321317815171
0,581402351889741
0,582480019718049
0,572028029999104
0,606657415675291
0,579223222430782
0,603497188717375
0,585187424072299
0,603465294413476
0,595935621987927
0,596134171977077
0,593719075465066
0,59642437435958
0,595985941185106
0,597240569494688
0,579094039125604
0,596072029398967
0,58510721578091
0,591468843611767
0,582679547137781
0,586577779121818
0,581804346853535
0,597273846601906
0,57388158215064
0,594975298397606
0,578210730535651
0,585278591003813
0,590517809339686
0,603222584312506
0,583543645747304
0,587970189213229
0,577614969093061
0,590328148045718
0,582199198985361
0,590534845724279
0,569812057583455
0,587842200543116
0,573255139222692
0,595541970006616
0,580413014606185
0,593334460925269
0,570792987413874
0,593046118226947
0,573914667815568
0,585632031931663
0,571743456657312
0,5922887791364
0,577264631141909
0,592880257007048
0,587157153380006
0,588303332817706
0,579612274852038
0,592243639150656
0,578606943533054
0,586929121417995
0,575014876695349
0,577834274020619
0,580007268147012
0,593353991423354
0,567208270063977
0,585269313874517
0,56799415220806
0,588632332600341
0,569590048731284
0,580756392875669
0,560139872551172
0,572810441419075
0,555584262167637
0,57037754891619
0,561452455935447
0,560486986112645
0,548638870569629
0,548997430601757
0,537685306830157
0,551283527683025
0,543357606641703
0,548422635379108
0,53079274518759
0,53772262872437
0,520992237191783
0,534011561752637
0,522168860988576
0,529942133012595
0,512309180200512
0,528888531431204
0,506488627371473
0,509060540670794
0,494834938499684
0,493200234996609
0,480272066728243
0,4943820953763
0,477968722265234
0,488205230747174
0,475977586578903
0,47661337123098
0,470109660230637
0,476640609528651
0,462576657145875
0,466001781346766
0,455603461339568
0,465466744268053
0,451463998546732
0,451343634156379
0,447115353335136
0,450948898652505
0,436536920750792
0,448560040579228
0,43592484858291
0,437952335979204
0,431143617043583
0,435635925142048
0,425312339668811
0,432959067690156
0,426740487893718
0,434964599466853
0,417468318433692
0,423144437914695
0,414634089995036
0,415918114100171
0,411137905727988
0,410759685036767
0,405075194665254
0,416833143220982
0,395354655912237
0,402858474428077
0,390294549710109
0,411495681927213
0,396679315745219
0,408769796447205
0,400776968956739
0,399119073053487
0,391863097008486
0,392424322679332
0,39402547082861
0,391014820013849
0,388638091457434
0,390929398836711
0,380550478633255
0,38947779590011
0,380911672353405
0,387258213367601
0,379084173515562
0,380760620363073
0,378563722153323
0,378723148987673
0,372611234938902
0,376469250240712
0,366107868730363
0,377267804425837
0,370879644446654
0,373389865072659
0,368338564544044
0,378285574206376
0,362795199855933
0,369366271223411
0,360260102720247
0,372068383067298
0,352402798077148
0,362205919224597
0,357697823472033
0,36326340585902
0,358807228103895
0,363228854113696
0,353864200334404
0,356349220789856
0,352047694223005
0,355698324927439
0,34911789021183
0,353970924698802
0,346718953189743
0,350806155528716
0,339944695152742
0,347069077716665
0,342550022041781
0,344109710149838
0,34653505120413
0,347224409634635
0,339378975932338
0,345981512723527
0,342903398039149
0,346363447127337
0,334393088225046
0,339094661476899
0,336860663589535
0,337514286442654
0,335881058904339
0,342355059929354
0,327868518347231
0,335323389217328
0,337824972646444
0,339390673669611
0,326312536132914
0,336448659565595
0,33102934365211
0,335244550495791
0,324041914329874
0,331519650891795
0,329184772083173
0,327934104170166
0,324220897213782
0,334940227072027
0,32289606743427
0,328588194958959
0,320598351563418
0,333876080567967
0,32338790098822
0,325028547604003
0,321247096966556
0,323747035304883
0,316977873359839
0,325590043503001
0,318342955964222
0,32651825846536
0,31798246381332
0,321467967057439
0,323687743039122
0,325837150371654
0,314148776655347
0,321196189561117
0,316771198737056
0,321555258434266
0,315278469028986
0,321955353020343
0,312641813593907
0,322111153733508
0,313920393357099
0,321950239111064
0,312161764600746
0,316476775401131
0,314955468439728
0,322544694519274
0,309751482452177
0,316318802078786
0,307285134646606
0,308677321212489
0,311238329148788
0,316590072920748
0,311200718165698
0,309131440914204
0,308453075037109
0,315151452570544
0,303775570110558
0,307407245971989
0,305727019947541
0,303124385856382
0,304021363712464
0,310389727188577
0,303306741291927
0,304762989086027
0,298608428250102
0,305119725115413
0,298925374774244
0,30352874718427
0,301718160473388
0,300103807745185
0,296738867427127
0,303143599544657
0,297196944935449
0,302743646028463
0,287576104755266
0,290576442801779
0,295777063929461
0,29696869377044
0,291714274220413
0,295320025854533
0,29179034182963
0,298885837132649
0,289330184324908
0,296562931820726
0,287292970967741
0,295329616955995
0,287390424247912
0,289019927042269
0,286394145964281
0,293543913823356
0,281691805219278
0,288293833263237
0,280679707264451
0,287833545394794
0,281299729622422
0,287809501813458
0,281460112407082
0,283989844108474
0,276194251017273
0,280498079802385
0,278399656806072
0,276278576512433
0,276385863701198
0,277793862892659
0,27259332067645
0,281995777921623
0,277023811982339
0,272202656874372
0,269057158344412
0,278803409223312
0,267160656991826
0,273513046754898
0,264634996229885
0,267902682973448
0,264641520489594
0,26591263628512
0,263315756781607
0,264739097617756
0,261518272680267
0,268842395936557
0,265149498156082
0,261876438697908
0,261136910028795
0,26325187636482
0,254653646374955
0,263691265033463
0,256921554022497
0,257990930611518
0,258507928111201
0,260617526893516
0,251547703798244
0,258433080220073
0,249649520486987
0,252409520725339
0,246620096115325
0,250230461689918
0,247685523827463
0,249436681650205
0,245460587075645
0,248978354821579
0,247276536713319
0,248380947187087
0,240303468408987
0,245977697118439
0,241339265452519
0,24466668834827
0,241414689686768
0,246909627705632
0,241570998977139
0,240657128704704
0,235682762757088
0,233833688082132
0,234399078792416
0,239707814362798
0,23562894206722
0,237469397543298
0,233628796538429
0,230964158446104
0,22978245836621
0,236410815394388
0,23146795478102
0,237538401866521
0,232205969197452
0,23563264611829
0,225242244302255
0,231062410784111
0,229193168143005
0,227430920219516
0,222879087526577
0,233621336812211
0,225404760659997
0,225853888072425
0,222392013269634
0,228705261870549
0,215677849691869
0,224555986429346
0,221989556506154
0,221663669112236
0,219243106782905
0,220714492354592
0,220040630644101
0,221647166649818
0,218981546764402
0,221533469734336
0,214488653521583
0,216954246430473
0,213480461158817
0,218004525302903
0,212805541190919
0,218387447894972
0,215468705335896
0,212620221352441
0,211339958800274
0,214691745769519
0,210083844146944
0,217313823896848
0,210518814277368
0,213271622815408
0,207548782373886
0,215098303752136
0,210638260125804
0,209910971627431
0,210761660199526
0,210259190037005
0,205193454804421
0,211551145529175
0,20495948274324
0,207586220828011
0,20841700470905
0,211486480401784
0,206443803630284
0,208269012354378
0,206251875386722
0,207706640001112
0,203238272695789
0,207448352899598
0,204530658444257
0,206764523386469
0,202111331089004
0,204273155519255
0,203124018107469
0,208706279581181
0,19999543291007
0,2043188710896
0,201450430281583
0,203688766983844
0,203291340743088
0,204537068601689
0,199496383432522
0,199819238947244
0,197524274563769
0,200967010517195
0,196853546404328
0,199322319480126
0,198976342225067
0,195356020391011
0,191695688215698
0,197735929787162
0,198316145970896
0,197847980427955
0,191566035028511
0,197398734135261
0,197320478941316
0,195070555043311
0,191221782134435
0,195480966171378
0,191655966394177
0,1978726769377
0,190061319454198
0,191196607349634
0,1907678698274
0,193611200127973
0,187371555197405
0,190506551723652
0,191608784510831
0,191251023255181
0,184578399195071
0,188159981989031
0,189588239426197
0,192902755222857
0,186888066025685
0,187270676331634
0,184535224193937
0,18911386267211
0,187236009021351
0,188758465504046
0,186233661417913
0,187646120366064
0,183921804091727
0,188929232518778
0,186538728977819
0,18707117839717
0,183491478751964
0,185145009477291
0,180029462134837
0,185821235996873
0,183496581900957
0,184559419840861
0,181500949473083
0,184915565915493
0,182739474738245
0,184745104625978
0,181923084233669
0,18099121401812
0,1760576692002
0,181668537561042
0,177339823958223
0,180636853416042
0,177529584992281
0,179828928110681
0,177645300874692
0,178253994474071
0,17429302883266
0,177508928567522
0,174252319396482
0,17875261810116
0,173842934656105
0,173953115867484
0,172550962279028
0,171927392672499
0,171078989607282
0,171836751741224
0,168946680505632
0,173526217840128
0,17054007828397
0,172701718375491
0,168350250720023
0,172327713319142
0,16796405638759
0,168270901325984
0,166358669521426
0,166384630676825
0,165605836115595
0,170728749183948
0,16498674493644
0,167240889877525
0,163975003296333
0,166788672324558
0,16302182977619
0,165400357987472
0,163430059263185
0,164118565131242
0,161536991346142
0,161574738292354
0,15853811832665
0,163097604856133
0,157780601811297
0,157340360275584
0,158523038914728
0,160744950690902
0,155682616859846
0,159490673220372
0,156222200177096
0,155351915146766
0,151339832883014
0,151740692008585
0,15038259091983
0,152803155168698
0,152231046000264
0,155912410837558
0,156032458940998
0,153194195442956
0,149451166392495
0,15030111508663
0,146870071982112
0,153204027660673
0,147616081394963
0,150533253284626
0,146813452680593
0,149058374990138
0,147720431490502
0,150194538559624
0,144688310056858
0,146455092515676
0,146479365940713
0,145264161177607
0,144534964141261
0,144926458590448
0,14226079088754
0,146491875712063
0,141464626357798
0,143154933268026
0,140582611597899
0,141839450565273
0,138156019614856
0,138337318480509
0,136463658317556
0,140120287422157
0,137795587813848
0,139331357175264
0,137381297800429
0,14103390882348
0,135707863884406
0,140454623310669
0,135299418512072
0,136447147056675
0,135708054779451
0,137648023867654
0,134293043347553
0,136162918437786
0,132546612998621
0,135383453020293
0,131264022626519
0,131693073401206
0,132937022059711
0,131867899122092
0,128514985049449
0,131640199416299
0,131844534210311
0,132053068177256
0,127416284316662
0,130769815784641
0,127557889645395
0,128507521713142
0,128871283537714
0,130852348684741
0,126743491071641
0,129877540870028
0,126342306923544
0,127687789153323
0,125960639647261
0,128219964571362
0,127938173142229
0,129680613643236
0,127478494222158
0,12822924303135
0,122137792815855
0,124424865865253
0,121792796589948
0,125586589267835
0,1261757888445
0,129092022418958
0,122696402303996
0,121573642370551
0,12002381959413
0,126278008707255
0,121600595754275
0,124066487751248
0,118247640973379
0,119348398255904
0,120064334337651
0,121390877177689
0,120649816771201
0,120786762981754
0,117455830064134
0,120198205165466
0,113653028692002
0,122964444328991
0,117444490787366
0,121050726513888
0,117825225249077
0,112913379340334
0,115028788663339
0,118442082256928
0,114632291324548
0,123086511468322
0,11794228405184
0,119025542362484
0,114787573103035
0,116438017055016
0,115720052463546
0,11762735176709
0,111056299696896
0,117922256980379
0,114173220779367
0,115523711289768
0,114574149370785
0,120921831510932
0,111682612919668
0,11169631874994
0,115420428918251
0,115324876493125
0,112150887507052
0,108291618688433
0,113972848786657
0,11236515299158
0,11333048537535
0,106755586212984
0,116952820343196
0,11239841580279
0,11810065002766
0,109527072183573
0,116511183293926
0,10069356434137
0,116878524049376
0,10061047470641
0,127290415622236
0,0982874136890579
0,123292467822012
0,0873876056211494
0,125848273645317
0,0992110432730345
0,129409587095259
0,087442562067504
0,12994004119483
0,0934432416941496
0,127103594963612
0,0912267518892694
0,118250495930824
0,0975741587060319
0,115275968889404
0,103819157799916
0,111467636346075
0,11243686023178
0,105707501138547
0,113174093459609
0,101643997821101
0,114185278072686
0,103242438021762
0,110949730510201
0,103511264813854
0,109778239167404
0,109420481724014
0,104660091585231
0,106696578645499
0,104089292154677
0,109056510208506
0,105816604820076
0,106749941618254
0,10950278958929
0,108497917143088
0,104844374122304
0,106224513325082
0,107811703143464
0,103925376660068
0,107122118921194
0,106160986801098
0,105440108372658
0,106047705985762
0,105742935872467
0,108024698687125
0,106221288178261
0,10330579972972
0,105992795037919
0,107394318459019
0,105954094576195
0,105399848434038
0,1078419546362
0,106401714674376
0,105255488497047
0,104863949005853
0,104814675279426
0,105497188394172
0,105981497866627
0,102797052831779
0,105650356251955
0,105771202325596
0,102550352946524
0,10510631040156
0,104959403975011
0,105366047633352
0,10557764970297
0,103089701677665
0,104235414186132
0,103758158819127
0,103307857923362
0,106885361663563
0,107034929565807
0,105248075736553
0,104989979047587
0,103805116313948
0,106491804803758
0,105222413339585
0,104080321427902
0,105446514289982
0,108206957258384
0,105007114814921
0,108289700192365
0,105613633086396
0,104995553272432
0,104668202844216
0,103314321922259
0,105386571216578
0,107592817875141
0,105839455347006
0,105952968633224
0,102028584640539
0,108231164599681
0,103028922026308
0,104429430668573
0,106198287737619
0,10555323297033
0,103953332322478
0,104583995796841
0,10672510228879
0,105632619638781
0,103978720032565
0,108128538139812
0,103240633347827
0,105235911934772
0,106857887148087
0,10793311915579
0,10329217660229
0,106955074372972
0,103028916084901
0,107253075855257
0,105859610241353
0,107144529350169
0,105411180128507
0,107196766101621
0,107441168545132
0,108012806605332
0,107459940818477
0,107148955113419
0,106959813579664
0,106633513819295
0,104899602400947
0,10782005564873
0,10772763422295
0,107937876966939
0,105101684151973
0,105550671379793
0,106509370261655
0,109757355836818
0,107501838405971
0,108190637594455
0,107170464675898
0,108589015451218
0,106823722370425
0,108288266064782
0,108358254977003
0,106969592410729
0,10881083244614
0,110027618716304
0,109501177978239
0,109151315395493
0,108381403494219
0,110877815097933
0,109095431204958
0,109845926227923
0,109035789645978
0,110808392527371
0,111708176990187
0,111095916389676
0,110587528522965
0,108801823766591
0,109921305919279
0,110346519356058
0,112131560329454
0,109645125570893
0,108927440480245
0,110487895406698
0,11019860367942
0,110172135449158
0,113540717123935
0,112246334744056
0,110045759258568
0,113403937961808
0,109934211997084
0,109523341544276
0,110822643798924
0,11133518131606
0,10955730768663
0,112320132165891
0,112745650977802
0,111385928476258
0,112073054315889
0,113030019591671
0,112993636987733
0,113375624171604
0,112973971886687
0,113331808203552
0,113304628713299
0,11469545833916
0,112241019128125
0,113858398224548
0,113669090797598
0,11680677743509
0,113314400117428
0,112867112427265
0,112999983879255
0,112837418922213
0,113260925893564
0,114540144297115
0,113694257080725
0,114086467477448
0,112467309767508
0,115434306064051
0,115503045931539
0,113145911872373
0,115174463857957
0,114775246401948
0,114677925451166
0,116388171274234
0,112534351069512
0,112240438205917
0,111800693296579
0,112987464033322
0,112594733109597
0,11336410832537
0,110335674954052
0,110373428306486
0,112540516576373
0,111128101883203
0,110582645639353
0,111644033181283
0,114030019028243
0,113011466722231
0,108656629869637
0,109169605175515
0,111322163092088
0,111445620436023
0,109217647369487
0,111718418617443
0,110669007782205
0,107863668341678
0,107092465728731
0,112382053012703
0,109284878850628
0,108410447503544
0,107779609880474
0,108808638421227
0,109718684919042
0,110711809257361
0,108366879162569
0,109524554844655
0,108781295913762
0,110037189602453
0,108479033025642
0,109794982649183
0,108826730239855
0,107478750173318
0,108055272930204
0,109072785632057
0,107384722690868
0,11075997568536
0,108592964804758
0,107320891839013
0,10634409981221
0,106386888793548
0,106118495448747
0,108205439430529
0,107116403160244
0,107182944770668
0,105568371136367
0,106569046287555
0,106431504742366
0,105499945465499
0,106008097900275
0,104194370701517
0,10581918153569
0,106159413271884
0,104462794323763
0,105507075282612
0,103723754476557
0,106758460748265
0,10664469827499
0,105576636887152
0,106467680378903
0,104394940335963
0,104815564919165
0,104085936730933
0,104781579300084
0,104566483216841
0,106477934375077
0,103818316904262
0,104645286674578
0,105971463284186
0,102972927457238
0,104946189093674
0,102262019737914
0,104418099994893
0,10679147354508
0,105862758994804
0,102358704555215
0,102845118137372
0,104684720414211
0,10559310545981
0,107641175935755
0,103244292715563
0,10370390245135
0,105057892206312
0,106869142860539
0,103900426891893
0,101610742884422
0,102828246402067
0,103452351473329
0,104303011177128
0,103584159605839
0,102181267136742
0,102942231800711
0,102226563653618
0,102818744817005
0,103840407676326
0,101161506505884
0,102207337294638
0,102313179624278
0,102241254517576
0,100170542437647
0,100022228710737
0,10002903483966
0,101720030425389
0,0995713648932703
0,101870059851144
0,101239951485466
0,101650302773401
0,0985396475861631
0,103384702267285
0,0985632352379638
0,0992303438529075
0,100540805894263
0,0999155336066599
0,0984446614565963
0,100128499512256
0,0974142006793599
0,100382391546735
0,0960810879695615
0,097438283337224
0,0979785570044592
0,0957045234193613
0,0964771243966654
0,0943129391152051
0,0962919836220282
0,0977836808571374
0,0973580548089952
0,0915459379978203
0,0945610872580749
0,0961214467824091
0,0923206352692299
0,0974213902612639
0,0937227345376787
0,0933117523226458
0,0949695162281651
0,0932337271410455
0,0929866395343776
0,09115168384525
0,0925075465767796
0,0915386922674022
0,0920945844112589
0,0900025248400291
0,0905770160446222
0,0895905288482982
0,090578302550147
0,0886571326861369
0,0910379202907882
0,0914824543460186
0,0891641563993922
0,0891561401592944
0,0903459099183614
0,089313362854949
0,088372494145272
0,0878174899226893
0,0887799939065437
0,089308405644246
0,0884557169484682
0,0869313986444784
0,0927704074634749
0,0824575076009857
0,0855828507516364
0,0831219862644653
0,087917464646076
0,0843169835226896
0,0882912117955632
0,0840102612839608
0,086372675214879
0,0856371361690974
0,0828565627594471
0,085162435823516
0,086998244224869
0,0842625560594132
0,0855976348293119
0,0835134095455065
0,0853275970337393
0,085012287913907
0,0844647842061285
0,0823702159701135
0,0873543645086871
0,0848879005390991
0,0852972474469695
0,0838073215835491
0,0845807731593248
0,0823492086899036
0,0834402322532441
0,0844824375026307
0,0816081481531936
0,0809319186290799
0,0813706736205375
0,0828784645861809
0,082280235650786
0,0830280407616267
0,0830971307884844
0,08077214372594
0,0824945816056418
0,0839246712384485
0,0821727631240337
0,0816993986419762
0,0795805458978412
0,0810845336035362
0,0784774842160111
0,0800096672203854
0,0808990930876711
0,0795143605830339
0,079309607248066
0,0781047835532049
0,0768448470877527
0,0815849970896062
0,07808892507824
0,0800845310220407
0,077713632773132
0,0860789335058174
0,0783999030713633
0,0805295061264892
0,0774988699051347
0,0760615376098539
0,0791969701562584
0,0764716179765831
0,0766124166321366
0,0791475977355905
0,0758333226949289
0,077821928493612
0,07568965565498
0,0761841645676374
0,080259763942402
0,0767886040158264
0,0776222444263386
0,0757002126363838
0,0776151641794018
0,077617901472683
0,0771761387708613
0,0768498939520304
0,0814364172028994
0,0807834976938864
0,0726458300347996
0,0806151544677018
0,0730733087894202
0,0787169351831844
0,0828482286468037
0,0695237930638968
0,0804998757457807
0,0724016938499627
0,0806993520496598
0,0719406021242868
0,0802191433739687
0,0720252094119067
0,0811367128247717
0,0721380098578305
0,0795240897303961
0,0786726663539131
0,0777224020852526
0,076281669030136
0,0781486014988888
0,0748080970439513
0,0782733764605787
0,0730753921421097
0,0754607938233678
0,0750530116357322
0,0753749306022748
0,0753046390532968
0,0751863434387015
0,0712330369803181
0,0802299309437536
0,0705130686617187
0,0756564996587993
0,0750913715139136
0,0787272112811805
0,0705029395390803
0,0801175166047226
0,0756461925466839
0,0760043975606384
0,0745642895092432
0,0731131032815967
0,0748074550399111
0,0740010357717733
0,0733527875123649
0,0737133874321188
0,0732249590345937
0,0737539170731277
0,0757850035638125
0,0728156216798442
0,0742751888265951
0,0756225835382421
0,0748757410350606
0,0724114813006514
0,0732365583420967
0,0731119233677628
0,0749833308251911
0,0754615248450703
0,0752213843447353
0,0829352707319586
0,0763361696282664
0,080620278887822
0,0707885008970672
0,0769820086992894
0,0718857410505297
0,0750516445128502
0,0709086087735825
0,0772267206973928
0,072053501999605
0,0768182712022887
0,0754055138464302
0,0753312486017861
0,0724579011105087
0,0751763104594807
0,0739445426535064
0,0748367492747354
0,0743231534286076
0,0754672207073466
0,0701778080291967
0,0742487803577589
0,075600292056857
0,0739685309545446
0,0784721297650835
0,0705873238277059
0,0761478736404925
0,0712480162345783
0,101537728826755
0,0599765426224925
0,0793008571248943
0,0753602544915864
0,0760016262529705
0,07239613367064
0,0732235596593127
0,0792423752454307
0,0780470825645338
0,075801448955123
0,0782468866281645
0,0718845649187937
0,076807589370012
0,0766045614643768
0,0743928998707006
0,0819087531257909
0,0835386033945688
0,0712912338699478
0,0794734989947057
0,0723934044061223
0,0865698511468096
0,0761288780176953
0,0741759373480158
0,0821652970931054
0,074359449148369
0,0798744965994255
0,0754322618738257
0,0790693383865042
0,0773379110817249
0,0788015215834926
0,0757199897087562
0,0815583707885459
0,0772716072600757
0,079203134861006
0,0790442407591421
0,0785473128319584
0,0814883884289034
0,0797523330685459
0,0790202185018551
0,0859149926390861
0,0762482302749406
0,0815491683914697
0,0791704268479539
0,0815681057916936
0,0794339777280811
0,0890174085087883
0,0842233255732512
0,0818139077405402
0,0869218595388162
0,0794126501530696
0,0819936604778285
0,0848271076911841
0,0816188143025939
0,0875279353399467
0,0745702809118582
0,100918521847104
0,0800447118645089
0,0885364151750039
0,0846154743917092
0,0802024056371634
0,0872011881388463
0,0826853664563893
0,0880243562503008
0,0824911170353466
0,0928551164905445
0,076870445255513
0,0946526228924398
0,0799536308070034
0,103130354444852
0,0798930898072287
0,0928477902195551
0,0860023841782928
0,0901848526428504
0,0863415846867408
0,0953916232271112
0,084163313983529
0,0975563750876444
0,106753371439095
0,0866282580742827
0,0941536722567023
0,0856709810164367
0,0970776475875106
0,108357115378378
0,084118409355509
0,0974035817135155
0,0895008739000729
0,0979667341875197
0,0911127966841004
0,104211430336063
0,101935446786924
0,095538993440591
0,0988011853690898
0,0967447003176059
0,0938126176941238
0,116561932973636
0,0942834511279985
0,105936512780072
0,0983226651350113
0,110398840024642
0,0948707340536109
0,136370124361764
0,0908946046420372
0,122908624105316
0,104159908625477
0,119316439154444
0,113958171321764
0,118493527463971
0,116144416946452
0,123005826368818
0,120476012364796
0,116190566099756
0,115529092761316
0,133295321260927
0,126173237152243
0,114908689800672
0,128292594918358
0,122924645841176
0,13225074450627
0,139826126586134
0,142013010882263
0,1314731243123
0,135519566330393
0,134512035293534
0,149958114881927
0,126221980000707
0,139802615688113
0,133039178170322
0,142162044898425
0,138357399536435
0,142369004252841
0,15073003803118
0,142327381127384
0,149044598363487
0,142883816438677
0,150016031682635
0,155371738498129
0,161953357568248
0,167337868929583
0,153373721631393
0,180536132080906
0,157454189380223
0,165194535198197
0,160361811725657
0,164550722621513
0,17218846430051
0,168338839449623
0,171459125341152
0,170214507241409
0,191880456114836
0,180654803330525
0,184457444210179
0,185448984983631
0,184697119745623
0,199981569126237
0,178727039600375
0,295239302692671
0,187073744176362
0,227726287799104
0,212202292271671
0,247100544104852
0,253865511172946
0,246341182545179
0,251533183252969
0,257526496372945
0,256786340325819
0,275054072630367
0,277770127116376
0,289930701166013
0,297008982885517
0,302675803795185
0,306733216131432
0,341092637623621
0,335680245286647
0,368494669357545
0,347188363453722
0,350707716835147
0,364326205704992
0,389029185354753
0,37285742797298
0,395829320696357
0,389376067877975
0,416026000564594
0,440240789193048
0,426462270320712
0,43606429017144
0,442001128312447
0,47013759615945
0,448440334111801
0,489527125942329
0,496769859533428
0,500817648636857
0,509767133312278
0,511193365637292
0,529156781180455
0,522365220635157
0,576807139378749
0,559478108872944
0,562299155975952
0,563741792482664
0,586132011662468
0,584951350345447
0,598326984654752
0,606319755552334
0,610836556910066
0,641194240891356
0,643628943348289
0,75338429549421
0,659701064663023
0,624278181079748
0,645172330461088
0,62701504526283
0,671910712110765
0,620990242229358
0,709981987317494
0,646226279076166
0,633570501824484
0,656292874772416
0,643685639796859
0,65147210967138
0,669432890915497
0,657538416430312
0,648542628058812
0,67090405439391
0,657403243095454
0,654564035893059
0,743025239387145
0,652671008429463
0,660560164066223
0,651477432281571
0,647121277718635
0,64539147996559
0,660378305733998
0,647583128770509
0,680959315141648
0,625788740651223
0,629809530338734
0,611229556121378
0,651218686826107
0,625657973109238
0,597479381272458
0,583054334144648
0,576897880952231
0,572949610225934
0,554149521128008
0,566500775829847
0,616698153451463
0,541024955805483
0,545716756389569
0,535342677302029
0,537032440121217
0,523239627392028
0,523320384281953
0,508517971075944
0,519908270172834
0,503155666668618
0,514515919057594
0,496492211622686
0,498446011809048
0,485096387144116
0,497948641114791
0,492959744062056
0,501413548671859
0,485375219823181
0,491979452241532
0,488061536653881
0,483698678653463
0,48719995638698
0,488903711048388
0,482209772358056
0,491368811526688
0,477457936641035
0,488424538668205
0,484827042846082
0,477066922573715
0,476443137248389
0,4839854608906
0,476315738158689
0,481365349458892
0,477748527260712
0,479145575819494
0,479423190627608
0,485122715752468
0,480670216222057
0,483103296942858
0,481872622784102
0,479046312898414
0,476580486483539
0,469066011017797
0,510854731546792
0,484965880660037
0,472089751833079
0,481248341098601
0,4636321887911
0,477691287404251
0,462251291647497
0,492310463522679
0,479977195123943
0,46961557871621
0,46502267745897
0,467432459745735
0,473100762912199
0,475865632632991
0,460372099776983
0,475621727481023
0,444057741110356
0,487936692438219
0,539947407000799
0,509421994057658
0,479646681781302
0,471190131237198
0,461865033575787
0,454414102270728
0,485417121915569
0,462819837275834
0,473388709560693
0,458751318629716
0,472664691902671
0,478965342109146
0,455246270709513
0,470755811808107
0,461169969755675
0,470420421026091
0,464046722020953
0,456805677372882
0,462182313353743
0,481365209429698
0,45601878684909
0,512388673626506
0,482731437171754
0,460002293695062
0,440279827038558
0,449775802334022
0,4425499765975
0,428718793464359
0,468592862455613
0,434857622272073
0,42990442936968
0,427723313814248
0,412392547473568
0,421724327905655
0,410314771600016
0,423654238204099
0,400676523062395
0,43946899703531
0,392593380434464
0,398461569449928
0,396819199667198
0,404608879751649
0,408661237852546
0,389271916174025
0,378971192749088
0,391298018259904
0,404041138868971
0,375729493813501
0,384158160320852
0,377222553511981
0,358429750606726
0,379159675672834
0,355122126199988
0,361267573947566
0,353759829001315
0,364605766215044
0,370434304305554
0,355254431402918
0,357111501488831
0,338237975295192
0,327383055227559
0,330644700519622
0,328030706594557
0,32611252994728
0,319969956148479
0,33206371109022
0,332474739584605
0,315006892064425
0,34510419808714
0,31937577279045
0,320389310942026
0,324071203280236
0,321445695452997
0,326804500572179
0,332680969237882
0,339190213858484
0,337983406665221
0,324250999961542
0,344330249898607
0,332785671996972
0,338190101656329
0,333800443386158
0,346592691042781
0,338814644506173
0,358922244975666
0,359958416491767
0,363867996095175
0,371764443883259
0,379954370008223
0,378516509052632
0,417848110566607
0,387025580145097
0,4165725403565
0,41836550137964
0,433176189097642
0,436132334359365
0,433427714059051
0,446657830394355
0,444487115743267
0,451391151206885
0,464114240720389
0,468499862541706
0,485012371584575
0,466231767267433
0,481007522237886
0,480890044888756
0,488902757465634
0,49033649048454
0,515363107229427
0,517821415674671
0,517582473729951
0,551447205634638
0,522630608812524
0,529455277541186
0,518001587460283
0,528242197199706
0,533273626204523
0,525158170733056
0,535159075171148
0,526977245175049
0,545286462702183
0,546617207130038
0,542989617070598
0,546106554301475
0,54711475211258
0,551691351050353
0,552228593477546
0,553319364536986
0,561502937097138
0,564262386473892
0,563054745992097
0,557407791424136
0,620118910382246
0,585319619841274
0,580880108534897
0,586094532536367
0,579420014793909
0,597100805050107
0,588492516224158
0,611492247734756
0,616878062453498
0,604875757551593
0,607129985038921
0,604018288879017
0,620668316116086
0,622149058328963
0,639435026612474
0,621940090334625
0,624775855429129
0,627322151772962
0,638924488038952
0,688386605306455
0,639098241383036
0,661573142829014
0,647045444060793
0,655736164005916
0,654303449666077
0,65739373973695
0,649643480983027
0,656387164070533
0,66121154414329
0,665187418464847
0,664695112630856
0,661579007246529
0,670386764901046
0,662177102027165
0,680075937429213
0,676332938405933
0,662403874715973
0,664406186785956
0,66717062680994
0,663306688400249
0,686216177925935
0,681114563891218
0,654752830481653
0,665890016095676
0,661454312173984
0,68227497503419
0,674892443969353
0,662983515579456
0,659481243059442
0,66854779432658
0,673025510961136
0,676440673459483
0,663851078558962
0,691540651051355
0,676539045201857
0,675154196611755
0,679017669093306
0,683716667212379
0,680839680493524
0,685904032423873
0,693645094881515
0,697484461934068
0,685028332387979
0,705513738642059
0,701710466093862
0,689926558527036
0,704573378704673
0,702431289711332
0,70308558796547
0,700144105203276
0,689828133892373
0,697009724056211
0,696814135413557
0,702979996138934
0,687764187852524
0,685895178116988
0,676376114262936
0,677681875758675
0,667804506821236
0,680595062131213
0,666026761923599
0,664408153197678
0,665788214050168
0,643994669631742
0,653294526587526
0,646468020496877
0,642885564287075
0,631217395526982
0,632823298440684
0,627421937976028
0,625683897471896
0,622680370498548
0,62627328293254
0,625367533870928
0,627254454369265
0,622750969921396
0,619792654417906
0,617081849218111
0,611480236865263
0,618922122798808
0,613214127304179
0,611877783675807
0,619144356101551
0,623001570767737
0,624159457922063
0,609496137763273
0,616901167161408
0,613727222816501
0,614147368185228
0,609021522584724
0,615960388782972
0,614738773000812
0,622144517476473
0,609140919889658
0,606610988577978
0,612753496583418
0,608423883382686
0,61228722105615
0,613411578989269
0,607033671473721
0,612536263871548
0,610365753208024
0,612170878999646
0,612036594283799
0,606655945786623
0,606899271031957
0,610662737572298
0,613841110947489
0,610116818983113
0,608995978402998
0,6030863645304
0,612647836225652
0,614835804668015
0,613716930268693
0,61757966455697
0,611869445452917
0,609712219717909
0,609747694671889
0,611432811674242
0,616045880142686
0,610321059795729
0,603308596732896
0,601386039846686
0,605885513512004
0,602475365463773
0,600154416524102
0,595157850187548
0,592461230692492
0,58719625918088
0,580505401621612
0,576032392698824
0,575719237463601
0,568922385603144
0,570083919468792
0,564492394494817
0,554357527215276
0,551991633862217
0,548716627659518
0,551227259727272
0,550599405929176
0,540101580547076
0,54237124664402
0,539277924343802
0,537419428695228
0,540547570455375
0,534902874507819
0,533847840213554
0,531868046622874
0,535118829236391
0,531599200507526
0,530680406587052
0,52806226102531
0,533914630243615
0,534726576766017
0,539089478480273
0,542080583033963
0,541272601174783
0,539537637868882
0,543065676424654
0,546628741107126
0,545613422103973
0,544506920872059
0,550733104327317
0,553662907912681
0,553317780109663
0,557899158890924
0,559675005483958
0,565249463022488
0,562076742855969
0,558860367707157
0,564485225949251
0,564655833824632
0,563709164428595
0,565273344621345
0,566422840729595
0,568883706553346
0,563422302271179
0,564179391954279
0,562800199692685
0,565054758563096
0,565887090878099
0,562053076814352
0,56451116100812
0,559777239341318
0,556031646991039
0,555998547036489
0,556365686179526
0,556517564301699
0,555645111412167
0,548158865654371
0,54822895530505
0,545410038887076
0,543924070463203
0,543292568826729
0,545634934908837
0,54240581107172
0,539602597547386
0,535602524103172
0,535526783511536
0,53658036894817
0,532569146237031
0,533802896697861
0,530608734436192
0,523857669865092
0,526816532453275
0,524758485790562
0,521323563752743
0,525174161344728
0,522897287420647
0,520981482251411
0,521533290142255
0,51453811471587
0,511425117525511
0,507605988576162
0,506013536658055
0,504517542742563
0,501648217795091
0,499814790831034
0,494356954732042
0,491412407740366
0,48904399489757
0,48184828147195
0,477365448553394
0,473232100927407
0,474233956731142
0,469337634562668
0,46336762286231
0,466413151482375
0,461825115822943
0,454977167117077
0,460527932653194
0,456441107956524
0,456105653429896
0,454161801540404
0,453196130076782
0,447863124730558
0,449801776048016
0,44388994889223
0,438580737051896
0,438643671521479
0,43364783433549
0,430245262649213
0,422642647551982
0,41812775285015
0,415543149236042
0,41131918563335
0,403763340479107
0,401831111494643
0,400013895673894
0,398247692678485
0,397113734723621
0,401157805494342
0,403191781100357
0,410060073716482
0,416505676546795
0,422233545349775
0,431959086974546
0,446031627991308
0,458773802700907
0,470363001703352
0,48930034023273
0,501958844816246
0,519797264101783
0,540891610591275
0,55361348049823
0,572225256746229
0,590818672982068
0,601699058751382
0,624309304723946
0,639107743631389
0,658557536564107
0,676873512718294
0,691599206221521
0,707621718602058
0,721063148985588
0,732329616806699
0,749280691558548
0,763730821776765
0,772972757184032
0,778790556557596
0,786472833615937
0,803022259805965
0,816818582070638
0,819533364459788
0,832151529973883
0,838081924090663
0,847548503784274
0,843766629522511
0,844865505964523
0,849799413411041
0,845783924130668
0,851477334504016
0,858568475976337
0,860746116704549
0,858428610130803
0,860275132351152
0,865102451811621
0,860658873622976
0,862067429708209
0,864142564853489
0,860989982785274
0,867518950602776
0,871038625129485
0,888867042390915
0,888833703700885
0,88799127736456
0,895003993818121
0,917235011451295
0,915518408761654
0,925378934453417
0,927584187173669
0,930857924992296
0,949227006705261
0,966433404787656
0,970348941023946
0,993149551631072
0,985006853119196
1,01900367016877
1,02649243191323
1,02933036071642
1,04213694145364
1,05501439516797
1,04793666866252
1,06444579327418
1,07768974769509
1,09554324064797
1,08771089143798
1,09863631460522
1,07579067554693
1,07232294602441
1,06568929164494
1,06980308127962
1,07468517606484
1,05057028157503
1,05966489812797
1,0579459360388
1,07235023125712
1,06457759828026
1,08183882274246
1,09750578752736
1,0979005980272
1,11267873146388
1,12914418356116
1,14526438115192
1,14952582062665
1,18574369295744
1,19776535501919
1,21837055837644
1,21092557906294
1,26219550101839
1,23588817784221
1,26821846033093
1,2775923235297
1,32737202259657
1,34808599556922
1,35977575049515
1,33659789617104
1,37462981496926
1,42381733177702
1,45219477460419
1,46552157706931
1,48803747801555
1,47735635791775
1,49497478731222
1,51769930351652
1,55917564851105
1,58103335340295
1,58429446992634
1,56583438375101
1,69385852795766
1,64731627723606
1,67880340939426
1,72301322948672
1,67726390101316
1,69793807135673
1,72777415125497
1,70656291233082
1,80526158299961
1,72374163177467
1,82421724080898
1,6525144616394
1,75401885368808
1,79666522876335
1,75270659885511
1,68809671791758
1,82614173145358
1,754210560701
1,78791432570347
1,70934619985355
1,68539438046876
1,7269055598228
1,77771849419893
1,7430331610727
1,80852013066991
1,75663546252732
1,89091180657529
1,78881940746576
1,88199161842404
1,81084473901502
1,84785525189249
1,84596234637364
1,90731907109105
1,8747794064494
1,94412521877128
2,08989372542355
2,00746652952435
2,11167786259928
2,0229512108744
2,02070890118386
1,98091001067837
1,97278435270261
2,06938277099668
1,93463985893159
1,97667987075841
1,97799160059717
1,97425761930967
1,95428406672788
1,96924636386504
1,9847304020761
2,23148255308426
1,97589350849385
2,06301034020108
2,01704594035933
2,11952269932582
2,0779083906134
1,99809130281777
2,01731002111461
2,16842322603066
2,02360456418894
2,34713930357266
2,08063444578169
2,08740891085754
1,98975421152272
2,08205779883893
1,81356255071606
2,0210776776662
1,90771237786272
1,86867345117113
1,79499318595931
1,8150955318742
1,77630525823473
1,83277437647013
1,68908683156902
1,72566722445656
1,61302839723461
1,62581855098414
1,59352722794744
1,62578591121096
1,56551225429731
1,57333467378867
1,54033765842149
1,58160788923611
1,49675724304061
1,52310966585334
1,45752452049982
1,46969803372222
1,47974804203862
1,52792823556291
1,44293146519351
1,46377530247469
1,42109400471297
1,41990625190405
1,36797792123286
1,40080821002312
1,35615772016647
1,36024645309326
1,35480345665727
1,31543537807644
1,30615172557595
1,25399605464493
1,26059538056457
1,22220537781047
1,15515033985528
1,15473865353202
1,1123510883263
1,09464478296117
1,02684373217444
1,00681302782576
0,973619980109022
0,940934081732513
0,895003919878637
0,886390593123264
0,831691566657853
0,811058729507709
0,780094365082071
0,76302842550849
0,734332699087712
0,713232256891887
0,69673325614598
0,680076729254253
0,659026159819484
0,656747824393077
0,64211540352518
0,634566763260202
0,623688965215912
0,616804060601386
0,613319136714467
0,615138708335308
0,598071640651284
0,611694499675058
0,59698264071714
0,603151142905611
0,607208533880396
0,600595386024833
0,607984791661678
0,61391410661742
0,609855116110162
0,607663673139767
0,600191838605473
0,594313239863827
0,592322557293178
0,594952934940279
0,585701521159598
0,575173865503943
0,568215701564583
0,571900935178416
0,564689508658151
0,559017870450037
0,562654746248468
0,552768773469828
0,545004136349644
0,550414074263572
0,541458608316071
0,544799675446533
0,551006202063219
0,560715587808201
0,555311867340585
0,568623764719302
0,552637463316518
0,568409865261288
0,566951112682913
0,562145926146916
0,559032276016073
0,570331524910861
0,581453387762448
0,582472550735972
0,582991178442845
0,582010782680154
0,589818233764616
0,591784192553185
0,590915448910397
0,58712843600403
0,575899029392577
0,59353892274265
0,589255652342164
0,585774911952538
0,587221450170926
0,603018217180753
0,601104109289059
0,606981346892202
0,604555510381314
0,614462396037378
0,616043562969049
0,624729415952139
0,632044584073908
0,651207415152905
0,65898088238871
0,690360121847709
0,702709445845733
0,710452877460284
0,717686082399025
0,760903413541972
0,743363879901635
0,755047394955468
0,747372634767513
0,763039065103958
0,75477262581365
0,752916309074601
0,736527024990027
0,741930008454093
0,727637616042692
0,715967352233455
0,697359549650994
0,706124877949392
0,686320136023156
0,688686391646577
0,695562992096829
0,693567974256159
0,689844742641258
0,700476305810572
0,697200137088009
0,718377802280627
0,713901784049131
0,705022865674401
0,693361117634669
0,685498368403739
0,674707182089547
0,676183432537907
0,668846654010902
0,675611968129255
0,66027661150719
0,644199001365984
0,645674420184646
0,650461041221501
0,630890895760663
0,640104859444364
0,629732946188689
0,639127523936245
0,62411098454913
0,641469959054078
0,630459065318581
0,614333728320817
0,617313961835238
0,640108760411184
0,620087138574625
0,635590918376035
0,602635157582458
0,604201371785124
0,611938217413891
0,594457210036305
0,599132530160925
0,603415493657339
0,590265985129774
0,592230527020813
0,598583976271091
0,587104073638023
0,581477154344054
0,570767630395122
0,574218438230541
0,575596427755741
0,557790680479455
0,569891620014428
0,556943675644332
0,563604292385486
0,553079933909491
0,563427555620555
0,565442522917402
0,56453534279774
0,55741356084077
0,549613181935684
0,543466971346376
0,552905591117935
0,555388815772818
0,567940270648583
0,547394370502355
0,551569420471537
0,550839058792416
0,553553110775644
0,549637317956598
0,571133111428921
0,546405490029495
0,580972571784678
0,57394993525034
0,567169725782915
0,562401049074449
0,585803583737191
0,552467995954031
0,57933489166916
0,557584185001755
0,579896997649925
0,581304414067039
0,566868420877191
0,579428750338526
0,587663704776773
0,585498398388874
0,590035993817669
0,581202826256818
0,623548242263323
0,623524278263354
0,643894022957479
0,643596467650727
0,639478913107876
0,641236347838721
0,669049401070023
0,622560890943215
0,697817880940261
0,67854102878817
0,686324883624624
0,70402349055279
0,748812256542251
0,728593011099045
0,783703196222312
0,746255140946084
0,838178137670698
0,750566618605436
0,861824708211201
0,831997766163767
0,900048769427454
0,894661038683849
0,913180836374831
0,879251240039394
0,891778972727443
0,858908665173445
0,938855752251044
0,835357498817938
0,967903157272556
0,857439450816165
0,908636543963252
0,868687822220004
0,917702748720259
0,928105391776028
0,945595738365792
0,830879604486152
0,97254699607017
0,851628481931405
0,956714667412033
0,854204826625385
0,886305001868058
0,907056715817308
0,953743753602569
0,831375190280955
1,00691142165398
0,847775669594763
0,895480846841123
0,836874636514431
0,93735743683936
0,80375221491191
0,865303732795303
0,825822870484307
0,786721262610486
0,831057998471896
0,905552473619226
0,865435085436159
0,89941828807238
0,794334900922773
0,837544080775401
0,82612711451277
0,85378389447364
0,83732991730202
0,911103527633766
0,76744602022363
0,873197816308843
0,793042059486777
0,895171774035417
0,859144302558205
0,839849101579846
0,858838525490333
0,86194115972998
0,730475839488889
0,833294617188353
0,81475732828687
0,841185974667693
0,837343036271698
0,922365977199756
0,895389157265353
0,886572730283209
0,856904109863427
0,884155728716726
0,785013724034565
0,79750393179372
0,836160268258967
0,899648814969139
0,837829124428269
0,931286156886588
0,893154803592809
1,04113095631657
0,731880537103305
0,919677391904278
0,825609130953652
1,01500802559639
0,867803481536975
1,03145419993748
0,888716886215263
0,965355818651943
0,874482915200607
0,879555118426897
0,859502226699234
1,01718431349167
0,91686735918615
1,05847691135072
1,12027051360004
1,05825895029269
1,03011959263549
1,3546939548021
1,18992913378097
1,16734195701317
0,948521981217621
1,04122328708701
0,96605746524905
1,18845323350844
1,06124379725426
1,86670787379099
0,928483855089846
0,899097855198931
1,11978715840019
1,16809591577823
0,980236549966584
1,38666396454251
1,28927373668527
1,04507691745186
0,996326804246931
1,228587473181
1,00595742314013
1,28655520185474
0,858973749994299
0,867360672469634
1,31696293574853
1,38744761544178
0,966580006652755
0,985390541752917
0,964339378994616
2,09611776407289
0,820980186400516
1,63009207693109
1,20220725222103
1,08687445097381
0,940521651093803
2,2757466440935
1,00592293933377
1,52688349449144
1,09946709142354
1,00999167462341
1,05944180261025
5
0,793293123686
0,647029424736942
0,707013270762938
5
1,59491031771954
5
0,974197089444692
1,04230678591437
1,0942321889406
5
0,782448351154195
5
5
1,02458256518159
2,02620627623265
5
5
1,1903365125228
0,943961245289986
0,603275009874336
2,45345022003075
