3596
4000,36533379555
650,420452594757
1
2
2
0,0288208182827152
0,0131327353333657
0,0184967949950837
0,0041727702681403
0,013555740364536
0,0117215828328151
0,0147869609308779
0,00606814752502133
0,0194989116067922
0,0140989177332131
0,0159324817387698
0,00689228166184253
0,0143477087697891
0,0051708369127618
0,0148302191340739
0,0143383268888177
0,0154996958768003
0,00364835142616949
0,0152101420001416
0,0136939898183942
0,00922507310459944
0,00827202185708716
0,0210345050840183
0,00912073278662389
0,0174527548333927
0,00839024965962204
0,0150840649482405
0,0113013738248494
0,0146411579826031
0,00710220224557278
0,0101506217926463
0,0109745984356803
0,0179639783825919
0,0102537447249663
0,0203848824280771
0,00961712688166484
0,0133071453004746
-0,000251945052399139
0,0163234693137208
0,019492402079775
0,0131659038540517
0,00912024856857905
0,0211591189718267
0,000104583516476681
0,0142584404530392
0,00613212452940203
0,00454585427686098
0,0115725280487836
0,0152277287083356
0,00090143218111201
0,018880870812814
0,00774847397701517
0,0206957722734803
0,00946722981059744
0,0139218275443562
0,0157170158946485
0,0224879824625859
0,00541245514131635
0,0127689724873926
0,0115414153940229
0,0133931950687179
-0,000304494265019649
0,0127133404271186
0,0151007852057194
0,00779514249208475
0,00746075496153834
0,00688093310504351
0,0118236200796553
0,00528767348297049
0,018124201925468
0,0169891891676601
0,0114323344065535
0,0150598422667683
0,0111951193367089
0,0142600307104902
0,00880799855824311
0,0141005709241064
0,00918306740131018
0,0133801908665578
0,0111843141920081
0,00969746295577487
0,00751872651880568
0,00979037208299436
0,012328072006679
0,0151968988431914
0,0118518802750688
0,00984501743600063
0,007806583038534
0,0135844521481359
0,0106270559613726
0,0171018124506775
0,0173265533888553
0,00992957500862336
0,0104268916913823
0,016819089180058
0,0103388597709276
0,0153418905770476
0,00711739404791971
0,0058783838618909
0,0150166875357887
0,0151379484509057
-0,00168090248855609
0,0298381361113427
-0,00740647043354736
0,0409509168550782
-0,00171869756342897
0,0235936396098091
0,00956863248148171
0,00637798228635587
0,00927486436316083
0,00350761823583399
0,00613792273519865
0,00828957340911007
0,0181618829731305
0,0129612990869824
0,00793986221485445
0,00365839060470167
0,00555505446800925
0,00356702966745185
0,00668069932804891
0,00941019254561638
0,0112033697154683
0,000472050612799826
0,00472395679503969
0,0212199381483975
0,0121830259090317
0,0251268602960195
0,0127754390414409
0,01072805224034
0,00142993365636791
0,00810359988826828
0,00165804071236792
0,0227603843002521
0,00528036532276057
0,0216434462111726
-0,000283585631377793
0,0142239470716114
0,00712018665600739
0,0226105329799211
0,00193907916890504
0,00695689041386675
0,0110734532795982
0,0106878064693456
0,0030120683578039
0,00397806804885598
-0,00245867976271553
0,0106416157860607
0,0122905739634827
0,0156677208399859
-0,000817282254850813
0,0177862796458754
0,00579795503399715
0,00919522794323922
-8,92631499105949E-07
0,0206033095661346
0,0310227758803889
0,0322884662173504
-0,0270498627451325
0,0215419440603143
-0,00859847497580014
0,0224063737946786
0,00655026090638958
0,0192859285901408
-0,00107759406787345
0,0087581155435257
0,00230012773274675
0,0153185811476784
0,0201145899483056
0,00920245790804261
0,013285647025666
0,0118255645063241
0,0133214260995582
0,0204902268088979
0,00769826802097101
0,0111778592332005
0,00856182421693445
0,0216470629667721
0,000452082539742025
0,0154762467864859
0,00306459320582645
0,00591380859457256
-0,00610253980694868
0,0168494456652263
0,00850424592320951
0,016558341160024
0,00451504051705658
0,017293979397198
0,0105210417893717
0,0195485215363414
0,00197210156965818
0,0282639936908815
0,00862708747125675
0,0111011748264181
-0,00721847801277811
0,0177120183742015
0,00562365799042054
0,0356716223930514
-0,00906817060429185
0,0130760836334261
0,00671430152744592
0,0117003010989546
0,00865792131054432
0,0157323632042509
0,0055456039649699
0,015928911767445
0,00521462273555818
0,0305118820668487
-0,0122711756671287
0,0138632503945162
0,00694885280731203
0,0263865545096058
0,00668624972943957
0,00940525612728538
0,00405633406046008
0,00797715762013525
0,0131402027418916
0,00964433849376091
0,00718459065958771
0,010763683145233
0,00306083223791865
0,011909417356261
0,00269173901608059
0,0150786556443614
0,00676036587929771
0,0137719281503058
0,00934114320514842
0,0141132699522562
0,0125325269539343
0,0166658696340898
0,000487608323294392
0,00962430000709526
0,0106386146170624
0,0157586469126469
0,0061180975519899
0,018218216952912
0,0183731536667782
0,0174341501530399
-7,66186123755927E-05
0,0164546902608228
-0,000375037510536551
0,0161643398120117
0,00389235679717416
0,0144904211811088
0,00268798333271417
0,018445675187463
-0,00242060390733079
0,0293376466084349
0,00252494679916054
0,0230265893045616
0,00640497264602051
0,00824289408968266
0,00390496937949653
0,0100880744325797
0,0078843010679298
0,0133189751164289
0,0114210323201145
0,0187357582714982
0,0111700993887106
0,0123456954921638
0,0139083595356131
0,0208088381829135
0,00671870814908989
0,0146729504000745
0,0193365776887605
0,0197996399883802
0,0187900915517908
0,0165488036311841
-0,00162207235378571
0,0228977111830719
-0,00161352082045868
0,00824704387846073
0,0187586246285011
0,0151327647948772
-0,0285074365375812
0,00175963851415423
0,0132565183825907
0,0121235688931558
0,01071679452431
0,00867556700904215
0,00670302807009854
0,0292388648747618
0,00244471248892204
0,0379034806168068
0,00284330876810905
0,0283612632447088
0,00231224646792251
0,0278578304439779
0,00899196182211824
0,0108057557484425
0,0136542373793135
0,0142172082624203
0,0103772839269925
0,0117986921712705
0,0126163265881592
0,0174167489154591
0,0220984045525869
0,0177185223744026
0,015575997312316
0,00652340562369378
0,0179648095921094
0,0176679274974794
0,0171000484004191
0,00489962189476412
0,0140125672069117
0,0129969824386697
0,00260174826891124
0,0199864287975786
0,0221758253938479
0,0190700529487043
0,00915243863345315
0,012469724689763
0,0171372868479031
0,0115919950840713
0,00496651605736126
0,0105912220630481
0,0110669268174511
0,0104300919028482
0,0163743631253138
0,0165587565937634
0,0200578924712287
0,0176378398369969
0,00761353413615742
0,0177633996032785
0,01167215203971
0,0252592121162998
0,0177965612713365
0,0194414143985209
0,00891761578118622
0,0159086521439178
0,0224068491118196
0,0219799677634041
0,0245688292158515
0,0200187754521805
0,0122423783277545
0,0196698059547523
0,00740607729709805
0,0283192051471488
0,0110574039484397
0,0187963299090441
0,0128813376714914
0,020827065527452
0,0122665145273097
0,0185299726850858
0,0181123318060798
0,0223750569725156
0,0133038463158685
0,0382047779035771
0,00214371012720696
0,0321129572853737
0,00433806780507865
0,0240923561432227
0,0305425166844512
0,0232579116733406
0,0401814755025203
0,0135081372087467
0,0204520245061505
0,0194511315190667
0,0239823455303613
0,0301644079915569
0,0280893548664423
0,0306809960160098
0,0268293163510307
0,0269687558269094
0,0220782726697286
0,0306198984445316
0,0222924429517418
0,0408434184889479
0,0252096999619523
0,026366634149305
0,0288098804072288
0,0326230129385366
0,0350591475581892
0,0338143146671999
0,0173720944536756
0,0598057579104834
0,00872534650603198
0,0477332968603811
0,00744620540114941
0,0491949654772494
0,0246832067451817
0,0390458377200216
0,0363564859613336
0,043966239040736
0,0409836410086945
0,0445206950305698
0,043801472264235
0,0537469591611008
0,0344114089068611
0,044935640876528
0,0351181612185932
0,0561643235577486
0,0515720705879049
0,0531529705345287
0,0475431799126557
0,0557800062943286
0,0540297410445235
0,0673712603343934
0,0751155448915348
0,0490046991759149
0,052729972782241
0,0464094769186636
0,0566740871970012
0,0589227074337271
0,0635279931085334
0,0605902151733276
0,071839475349442
0,0799543806170414
0,0658472282998643
0,0823946637349622
0,0661884495265685
0,074695011235962
0,0606227532573765
0,0850480994331842
0,0769778255810573
0,0712922931680423
0,0792303392891159
0,066276307234766
0,0856362057421043
0,0714274428562342
0,0874694493082878
0,0796783156417135
0,073405417816955
0,0798723103582876
0,0832992203553509
0,0902544751565292
0,0885754178836474
0,10386973047597
0,0910324886899341
0,0972731778504771
0,0964035011525559
0,0957831914714202
0,101047132382894
0,110305393782411
0,0998223963582075
0,115531066137651
0,0979863352893569
0,106376895386699
0,109309111887764
0,110268828127052
0,129523476775179
0,104275497904299
0,126382699978648
0,106535200710857
0,101591962513243
0,122451101759193
0,137878124431716
0,126085007758159
0,119345942513906
0,126961643452012
0,117631649539044
0,134861735538015
0,139695729382482
0,147980074904335
0,140422522017368
0,142450664090337
0,133292888667192
0,146660487109202
0,143595657422155
0,161117781810751
0,163369276662172
0,155511454280558
0,176538298339691
0,174272934730712
0,18411455399186
0,190677195457639
0,173382032885244
0,166935832468043
0,152492650086402
0,173734908679365
0,176936082614114
0,172935180863948
0,164008399317244
0,185466126705378
0,179743481300261
0,178411503502724
0,170821949993295
0,202722413675169
0,184318902336441
0,200848335151931
0,218286582434114
0,201009290115256
0,199144472299395
0,211409687901948
0,220972875623079
0,21697352652379
0,208899765919892
0,231703037075934
0,223700590901543
0,229007080189092
0,226843009293941
0,235567801768987
0,229894977293976
0,243344076232219
0,231033516708765
0,231380477756504
0,253000982881607
0,251969802968696
0,257007716085739
0,245706722132173
0,250717970391985
0,268541209380393
0,255859342045832
0,256582166450814
0,282406867359644
0,285042615933138
0,281675330788513
0,289568552365772
0,274188267116432
0,278616414107781
0,30144908368542
0,291809485540232
0,296794218571354
0,30953164723887
0,294605197556617
0,29361282695546
0,303318852807037
0,312389055171991
0,303194027233222
0,308602785314494
0,313278028695861
0,314474388117551
0,308613715948098
0,330246818164851
0,329166431838859
0,330972121938422
0,342000750258786
0,345961540389754
0,336539069299338
0,332966893567124
0,343733702108642
0,358520253893708
0,362073358637103
0,341425700329684
0,374925897331086
0,377060624748854
0,368086979488073
0,364442399231786
0,365962462608365
0,380960308485414
0,375998083882392
0,385303339134042
0,387474633839199
0,381147287531139
0,405834481689472
0,395021034073657
0,401971029807111
0,407972401060024
0,418606353764306
0,392352494113717
0,419571323719032
0,417792382053336
0,414149730513129
0,413229061242127
0,431360193211272
0,429379054046195
0,431426105045641
0,42914232889162
0,443429846318383
0,443243163174668
0,487196793265761
0,465189806086362
0,45655415212272
0,462153888128744
0,46631715153915
0,441335270393567
0,454811413238594
0,451389138090335
0,453438466746752
0,465097753901201
0,474205286230973
0,477965861388566
0,477076157641886
0,486817608437125
0,498340665425793
0,491124868905279
0,509674199750199
0,471106841392843
0,505059561619662
0,48137944879123
0,523146758973542
0,507568750312203
0,503534734988727
0,525479457811549
0,542858056502892
0,509605902783728
0,52619684289852
0,518625112922141
0,544753300698535
0,526805627030722
0,546342097349059
0,521702653929255
0,550615293277523
0,548097460047167
0,535940594891682
0,56706941373414
0,569245784480459
0,556992074061485
0,580723478057924
0,529843077052874
0,575790518935791
0,539934286499713
0,557471354208642
0,559307421539148
0,581053703239267
0,553743987177067
0,572024599298075
0,575533217985184
0,599032906191852
0,580056109573681
0,601504852062656
0,578370350776844
0,611067418577002
0,600020963396788
0,604110723431743
0,608475926484712
0,619300072402969
0,598266606478445
0,62699000376957
0,608703561568814
0,633135960922917
0,620839818218152
0,65072562509386
0,637425762841136
0,635950271130073
0,615636952422319
0,628177960369516
0,613635496326337
0,62763286563904
0,612395517776524
0,626034664868769
0,626883937798634
0,642802982767164
0,632066979331845
0,649145555193587
0,622922573069419
0,663360950647497
0,652450424636794
0,662824928512222
0,671465812977597
0,662695477132633
0,642527774419286
0,673262918664081
0,652680605152894
0,696766881965951
0,684361142384329
0,669151225559218
0,653157182674363
0,698107929174927
0,681811952490502
0,688708820261678
0,684898151670496
0,671338389369411
0,669947530321658
0,689254454331517
0,675524631514777
0,713979709163067
0,679150137978249
0,706216405215793
0,712137342403478
0,712249799623004
0,683190667673466
0,718729775421722
0,709891098412978
0,720873759402855
0,693996978941575
0,712701327810377
0,708710976631452
0,766749773948761
0,72400291745633
0,70556307323222
0,73255069609637
0,753481002212659
0,710477571887659
0,72202325201098
0,694990392498109
0,713232789396005
0,714341891101194
0,738505074488926
0,695715832538207
0,745114566272007
0,688347224858896
0,742891236056819
0,721506342368134
0,747616362774775
0,726008274447463
0,749168793841143
0,722218034672664
0,749854640445792
0,72895027315576
0,737938797262619
0,737546883428125
0,768139103729454
0,70855362361708
0,77494710861517
0,719422644285969
0,739762151945138
0,722728629231903
0,777262302916141
0,733147322194475
0,769553297918182
0,742711279101734
0,763852885583156
0,753245891262523
0,756789284362514
0,734783645405336
0,775801017878642
0,73505136953622
0,75120161643709
0,729199057294727
0,746955010942709
0,73421868179079
0,770636520285633
0,71648101531579
0,777143255449613
0,724812399284266
0,792907189915448
0,757437516352417
0,758073079172957
0,725742346142907
0,740782074827107
0,762213457688579
0,7820411546844
0,749269496745775
0,780704557319874
0,774599255116107
0,770141991861864
0,757571311185443
0,793824140531848
0,725040651506836
0,761771768816743
0,765136081463167
0,780071337408699
0,745965988610503
0,803174034944519
0,7347876349934
0,777863557439416
0,755473991593869
0,784959891994789
0,736042860516229
0,748831528503971
0,724862062863754
0,740811075965698
0,732486369554119
0,732338744959462
0,736535066186476
0,759568838837675
0,760494510872887
0,748430021854338
0,735581285143773
0,761858594718449
0,740310073749722
0,758807729608367
0,75274876809373
0,754974242528815
0,720242596677421
0,764950000544187
0,723314379044268
0,758566438252826
0,713380975127591
0,756166323041464
0,714758116893494
0,755212416851638
0,751278080295218
0,766809207931489
0,75711203511094
0,750124581055051
0,733027806456725
0,736587726435925
0,74626280747089
0,77078147016499
0,748956922195969
0,745068638666771
0,702484054034918
0,771080444326378
0,720342850272585
0,74047059235639
0,70535479207092
0,712792068587088
0,742312851885928
0,729863501780672
0,701891700225892
0,736690159545701
0,705286294397324
0,725537604573973
0,713402636829205
0,769607828853898
0,711327728064665
0,755449543529182
0,689790891652217
0,716497466338167
0,706461799340554
0,706534233594312
0,711039287733506
0,719294725638644
0,718926794720625
0,725143221930402
0,702641107593217
0,727964715456752
0,690218893526395
0,724483392298764
0,681496632600301
0,708851548972904
0,678359044090234
0,709950136494262
0,685574887948406
0,692292620295969
0,675387238560391
0,690460533078839
0,664490930974444
0,676449861847671
0,673822855879745
0,71490620303744
0,668829952141519
0,673734327857837
0,675732361043162
0,689569110087779
0,646437141044472
0,655631195922351
0,636177677315364
0,681358561978373
0,621011512735236
0,672123557392108
0,655558236160443
0,663613641118364
0,639222374605054
0,656278598500403
0,638248157208315
0,657978058739482
0,637504798568303
0,669059423824968
0,614162947932657
0,647770534049668
0,659045590669837
0,651981710620014
0,629852215230958
0,632000570803085
0,624382013048943
0,652040667287241
0,61680938534547
0,635313315077381
0,617791719757255
0,636070175418018
0,599819114504565
0,616287292441321
0,605709731097745
0,617237670224452
0,591442355814812
0,594350517831212
0,600823423208916
0,606061164438655
0,590484619222027
0,606376767783607
0,597986380463915
0,603315125877901
0,579594153738179
0,607965729447983
0,560800290036901
0,579857882229215
0,563905796470891
0,594602646289496
0,579127464414249
0,590782489036818
0,563564645375242
0,571073146798922
0,555759236606203
0,574650894409397
0,546556012382062
0,566344958456481
0,55275780434225
0,570710318716048
0,540016325197938
0,541566571625444
0,554049914765485
0,549232030558093
0,545938757031561
0,545727613911918
0,527517307727509
0,531252392701997
0,541046684658598
0,531424048230085
0,528043927074216
0,529814662453185
0,524221646929941
0,533780940291619
0,515127394811337
0,530331201113186
0,505185587097475
0,512958549269421
0,501338444798977
0,526052117709783
0,49389499282148
0,500772585800652
0,486034234601759
0,512277990263487
0,494617071728109
0,500980262483024
0,48968054859574
0,484159591397693
0,477552324645648
0,4769965684862
0,479757620031679
0,482370455784843
0,46964411510231
0,467198495819714
0,451790557242303
0,470826924922968
0,450403696021813
0,475230681618832
0,462956379700482
0,464717664083606
0,440649113440204
0,456603861602502
0,445041497009946
0,450533072894588
0,446641735641938
0,440333220573889
0,431769470758354
0,440225566628597
0,427162408210392
0,44191769840111
0,431865741826966
0,428874301604292
0,425559095123954
0,419811036001647
0,411972778091654
0,421342116912368
0,409694803946076
0,410086069350308
0,411584237647451
0,415507215587624
0,402190863341004
0,407339890447953
0,395814725870571
0,40330205161972
0,385750284165651
0,411005151125294
0,391851179016257
0,390307023828708
0,38198384506711
0,393750091761214
0,378563971683897
0,391688972944174
0,376940342522431
0,380712642096677
0,374874818444025
0,380398186691635
0,367722161565092
0,365565246028941
0,368151981716712
0,364230945756921
0,364017510093874
0,367140596728052
0,350202669168572
0,35861225871219
0,348223336973309
0,356995554297735
0,340836170313427
0,350505530458538
0,341802240680405
0,352671253851759
0,339396103780738
0,34055101609241
0,334183388856016
0,339999385112822
0,335833468312668
0,335535493149293
0,335633191132071
0,332861680040249
0,325322780641903
0,32891310101437
0,32540022515693
0,325184055767914
0,319751326442619
0,322653728223203
0,311036634328007
0,322192526740712
0,314229326061827
0,317772540010376
0,302908520297415
0,315266312534961
0,295941421338227
0,304578080977765
0,29806005569389
0,304130903342139
0,299599960601024
0,302706317568107
0,299923488288899
0,299012493716022
0,296136427989478
0,288846979749839
0,28754855145795
0,291469490287953
0,282150949718464
0,287309336774923
0,285064169239898
0,287479465238364
0,277513742599774
0,287411127677009
0,274084911206419
0,281788792618352
0,270271018756507
0,270837868731472
0,274447077371121
0,27806671436786
0,268700171517003
0,269678325410889
0,26173910207741
0,268078546470625
0,264494965378991
0,262864174157696
0,259989467617409
0,264403247805325
0,248915653938315
0,249723341623595
0,248585040604783
0,257638454751008
0,249958809679197
0,254076290317667
0,25205322735864
0,256602739233003
0,242136891565739
0,244871943171347
0,241357112967614
0,237887777130632
0,227998749651275
0,246531376183177
0,234161003223673
0,238646550718444
0,23038523483941
0,231111162913533
0,22780343183541
0,236874621798749
0,227207608958865
0,22852506164198
0,219467507066063
0,224247283773789
0,221356152610308
0,225671911528368
0,21739101538765
0,219905843181383
0,216934626183866
0,223663159422771
0,217988713469816
0,227051255462915
0,207698439348856
0,209822125854155
0,209058566335859
0,216735945609625
0,205616115084459
0,208678740311969
0,203955612511646
0,208349881688513
0,202084121815323
0,204158193620313
0,200571585108841
0,204849101430598
0,203648353334099
0,196933434297171
0,198244146296822
0,201687120244754
0,200992710308947
0,202804221607133
0,193636870058035
0,196138918715459
0,19545930626007
0,194781033302408
0,189602227054139
0,193718028150129
0,195246900199502
0,201951244956954
0,186350041962206
0,191189968180626
0,188353721360819
0,191837717462756
0,188538969526238
0,192338647115775
0,196874188769537
0,193132118077488
0,189235967817228
0,192981160652704
0,192309248105106
0,196728904009703
0,1880341967562
0,191203170978441
0,195129929464237
0,195516042387687
0,194184886286792
0,199602394054285
0,194017649794939
0,191781728527742
0,196713261345748
0,199089232291497
0,197230432765177
0,205329947129189
0,206608958618351
0,20817332278979
0,202379283676531
0,205436229658108
0,20669561689417
0,213476916821452
0,208115064265066
0,213124575219354
0,216558035073556
0,224938083383933
0,214231399896176
0,213251671830275
0,218121394009841
0,221586976015488
0,221499320005275
0,225805322335513
0,227403407180426
0,231415466484237
0,226041253181023
0,231244953244534
0,229575092967738
0,240777786455623
0,235373758789684
0,240877458984816
0,238602938277691
0,248968994626459
0,246905833227528
0,245486281216054
0,242330794066735
0,246934021613954
0,24578613028324
0,251166028550891
0,250646251076235
0,252665466774079
0,256942513834574
0,263863783232104
0,260360408519916
0,269284872338529
0,264155687941585
0,273801626053519
0,267385971087091
0,283020165702349
0,273928143695842
0,275871400119571
0,278444637680194
0,285749327807753
0,278734938222621
0,290077850160264
0,291357782520228
0,296030209634704
0,28937023927558
0,297647672696871
0,294409692690245
0,299579874369567
0,29508367576208
0,296467803961859
0,289852619651393
0,297681132138404
0,299513318909066
0,309868659951285
0,30012442435861
0,305278748818213
0,305372840353917
0,307506831867055
0,295071335236369
0,304631700766623
0,298367733767105
0,303959311615842
0,295021193960925
0,304267092232413
0,297919556698137
0,302683685260103
0,295843562754925
0,299135525124461
0,297669840017263
0,292050744086971
0,292975229986707
0,300859866762481
0,293012330599592
0,299929277672349
0,301008048540669
0,298627202988299
0,293636674239961
0,295771874419687
0,289874317643723
0,295585666938526
0,29748577156257
0,303283372818694
0,293815697233465
0,30404450770974
0,297945140036127
0,301441940146242
0,303752349200284
0,30107482017847
0,292895262774436
0,303339950753229
0,298576033142494
0,307261241939745
0,299994084766477
0,298117931149774
0,296618100498934
0,301104915208571
0,297975187492416
0,297853698026701
0,287875555098699
0,301446814387838
0,295645065647377
0,295132766574496
0,293770212106054
0,294529831046697
0,289361305616431
0,2909894696713
0,280786630467174
0,29369941766458
0,285801045141371
0,288974948286178
0,287378608941213
0,282665416000381
0,277071779275814
0,282362474931801
0,27809665502276
0,275787966867827
0,271348121052393
0,276023080804966
0,266064651681735
0,270373293768357
0,260682655762379
0,260707161732472
0,25754101377509
0,257960863890329
0,254699575342068
0,24720516744292
0,244406089879733
0,253252603835337
0,247451467834972
0,245207792734597
0,240053454199789
0,244681002469121
0,233637122151552
0,235014029033772
0,229194653808107
0,23176165888149
0,21919298616439
0,227158717100443
0,226115522087942
0,219368985261937
0,212465481976269
0,219159449544455
0,209535026501625
0,211718861550468
0,208671783247643
0,211541049719165
0,203985493115551
0,205032309330801
0,20460032381538
0,202028182703145
0,202649780066356
0,201945030389243
0,197831705421715
0,196900858939903
0,190761746833288
0,193468733772077
0,1903484838042
0,191678471392382
0,190342760259884
0,185978447730575
0,187456879170721
0,191542725507517
0,184447912897527
0,18520147452645
0,180323576915811
0,180464807171134
0,180584730939404
0,180853792350069
0,175325498839064
0,178829919724818
0,175659794201105
0,178656132119877
0,17326192815025
0,175423914272025
0,172680124945011
0,175505380679123
0,171073433389128
0,169176085612175
0,166375148268681
0,170314827353426
0,163071221525305
0,165783000145067
0,166096564642827
0,175861559723733
0,172142807257869
0,16537782334685
0,16452984679473
0,170026728551297
0,158200150558445
0,160389112894894
0,162501232665678
0,159687307104243
0,158101232718263
0,160394031055638
0,15626678145454
0,156044223386081
0,157737520172347
0,157941489177307
0,153254844613443
0,15409874740963
0,153814789501932
0,155895879781238
0,157232935512942
0,154418573420596
0,150574453994489
0,152493513092412
0,148652778559228
0,149687615044149
0,149384358221834
0,145667770837524
0,146150444112185
0,153127125998284
0,145821326114688
0,14822656441468
0,14604560827259
0,14634185456669
0,143085875682838
0,146440012331961
0,146671013906721
0,140213227296994
0,139310882760832
0,143805935388254
0,137645570452303
0,144239135145857
0,138872577061455
0,141632207531401
0,138860574437339
0,139286482007017
0,138385011448965
0,141539479873971
0,136674928141034
0,140511577536103
0,13827719927762
0,139579025970595
0,136769714526513
0,133687011977196
0,134764183771178
0,141601183991849
0,134351146153846
0,137988967330614
0,137187889290787
0,136445521677313
0,134709718666555
0,136975372433808
0,133216221488322
0,133874546389117
0,129821536078414
0,129440855593603
0,132415252026819
0,137538195254196
0,131577300580923
0,137772176406681
0,132175314725955
0,133166908867421
0,131953063404202
0,131451355781632
0,130550705895972
0,133579897924151
0,126744994359414
0,129169604716786
0,12986842214971
0,129437198099782
0,127516631529242
0,127708279626
0,129819234211229
0,132926164047061
0,129211701695737
0,130028597919187
0,127124777681062
0,129462703112383
0,124388374100673
0,126291625239477
0,126325972689735
0,126918622144194
0,125275727032561
0,127518243430484
0,124062255258674
0,129844719132055
0,125035058014184
0,12345825311905
0,122766728409086
0,12709137033052
0,125149570420912
0,123149201895383
0,121760200993883
0,125870428669937
0,122227145897881
0,120782517341499
0,12152277113162
0,120514388836453
0,119211546226812
0,12518028583865
0,122452238963224
0,121569031324377
0,11868262695839
0,121979306258371
0,120359212169767
0,114337653283759
0,11799208794304
0,12263267986073
0,121463718826638
0,120424259471235
0,120131818420871
0,119022827039282
0,116401391265905
0,117465614583339
0,113643681860821
0,119311332834141
0,117134454337241
0,115465087946874
0,113768329822552
0,112300119257484
0,112971355904775
0,11207742803139
0,112658598963258
0,114442075070787
0,111454578705013
0,11318918637001
0,11202056217867
0,115910354772596
0,109685019460796
0,111641528187116
0,111613989474032
0,110811147932337
0,107924711177427
0,112334759841049
0,110800681749999
0,11312566685847
0,110040500022002
0,108450572365963
0,104195661472778
0,105161436934638
0,105963514854453
0,104706751880464
0,108195903401198
0,109609703920486
0,104513590043547
0,101223441078765
0,102153205697113
0,10223254281745
0,100441400945171
0,101444666034066
0,101194793699329
0,103604296665817
0,101233402451237
0,103627344124457
0,100089703379488
0,0977330832082138
0,0986036420877124
0,0997995899318948
0,0991987378430209
0,0986830544463805
0,0953072861308579
0,0984237334941719
0,0967909134748569
0,0965892134924536
0,0953007703448207
0,0988125806685471
0,095384451191648
0,0936801982663604
0,0901665951188956
0,0940574758365164
0,0941763886763342
0,0949184676495134
0,0920073443223823
0,0920162317888737
0,0919030981513966
0,0910800170888231
0,0880025428835598
0,0927315990676448
0,0918517066162589
0,0892721476463325
0,0875635139414037
0,089187574124701
0,0884299365195991
0,0888147345553425
0,084178638334134
0,0851394019996474
0,083794321084944
0,086801352397966
0,0866056065223933
0,0866836134544536
0,0856003995688777
0,0848669424761992
0,0853002917011886
0,0867740439225264
0,0857291821699043
0,0832163741953353
0,0817742330943424
0,0857613001936557
0,0823168642521951
0,0840715728727684
0,0819011975679358
0,0832460455880221
0,0803954498171763
0,0807795907377446
0,0795721171786272
0,0779904219473881
0,0818255720390842
0,0805632775644832
0,0754149803769141
0,076134328339281
0,078112481401103
0,0802663404245362
0,0767383037214539
0,074944617838982
0,0772830471691496
0,0772883881292133
0,0796292961521349
0,078848208234014
0,074129587610832
0,0756665423360473
0,0743704109880192
0,0744532942385551
0,07391972874049
0,0729675681108065
0,075534467077711
0,0752597398407125
0,0704737392247115
0,0734362155485514
0,0725277478894343
0,0758307457485561
0,0736020551169191
0,0737862061888842
0,0717363015078634
0,0726130683914295
0,0712908738173908
0,0714617578530817
0,0712163981756697
0,0723046683444973
0,0712610842710555
0,0717751256884297
0,0677896455572187
0,0725180535450234
0,0711428039228666
0,0692088696938863
0,0671505177022032
0,0702188875251465
0,0710598918577647
0,0685951801518626
0,0672988269053542
0,0693965245575064
0,0720231235860766
0,0698488439009795
0,0682718705034026
0,0683502007298233
0,0670372285832928
0,0691319585368309
0,0682597040439963
0,0686115853877351
0,0680793255567666
0,0691733105771736
0,0685331541965513
0,0671904473558812
0,0666068816676716
0,0648216243873718
0,064935869921819
0,0694229055818943
0,0680614656465946
0,0689686152642789
0,0662542930046792
0,0678979361852735
0,0660759662577855
0,0671820403257114
0,0663311450948197
0,0664363793443381
0,0628977448254885
0,066380575003013
0,0647162717993611
0,0613948165122207
0,0624701511638154
0,0639201702114261
0,0634043466190511
0,0634635604881676
0,063100479741043
0,0665282213815384
0,0645246052130013
0,0629183118887316
0,0606759197704502
0,0619332564627764
0,0634658200377322
0,0626881430925754
0,0618141748436665
0,06167358034793
0,059661603990937
0,0617563042320535
0,0619416577662272
0,0643656403720055
0,0610524154259384
0,0599745279170975
0,0618694174265244
0,0587482165015518
0,0608622419127223
0,0591352181403796
0,0582341736387941
0,0596690391192852
0,0612035554374343
0,0656092004835947
0,0586815264314713
0,0610999931103122
0,0585662585595676
0,0613048058351084
0,0612582695208453
0,06012091936261
0,0583598257396409
0,0590884078862286
0,0588899976974789
0,0587390812988595
0,0581932389523828
0,0588126415468739
0,0566171608886975
0,0579990837213192
0,0582642656523559
0,0596489029006896
0,0581171911056415
0,0562791392967709
0,0566930035217965
0,0572100636122222
0,0588908525799304
0,0564531098480851
0,0566672499233947
0,0591660670933142
0,055392790152337
0,0554484761727982
0,0574720263088611
0,0529382243947702
0,0542668374196016
0,0535833054244394
0,0561411238274797
0,0555352002512008
0,0556821848958725
0,054301472524164
0,0551216382975821
0,0534172790828788
0,0524200585865354
0,0518026742283317
0,0527451191101803
0,0520120947720382
0,051210420786746
0,0542811965479288
0,0492266280565872
0,0519170664410056
0,0520776605563833
0,0501494677279395
0,0495361296477864
0,0522013988414012
0,0494289482480368
0,0482338833997204
0,0492884069928364
0,048748657845676
0,0497933020557713
0,0501534837937427
0,0476739745546855
0,0490929213822832
0,0505498857796319
0,0470724014774133
0,0512849630799084
0,0476052138643101
0,045728491427346
0,0475319518584227
0,0503435807562098
0,0490668873131971
0,0471537595471381
0,0454011026487945
0,045168624415638
0,046610641098379
0,0480470056393238
0,0482873985654638
0,0478733102591814
0,0464465389280993
0,047243338043872
0,0455262587319582
0,0436107974149289
0,042827740165372
0,0442030692650981
0,0431746994614446
0,0433948844346581
0,043919419218482
0,043562970543147
0,0443252931090216
0,0449898072788594
0,0451876049481868
0,0446837694246872
0,0415301648443322
0,042210337710364
0,042118271026727
0,0420026474988836
0,0416053866714781
0,0422143947538865
0,0405743980920747
0,0416560791884886
0,0431281744029916
0,0432263570472281
0,0424875431706012
0,042110452973029
0,0413160940136187
0,0412826511200084
0,0374626325147686
0,0389969972484275
0,040036867684223
0,0408931074960236
0,0363345857766752
0,039497404891303
0,0398367091854313
0,0393681795655862
0,0356453092807983
0,0402385057625402
0,0384907646606859
0,0374383812572114
0,0373328571794215
0,0406580346352934
0,0399829947378353
0,0368614361178463
0,0388942094803892
0,036929614955369
0,0370701691848046
0,0361606262000767
0,0363529542394658
0,037066277136631
0,0387646220326233
0,0380599896453017
0,0368617940701829
0,0356389865952006
0,036281698310046
0,0385610369703349
0,0364895709275818
0,0364806706796832
0,0354092605896112
0,0365621194554282
0,0353882525528285
0,0357773672751013
0,0343513936580849
0,0396675955818041
0,0334704036366816
0,034916319299269
0,0355042743997365
0,0366913168920104
0,0340756930619594
0,0361429888309457
0,034483944199301
0,0357210311739032
0,0324227108980277
0,0388476279684884
0,0310053941810721
0,0355158034869527
0,0301910446884556
0,0323524045398335
0,0316528957037443
0,0346804485307789
0,0331133952492718
0,0344365639121323
0,0308659601139241
0,0292047971648218
0,0287571238621694
0,0352436969937115
0,0344336861859718
0,0352697508458125
0,0242375012756325
0,0354495432481319
0,0268467482977209
0,0305649307865648
0,0261710648733318
0,0294904467592975
0,02897913533734
0,0334099544798127
0,0311534124209801
0,0339144662688231
0,0247839325838455
0,0326607820349635
0,0278206769901137
0,038243316410612
0,0273250065591905
0,0351508513053801
0,0256798515105903
0,0356736227487894
0,0229949283429853
0,0373775993984328
0,0269587262415796
0,0323402194358882
0,0217080750221355
0,0390573806716647
0,0191598397642626
0,0306240825400651
0,0235552573223938
0,0376992887036864
0,0261520970407922
0,0358072124638372
0,024667026351348
0,035551664436348
0,0250537722433336
0,0356730766244083
0,0228192870258463
0,034126404697801
0,0243185159148436
0,037829111603053
0,0260774771613434
0,0334663306218021
0,0241736503061045
0,0341323770060705
0,0291071070024045
0,0309135614535416
0,0276816784557926
0,0297120090186829
0,0359000731642058
0,0216146483334338
0,0378083915187773
0,0169134737557999
0,0411075383960932
0,0141810199542001
0,0451351155722961
0,0119271640916529
0,0412943194581751
0,0156691384941961
0,0371427970629467
0,0193492649773579
0,0349131476287728
0,02604159684355
0,0290687165471159
0,0308618709071888
0,0293853012476921
0,0280861968690437
0,0308590532976646
0,029135975960052
0,0306127507649158
0,0258525810232028
0,0316432101277819
0,0251854772183368
0,0322401970365283
0,0263172208191297
0,0290632421379405
0,0272765955485115
0,0294836760605101
0,0277936316207072
0,0294403230514789
0,0275053330446319
0,0292701163848785
0,0254469524937587
0,030583622577198
0,0269655000315055
0,0295055653376726
0,0267149442143177
0,029455558583908
0,0273301400322584
0,0297487710081327
0,0279290785379206
0,031503830968125
0,028623110227721
0,0276883653016022
0,028087893729212
0,0308543500826609
0,0259271712192832
0,02854475654415
0,0280331916534157
0,0296180227735488
0,023632083770818
0,0297946501061764
0,0259862408986031
0,0290906611280452
0,0261572967271287
0,0268851636201744
0,0246654028845615
0,0280777060499438
0,0271529542269836
0,0282120129004649
0,0283865889981925
0,0249685817617769
0,0282323765474969
0,0258644468286848
0,0257484049009241
0,027146117997289
0,0234336342790613
0,0282374914460205
0,0293618120127872
0,0300123403561784
0,0277965739869154
0,0305324247875259
0,0255738118278406
0,0266893588185532
0,0276060691909548
0,0312506699641671
0,026267272083301
0,028611435633026
0,0305352112360217
0,0288011084964812
0,0256880752314136
0,028221164294353
0,025499924874187
0,026802796156171
0,0266840085266903
0,0272110472819034
0,0250826237543079
0,0281022690440331
0,0271195396298866
0,0299120513538768
0,0249052790240327
0,0279688105951621
0,0280272582780992
0,0280388679372588
0,0255123006854171
0,0279018001242067
0,0256924569407451
0,028532909937899
0,0256685329302274
0,027323082964118
0,0275964799270531
0,0276126179889879
0,0283903931804779
0,0304221945429213
0,0269069908556679
0,0274994334209043
0,0247225718877453
0,0278945710902214
0,0280434319524727
0,0263256815406675
0,0245340939285392
0,0301594324675563
0,027706818124835
0,0276830640529052
0,0270881769451868
0,0282031520912095
0,0266042165735516
0,0286290189151571
0,0265040835930826
0,0289350361140636
0,0275554888939565
0,028490754517365
0,0260131245527097
0,026260478137556
0,0290643868866598
0,0311294221765566
0,026942798752368
0,0276731348894386
0,0268174223038067
0,0299089788477512
0,0284848625445847
0,0280634405243023
0,0272517814324233
0,0278268689715247
0,0286172764258272
0,027183194961474
0,0292550745668079
0,0289326795089069
0,0294003268660232
0,0273169588652366
0,0290683642261271
0,0304246231390927
0,0302754994613511
0,0300542566635763
0,0262792297125966
0,028812692713452
0,024883225970573
0,0285977316518505
0,0281039425892269
0,0268047171563647
0,0277139412389383
0,0273599821237623
0,027248530781007
0,0280777084587899
0,0305191112759452
0,02912685621399
0,027800566329011
0,029525689555828
0,0276645494283935
0,0324761220151598
0,02899730863222
0,0316175986184622
0,0303256376972709
0,0297046839636719
0,031161424188061
0,0286271427008716
0,0251983376493747
0,0281257530215131
0,0294062054093264
0,0310484237383
0,031061541053873
0,0292487512672898
0,0293771755313676
0,030581159248139
0,0301199777709287
0,0294393877650071
0,0316808524266547
0,0300702953575105
0,0315711446673613
0,0279635463221384
0,0293240920777364
0,0290142751428148
0,0290809207160157
0,0293389956344593
0,0306265030942622
0,029810199682022
0,0266867175979056
0,0304100423890418
0,0292171184425027
0,0296555973668595
0,0294694534323767
0,0281603400934835
0,0258767542347282
0,0302453004112327
0,028889438202439
0,0283174988711682
0,0303811935509027
0,0277203730118464
0,0299144766546846
0,0306749660128524
0,0275544254380303
0,0290407490076288
0,0272549071786716
0,0276051493490373
0,0283640531796572
0,027956568378266
0,030364710820353
0,0296727425659458
0,0285667537176327
0,0300281332090722
0,0296345016587919
0,0285005434062989
0,0264921888551349
0,0270609186838459
0,0306411074702022
0,0283047698085972
0,0290001944314972
0,0301003237040043
0,0271918452347086
0,028334058598679
0,0278739869851913
0,0260573987712264
0,0261712937237589
0,0276749579278093
0,0264128360729046
0,0281047544256719
0,0274228837067875
0,0300106180028481
0,0283756759946497
0,028804746900878
0,0250467339650256
0,0285097180176109
0,0272401246585409
0,0274193699360905
0,0269001396246586
0,0273333629969919
0,0249786815766713
0,0266058550813743
0,0288825052605016
0,0280218688773679
0,0267699250855935
0,0280598333954837
0,0281569238514315
0,0249250325209084
0,0275245016989841
0,0277647611739901
0,027988909703401
0,0280501563385255
0,0246891929670855
0,0269320996854189
0,0269278653324199
0,0255038949313368
0,0273708219215462
0,026998921126232
0,0269199597727313
0,0279833602179287
0,0278368078340455
0,0270050270423211
0,0243295015139333
0,0249552219189438
0,0263423691856845
0,0269449996586683
0,027234521388793
0,0268932265276506
0,026935799085835
0,0279846616619924
0,0271930243325734
0,0269164756608355
0,0274526395954737
0,0297438347215671
0,0264885277594088
0,0287859899436528
0,0298413828793735
0,0270664227594929
0,0276231334225609
0,02825220568115
0,0244041610329664
0,027383698679662
0,0256397248581973
0,0257003102638657
0,0291959109164261
0,0274676734646931
0,0265780151393679
0,0277099962512595
0,0260396951918295
0,0254676074071697
0,0255678570654299
0,0268004810613358
0,0272753689422986
0,0287479256864066
0,026083938682551
0,0283210125377644
0,0254445336053476
0,0264681979263866
0,026654068565331
0,0267417122207804
0,0222605806618488
0,0277756649434735
0,0279087897651843
0,026357858357724
0,0256339667809838
0,0265810661155975
0,0246687356559465
0,0255059766125113
0,0264819991735163
0,0263384500583
0,0245571853625889
0,02542779448263
0,02737555237509
0,026885310468777
0,0265026905906839
0,0247342809227704
0,0255366168723968
0,0237392221814689
0,0239574362291686
0,0257341488693367
0,0258759083618251
0,0269717017438332
0,0232330537413527
0,0267223971213998
0,0257324484894798
0,0276415900028008
0,023915359630781
0,024221071176318
0,028002878645676
0,024270746087424
0,0237705623177654
0,0213682901028588
0,0269450918766862
0,0244320415875113
0,0240847278145385
0,0230871169836345
0,0221677964964508
0,0232476905019671
0,0265328966453308
0,0241584945129215
0,0251386502299561
0,024051532358006
0,0238698129883425
0,0214316105517302
0,0224368287076784
0,0232946742558804
0,0234121223704122
0,0231975095289699
0,0222662953365442
0,0250468079791214
0,0225664698153832
0,0212874059259989
0,0249281193901541
0,0222967822115526
0,0252945227492017
0,0185521221792905
0,0254289675182806
0,0225212905100878
0,0246800640775887
0,023624562671103
0,0218296109828813
0,0243034164452699
0,0246481553551596
0,0231147458232693
0,0220451459607832
0,0215207063453419
0,0218914967135058
0,0233044677757452
0,0216313094975049
0,022369284142963
0,0231858389032243
0,0239016916607997
0,0240173904132929
0,0222482165984522
0,0220401940744297
0,022051753517291
0,0235265499964765
0,0225030500490915
0,0222213703209499
0,0211228853042264
0,023893767028066
0,0218081577634136
0,0215585434157792
0,0245467239389679
0,0216378088454389
0,0233115768630902
0,0219346435129944
0,0246522870141278
0,0194451034385988
0,0214537685469635
0,018994001304263
0,0231181132055563
0,0228188090417389
0,0227032809636969
0,0224918765576116
0,0230336313142997
0,0203086379394942
0,020780201125827
0,0206360436422615
0,0249909555898662
0,0207184681796982
0,0220380040467275
0,0208548316876837
0,0242721881225233
0,0207440412546718
0,0240108245560824
0,0187942486226326
0,0276831839704853
0,0245868306629228
0,0193583401285601
0,0220240075016227
0,0168671340935484
0,021648983423539
0,0197044760547484
0,0208874974502036
0,0188053006691693
0,0209072681991038
0,0204499944112848
0,0213334149632207
0,0196624673919937
0,0236886251526488
0,0199345987573491
0,0232776839181592
0,0206532536723475
0,0217898451631211
0,0199825518252399
0,025147894848629
0,0209112441247509
0,0234081541288242
0,0227203197921853
0,0228572928679697
0,0213591656978635
0,0247561133946001
0,0184203664907321
0,0276989247988296
0,0161774292670687
0,0256255121413236
0,0181902278997271
0,0256924874085605
0,0189355619016261
0,0251201939272807
0,0193769924760451
0,0241987167589456
0,0228456127783108
0,022197930945045
0,0211241084326388
0,0214742093548785
0,0213007192660539
0,019779707577357
0,0207418012082764
0,0203404254909871
0,0205432039900372
0,0205420881212265
0,0193026181868941
0,021110126294162
0,0212443011123296
0,0234535209956726
0,0202228336419103
0,0219998140581633
0,0205817138735303
0,0221050792557383
0,0199387874302793
0,0233196464798313
0,020224980905814
0,0245224378964805
0,0234482791669548
0,0150330294204845
0,0234344429940917
0,0203020258402239
0,0237784664917553
0,0213597702291475
0,0220908224081293
0,0202705712002614
0,0226410502357536
0,0199127588103064
0,0236189400571097
0,0228513177736972
0,0211113580561747
0,021108736379777
0,0187619720440468
0,0235059370268681
0,023141659566809
0,0213479748265716
0,0197871822696838
0,0236716934507244
0,0227811285911581
0,0282556880828446
0,0215277518835893
0,0225205541329501
0,0239582987263715
0,021928334620566
0,0219940565749732
0,0214140057928449
0,0224804615713901
0,0214462337246976
0,0218698390317719
0,0197146345493762
0,0212104215383374
0,0178054692626891
0,0239693814971732
0,0192491699943512
0,0233482730461966
0,0218632579656261
0,0231465445746897
0,0196682689371948
0,0251004441595214
0,0195131313017423
0,026824774803039
0,0184058093922595
0,0242426467522638
0,0195455011354295
0,0256292590372881
0,0186762000956494
0,0297843952980841
0,0183190169183914
0,0217882068546992
0,0247083038330817
0,0209457066260769
0,0237433557123662
0,0223542443194521
0,0228864043728859
0,0252083476888972
0,0196949902257408
0,0224070812049106
0,0222506643720977
0,0223510811487277
0,0214669092551053
0,0196925623287235
0,0237654673925988
0,0221010645515129
0,0163723047914579
0,0254961800435078
0,0208924855626419
0,0230864453779999
0,0268361351409999
0,0158625385486445
0,0260432575349184
0,020582643216547
0,0245588779838191
0,0238794474650997
0,0233439269021376
0,021834744288271
0,0246541977083718
0,0235075968479497
0,0230564425920926
0,0237319441932091
0,0218747718175996
0,0252735610184015
0,0257847931924987
0,0259416394119564
0,0230342477696735
0,0221202582855746
0,0278366110755854
0,0229715407202359
0,0235132308845958
0,0238617591687675
0,0242451020432279
0,0228533930251272
0,0262107635453701
0,0243172776895588
0,0228538423900193
0,0283426667774677
0,0247068787607627
0,0226833911878788
0,0269721051165658
0,0241670209004579
0,0286048635251171
0,0261710069796503
0,0287298321726581
0,0303331999250033
0,0208151666629073
0,0329653181121052
0,0170341112337355
0,030012460435631
0,0213432753207796
0,0305749011771218
0,0227194470693917
0,0335448736983382
0,0195953328818175
0,0321972388266596
0,0238872454110512
0,0308905118808104
0,0257624175676034
0,0247977120613891
0,0257502366463339
0,0285443651217929
0,023580174818196
0,0281646237902843
0,0251896850277629
0,026683107513606
0,0376966173876511
0,0224334695810088
0,0255000382923879
0,0269947807507123
0,0257318236743284
0,0397483265681498
0,0215442036575936
0,0326246579745934
0,0277847378800132
0,0318906289499673
0,0305427303842537
0,0301766396802188
0,0308523783963568
0,0281424104124173
0,029247523964442
0,0334697947648968
0,0278510879592986
0,0376884534018765
0,0244168824455654
0,0298973496545092
0,0297353261693754
0,0367310795392658
0,0267391302215272
0,0409938436172957
0,0307104818341282
0,0359315713738278
0,042002551370985
0,0311533565492148
0,0373968520758717
0,0305677363085074
0,0374760899098364
0,034957037838606
0,0374188634099067
0,0322564536037135
0,0409835505669875
0,0348435658798659
0,0476124757705639
0,0332220560267329
0,0453179618677667
0,0379049479807369
0,0465441501624536
0,0347127511062038
0,0467206550364931
0,0348611295125369
0,0452739056961678
0,0417751832392661
0,0515093441988487
0,0391632193183427
0,0449489789947337
0,0442852802877182
0,0448953831737773
0,0455688918242594
0,0459966868132406
0,0515157549556566
0,047103385123437
0,0455931461993074
0,0498277969404027
0,0486808808051758
0,0569234249914688
0,0493830380402132
0,057115800790543
0,0462082739081541
0,0660389824147428
0,0459056612986314
0,0512020950473345
0,058813325366138
0,056699301671027
0,0599884975731168
0,0557087272297513
0,0571394692777403
0,058572883479722
0,0637448567199872
0,0648197092162804
0,0562435892305824
0,0696063928077222
0,0586120867470706
0,0769236558478321
0,0613033600889305
0,115055213628547
0,0602885839479816
0,0760726078776581
0,0811957121080265
0,0776550978495732
0,0818559564956651
0,0833212221834294
0,0886106928375404
0,0918945336147937
0,095088010450311
0,0999038154313416
0,104533307572679
0,10644231249381
0,109957127621473
0,11315415089927
0,119332339365129
0,129267583791263
0,11366718394249
0,120858382277731
0,129582097005796
0,135317233474366
0,144005689110237
0,146442196319619
0,144771300992909
0,151742323450637
0,15718357548242
0,158025458117595
0,169676066609743
0,158206017793406
0,177894222382193
0,17224975289496
0,195234445712731
0,181292573535282
0,198817493532481
0,193656799778742
0,19298766119309
0,207752406626495
0,202102141977812
0,210758864703836
0,21057284814861
0,227648714191253
0,218408120444291
0,223206004901316
0,225264613903615
0,225933296673317
0,230294022777278
0,231136220215377
0,23557258378365
0,235236803123265
0,254772799741357
0,256303107870883
0,239630678442814
0,239616362269452
0,225867258573178
0,24192357220234
0,234547246454106
0,245716542877594
0,24082659736273
0,256234818796393
0,237759912559308
0,238759608777095
0,243519489011786
0,24008730630764
0,244876202827926
0,238807027234963
0,244118451822945
0,238575108285647
0,247230811847658
0,249005127247736
0,238585871154325
0,257346496089919
0,22310950746639
0,236336046105075
0,233844787993652
0,236653157029416
0,232387387037931
0,235645953699723
0,226136993329687
0,24132818064099
0,224642523574968
0,230418326496617
0,225629927543439
0,227345581095468
0,228778912212628
0,219232532637447
0,217201803788283
0,2199562104865
0,217209336066939
0,225861726138171
0,224101092248074
0,225215431117508
0,204397023151543
0,211155111328116
0,207047193686318
0,209480019091781
0,206424191222851
0,206912601685568
0,202958075015526
0,207796134053933
0,203087174696393
0,204777232980364
0,196946562903285
0,200528101554949
0,201421810461147
0,202159278365696
0,198743537194219
0,200928168295759
0,19969610802472
0,194062246289984
0,193735035038743
0,194136262554615
0,19397887635942
0,196755709335224
0,195212653750943
0,196273749647186
0,188943650025922
0,193587001317358
0,196474642435171
0,196338579970517
0,19658030397176
0,191643834780507
0,189831252604838
0,193994215763261
0,195221512332149
0,192236156900534
0,192195735860287
0,188957451597811
0,188888563735572
0,188282718743802
0,192162740000742
0,190535582859617
0,190501051317792
0,192489017814048
0,189520450377392
0,186575189960515
0,183406973088121
0,18784746626192
0,175081122367967
0,182339310397681
0,185280011353159
0,188033279372613
0,180701744379754
0,17521370314393
0,176907782202358
0,175066766342814
0,166317641258476
0,172359098481347
0,16705016237902
0,171908525920247
0,170752077512345
0,162987710646563
0,179398714420059
0,165098788745417
0,17525007423493
0,158975782049338
0,168247848489166
0,157816107421485
0,170187639175481
0,161106310424109
0,163098223739306
0,166464399969278
0,16227871551899
0,171465506774228
0,158455718903898
0,160813227765252
0,160529416747395
0,16016966430236
0,15924285916955
0,163590848531979
0,158819873787911
0,162446788803497
0,154705595362649
0,186206205045785
0,174327843063481
0,149680311708377
0,151829021898313
0,146207817159703
0,151594668357108
0,149266384864726
0,146087481997166
0,149682070556278
0,144811969415779
0,146198905125628
0,141253630124826
0,149594310674442
0,138386024158197
0,150867419509091
0,134831465991527
0,139517448925893
0,138201245174695
0,13651784702415
0,144989117658713
0,122621159243568
0,136850962956687
0,132890723202902
0,137271909751472
0,130798949883741
0,139577782565745
0,129046118293101
0,125891804977526
0,126812038976102
0,123241226132336
0,125539874786839
0,124942675969541
0,120688282126751
0,128485693954153
0,126836363086385
0,148527734159903
0,127092329426035
0,119407112383274
0,114443727231802
0,112991066826115
0,115230567215007
0,117756249249716
0,114668810896691
0,123416976183803
0,110400359985958
0,126345778602776
0,113855388565098
0,120826975386458
0,116423487979709
0,117548433683663
0,119406970947421
0,124304267938909
0,123658845421607
0,136076846962797
0,125901191623895
0,132105513673374
0,12116930317825
0,1335576806272
0,130449227314863
0,132659310957689
0,133994585867328
0,14118491839599
0,137757122233854
0,144354189217411
0,151313848107331
0,150992597046763
0,149787304725566
0,160865334892012
0,151675707217676
0,171244554848057
0,166914456270618
0,171516928343518
0,180659662509744
0,165290159415388
0,189957659546077
0,180353050885488
0,191500483964293
0,192654635483725
0,190936366473194
0,201153574775017
0,200784154303803
0,205050810558549
0,201568281862405
0,203619645473489
0,209025077311143
0,213076068845864
0,220013182519342
0,213468734019896
0,236231403929106
0,213591085855342
0,232869676173751
0,221168173877615
0,228209198047091
0,232343212530047
0,231355734666572
0,236717704712623
0,233714535751924
0,240826758441802
0,237202425994683
0,244156679171328
0,245576669644447
0,241604136918873
0,246974516299455
0,243772662973553
0,246857586528944
0,251459499460804
0,252254148608619
0,2548150425429
0,253174732629167
0,257299551425658
0,260519344786171
0,254200126579091
0,265439046861168
0,263242071490654
0,27488988814069
0,265826870713424
0,275526936348118
0,272113319032154
0,272611959838416
0,277583934903752
0,278892713846504
0,279792683672968
0,279995121157389
0,287988896801535
0,294964613780261
0,291605831818975
0,295257301583239
0,288564495736658
0,305196643065969
0,289166562793729
0,30697893164179
0,296310945995972
0,300232325522377
0,306730757401639
0,304103631737229
0,305191466133118
0,307467866370167
0,308605124043668
0,308530532975414
0,311344371188704
0,308803084426528
0,310658821729498
0,310085322262253
0,314569317267119
0,311227237386794
0,31105816203552
0,311342150474966
0,307529653130562
0,311619818492436
0,307591149934188
0,309736812834834
0,310541702533654
0,312173410987225
0,311488597716687
0,313280359313551
0,313851884357869
0,315059163929107
0,312503342885029
0,313225611030736
0,310717756804522
0,309714500013329
0,306750359137601
0,311854526796092
0,31029572072255
0,310508651516331
0,316244782611064
0,315902379265686
0,3150908488989
0,316316200257503
0,314317863932867
0,313414157274145
0,316615302144959
0,319318348137858
0,322820684253236
0,319525003361842
0,324183758733416
0,318853802167153
0,32747677962533
0,325330932691921
0,318723474823297
0,315883685306678
0,315547575769248
0,314230090572771
0,313474788310202
0,31730535524825
0,311342820418375
0,303458998767484
0,302843752239377
0,304762219346074
0,304586895922563
0,299958721208409
0,30543456588358
0,289434222911279
0,294744198197158
0,28480644580893
0,287924624284385
0,283178939849605
0,285269471510991
0,280193473915268
0,280860302542862
0,277206978611145
0,277092909226062
0,276018605365648
0,276267851467161
0,270860075232913
0,27245487732523
0,268972075661905
0,270040089820196
0,269943058595788
0,26850007567764
0,268970558865301
0,26844756660217
0,267486669691292
0,270547863143985
0,270395816525469
0,271533318200355
0,265473475169234
0,271047769794252
0,267090743350637
0,268685739879525
0,263824202443904
0,262736901608476
0,26463646424124
0,265111349440413
0,270472207661165
0,262992061834311
0,265162975641021
0,263870744892364
0,264325987483084
0,26165281524232
0,266622260862712
0,264616340599117
0,264905945364715
0,263796634918932
0,265503317445772
0,265741362327503
0,267174938140915
0,262106565576461
0,262234856895103
0,261265168817498
0,26019842343923
0,268466349441357
0,263683890497578
0,267721243983987
0,263480179777975
0,264166826694064
0,263213913316833
0,266561644154528
0,263320432010536
0,264011062148804
0,261877902585723
0,262304606717362
0,260865258230636
0,259352950117226
0,258439714918287
0,254365219564907
0,255706664836737
0,254092076315305
0,249398846328294
0,250142638763348
0,24713099971813
0,245803250429286
0,244327103105742
0,242060136456404
0,23693767912526
0,238556571472256
0,23406717536123
0,234446915096877
0,233241351226365
0,228669594720735
0,228371493941094
0,226685408254851
0,225649619960162
0,2249676803521
0,22354983468151
0,225039573748875
0,224839114132451
0,225124773475252
0,222775539660105
0,225619790888157
0,225528261706364
0,225115113832058
0,221888907046263
0,225941402020003
0,226185177026228
0,224909473572907
0,226381649737511
0,228569363753628
0,228882271169807
0,229745004884585
0,229125377553869
0,233143967503015
0,23490303207877
0,233187435153329
0,236360491054676
0,235462931760811
0,237181530511526
0,238694893566383
0,239854489854412
0,238715830562232
0,238477712183584
0,24076744851047
0,239588457766661
0,242104181835566
0,239354003112017
0,239896314793174
0,240447371762118
0,242375618851767
0,237489633485393
0,237731522338231
0,239308189908571
0,235616661851789
0,235441025333191
0,237411131957451
0,235267648756002
0,23297814036023
0,234861988309419
0,236512024429737
0,234518295228384
0,234673593678698
0,233955545527695
0,233478285806663
0,232637413664608
0,232746783522449
0,231831152426433
0,230127395583332
0,230661409230887
0,229450674833275
0,227604688753547
0,227422956992857
0,223495088810987
0,223488099993922
0,228523623419646
0,224458926398592
0,221578622366692
0,225709080962923
0,223807913240854
0,225646492227123
0,220999296385003
0,219007048434682
0,221218352504631
0,222006335185533
0,217721066479289
0,218300689036268
0,214446252505761
0,215494881289668
0,216312643696597
0,211952536159238
0,209109545493984
0,211687271807101
0,209875799398574
0,205879524834397
0,204627955221532
0,205895351904814
0,203018649997872
0,200954443047152
0,200850139658248
0,200539092330561
0,20082444628748
0,196668020302665
0,196857752996302
0,19696376278954
0,19742147254678
0,195539524853552
0,196139137704564
0,194304576249824
0,194274819465338
0,193035521199701
0,191600386548618
0,193712653311021
0,189816916188452
0,190142795898743
0,187287658035436
0,184951102198077
0,181952315473636
0,180152317157762
0,178291703956382
0,176784808238146
0,175822431408744
0,174553223992168
0,174388581933104
0,174920700263
0,176340727167877
0,180557681169099
0,18176254738064
0,187878022892663
0,193977701728108
0,197425719280795
0,204864326058818
0,213505214838428
0,220380521359823
0,228340835811214
0,239740400112861
0,249350679771775
0,258578326684418
0,26481843712253
0,278005690040979
0,287029224101153
0,296264275263573
0,304969646494592
0,312084976622631
0,321423680220935
0,334254360375744
0,338895608272301
0,35025972463579
0,356174951702023
0,364626547772284
0,375004599952258
0,380539528286062
0,385175268404943
0,393335458332375
0,395789864049485
0,399004847108639
0,407089875928969
0,41374877778011
0,415870241794932
0,416499802555276
0,41965958035744
0,423480504755135
0,422214360776818
0,424677920073838
0,429397257491455
0,428176912954336
0,428322864965705
0,42984440274906
0,431240552162026
0,429958161165036
0,432898927869014
0,436283108401064
0,437199321277739
0,436908473004298
0,438539635368478
0,437935996793221
0,44390252109086
0,451507667656435
0,450322488664203
0,45355590428381
0,45779526443113
0,463272780184888
0,463708279813046
0,469681875437263
0,475589958271321
0,480278314968164
0,486377669789512
0,489540628062386
0,495095872472834
0,506434029560055
0,514310325287627
0,51771666716148
0,526987397099348
0,536993951818916
0,542715341685467
0,540063083990818
0,546426008999025
0,552408148083033
0,553203482785885
0,555104939871268
0,562319751791982
0,563268645841188
0,562379949589039
0,562465359452604
0,557685642964353
0,558068224679872
0,554960498101903
0,554621135748201
0,557963177328496
0,555712616853625
0,560044165961321
0,562021222243953
0,568576804830152
0,576235457571902
0,589819996392863
0,596177025019641
0,601763928041644
0,614761877214427
0,627422917604569
0,637032945130486
0,645960100569807
0,653289392585012
0,667842532951134
0,681911885056648
0,686431491074777
0,697247088949736
0,707945694284814
0,711032980125076
0,730748760519344
0,742308788766325
0,757117857255689
0,768265488372006
0,787588340181404
0,791242991847073
0,807613369247782
0,820708386493151
0,835452324412391
0,862616260099025
0,868081571154572
0,88197199983812
0,894442844066926
0,908215921039308
0,932980354580142
0,935442359283799
0,939541358539047
0,93784642953802
0,959296815267325
0,970812438834982
0,975619159829129
0,972336559172279
0,977929879237654
0,966262282487891
0,973824386413265
0,971241876262963
0,954343399825702
0,97366803105606
0,978638191171088
0,961575435909079
0,965975732823494
0,960233725748228
0,97235439118061
0,959573702709221
0,970291625883559
0,955606212276496
0,983982649893353
0,97808572835886
0,986207618819604
0,996898203116417
0,988453197431967
1,01316299624006
1,01014998739592
1,04876778690187
1,03647800274187
1,05206845294008
1,04791282800146
1,07646675764359
1,06577014746217
1,06952601462306
1,09947509677715
1,08641558952233
1,09730056806837
1,09739320878385
1,0854212299952
1,0970106728189
1,1046306433191
1,1043350677871
1,0925946680815
1,09685122561744
1,12766308880007
1,11998165414533
1,09755329049242
1,1115633076526
1,10813540764509
1,11569757907436
1,11450525474499
1,06750905844387
1,1018704542683
1,08023139136985
1,0887103391629
1,07159156172273
1,07053880564795
1,04354256318213
1,0361490802882
1,03738760869871
1,01557164387274
0,990582878633336
0,976550765133187
0,946701498229512
0,9249806934676
0,893056889160396
0,856959887182851
0,824386002761968
0,807371880010943
0,772142169686265
0,744180486711318
0,704560087170694
0,66896301048102
0,636982702599503
0,629827408058019
0,611795694878207
0,592456969804691
0,587580321153915
0,581245371441657
0,563937975488265
0,555919931778703
0,557661885940754
0,547467389339607
0,544819680921352
0,544047949865899
0,534867811179101
0,525739923960122
0,528389040633953
0,513368410865459
0,503694389182254
0,501093978339238
0,489862666029342
0,475298400295829
0,468606759164849
0,454544235835964
0,44579856382092
0,430943833324103
0,414920304587211
0,402920839406667
0,388761902376994
0,371748715200406
0,356875052894167
0,343034037267271
0,325765624272189
0,312950529297429
0,291841153943855
0,28691683662122
0,269322774000814
0,255005309494728
0,24106442263781
0,229373987473877
0,219675770298421
0,21428039397756
0,204319822987198
0,195629577935922
0,188693430961793
0,181585353876313
0,17773398973335
0,170111966336772
0,168211544778133
0,164112376873111
0,162253058495436
0,159552073146905
0,15745487425982
0,156674888078185
0,154709331115399
0,152869077420287
0,155626950391078
0,157522066198235
0,15715882076621
0,155703578465713
0,158356896030951
0,157596073740011
0,158014640859039
0,159967852903778
0,159911771772265
0,164339295358791
0,15963497748488
0,158673686364918
0,160279961902206
0,161969074453595
0,157897484033088
0,155559500893216
0,151368957678916
0,150813133023906
0,150127168629067
0,152602753091599
0,152292203663366
0,148582011412178
0,147305384951248
0,144484992849548
0,151952576660001
0,147122453614637
0,151480117364564
0,147342430853685
0,152463269550247
0,152357757288305
0,15610728422509
0,156104366686554
0,156077485510112
0,157121955838882
0,161517961559467
0,163426609774129
0,165503008844848
0,163040471097394
0,16660360009355
0,168753878662557
0,172900500697256
0,174719952158975
0,171368355378649
0,173229716575607
0,174277639364964
0,175797448293503
0,177045384749665
0,172675735342768
0,175519234021844
0,174707108120476
0,177454615957397
0,178797473686932
0,185385426478287
0,181821865991261
0,180794171307002
0,191216568127124
0,194145478479212
0,198565543094256
0,204441471404276
0,209964852110285
0,212121185800223
0,226330019675928
0,230412946566768
0,23511161375013
0,239434929824729
0,240119891948148
0,243009973389614
0,240082924773708
0,241592565820794
0,236825179997988
0,233393634636344
0,234022321525017
0,231553703118053
0,224547457460077
0,217301040671797
0,209630832301437
0,208027628611403
0,202104863218127
0,205336376389716
0,20095226944449
0,205928479000539
0,20270948114003
0,205217638919541
0,204701031661574
0,206104146186779
0,207344733342234
0,202698859023103
0,202657511268751
0,202744912748614
0,191154914450775
0,191581091083036
0,194235158570434
0,191745723626562
0,192574498715589
0,190380427282296
0,183389331335287
0,18425017527082
0,176809650794795
0,174144170513159
0,182018190783385
0,177189746128934
0,17967761034604
0,175751983353037
0,167316168502192
0,167217553500261
0,167069638172258
0,166424282540689
0,165399931497742
0,169275458586044
0,157179407939285
0,164136539004412
0,157578853330167
0,162947590149026
0,162251754690289
0,150290302249231
0,16091727351889
0,161586270084053
0,156002989881571
0,151725782346346
0,152710007718177
0,145852387295922
0,15625560611789
0,151002677050141
0,138100015272088
0,140388276430548
0,140434373794606
0,150561015776202
0,138515462878637
0,145783267574766
0,139577220757944
0,137752992829263
0,136689870398045
0,1385387740631
0,138533206791384
0,134131869056406
0,132057207344525
0,135311472269397
0,13925259494177
0,135237069470092
0,130068842057596
0,135131400949872
0,127680783259662
0,142677753020895
0,139596690628534
0,141357603638138
0,140276172266717
0,138548944632099
0,132962891532269
0,13953716420853
0,148615800872118
0,146231294639238
0,143147855398584
0,143596741604637
0,149565156418581
0,146142593849223
0,15532109618599
0,151053650652176
0,149889258986938
0,158172991019953
0,155493364342568
0,16198995742787
0,166408978638244
0,171171193315577
0,164368676596183
0,172563543551585
0,181842478615323
0,179327330960784
0,17492661744856
0,184374594494773
0,192286797090634
0,207449640415883
0,203803217246586
0,217331727944191
0,23028163769814
0,227890540294781
0,2323959892528
0,250502348604197
0,238412913329387
0,276232027892248
0,266011656873208
0,282627840175529
0,284970284868862
0,283741183441705
0,289546700601056
0,285689553142632
0,289072892569476
0,277558112727815
0,276805436754261
0,289060328192569
0,26671946758356
0,260836521026142
0,267893187583456
0,265752307005808
0,267269975061251
0,268229719410257
0,263371486790443
0,268861432227783
0,260812616684051
0,260248349071599
0,261726796733623
0,264556970014189
0,258485080168693
0,244790311833002
0,248008894114671
0,260022146697962
0,227312248848734
0,25568015500062
0,236273608604016
0,229857733991011
0,221153274137817
0,23546866181535
0,220840551725585
0,236023798657957
0,223464010555667
0,235519535239876
0,214870329381292
0,214693774405969
0,219954200499576
0,220219990647368
0,211656293271071
0,204889417266412
0,230991688439076
0,207751389254088
0,207156046748516
0,218832500195922
0,233323008137164
0,213238250391239
0,22960043870314
0,245284586557909
0,228653549577885
0,234838339500958
0,239401400382544
0,234914617743658
0,232607860577423
0,215646698023588
0,229668129355174
0,246273880892212
0,207558124766945
0,238545414114488
0,238343499535611
0,244103717825113
0,218287463127074
0,246674657050515
0,238749269787573
0,240360541251104
0,254828215664877
0,250702753418926
0,233981770933675
0,261351315038496
0,250982895257254
0,260438109185346
0,259553926420108
0,271219618253314
0,304235924414621
0,306256778959164
0,27989572226992
0,265479950796548
0,285574970618899
0,331053419186551
0,303815289133027
0,313017613271493
0,303284203610192
0,31109355509625
0,324874970797351
0,349295530073661
0,34637968282485
0,348379506452939
0,380436492107575
0,360022422466529
0,313767072498759
0,405360696403194
0,351423055888363
0,355737332645732
0,337720890357073
0,376274039122973
0,343890308051741
0,36548714200396
0,273282813022435
0,315301217345949
0,318067345419837
0,356092445788935
0,354664682282722
0,325438082564587
0,299299065215191
0,292279283012787
0,288193056819153
0,337961433108814
0,298484616002746
0,252559153712673
0,357780972148352
0,324663935029408
0,289808636287597
0,281460665027951
0,269409063450867
0,283537193965002
0,359347899075443
0,313178589240595
0,275769330388207
0,354586987518274
0,269638321119518
0,338412379809693
0,318403225920209
0,320942799833674
0,340011124480655
0,29348395200028
0,33496025317221
0,393437912161318
0,312278912457538
0,440168591790412
0,435123895208252
0,470677887000199
0,236796513361678
0,321661476683188
0,253378537758878
0,349731849075644
0,40085428410069
0,37446424512777
0,207588887350546
0,340493946104517
0,226987693931544
0,230007864855196
0,356058461625185
0,352021469121269
0,316757395079142
0,364524040957526
0,215753415264268
0,244540889148887
0,403127938390246
