3596
4000,36533379555
650,420452594757
1
2
2
0,0276095456299237
0,0139584899665703
0,0220492608006153
0,00850610633230645
0,0205116140066888
0,0175160880269818
0,0235127189848192
0,0168329761928926
0,0245590166322481
0,0173282608624077
0,0201082457514273
0,0155511143760605
0,021306682023158
0,0213348910820251
0,0206951551048337
0,0147869602860915
0,0190958045155633
0,0205728189389336
0,0252215501898331
0,0199083953519681
0,0199515822379164
0,0140111566641694
0,0301346306224845
0,0238692893155105
0,020339110556053
0,00956646056194455
0,0181494410283904
0,0214226627803158
0,0222594459650059
0,0147274898834482
0,0216201151206608
0,013820993571349
0,0227145838233823
0,0163299962127143
0,0240390799856087
0,0180057008186801
0,0162291711908103
0,0162919071567457
0,02363316041962
0,0247604998961226
0,0224230609016834
0,0227034337959638
0,0285012080130638
0,00638597355098394
0,0205643942381206
0,0189950312262983
0,0108961458410298
0,0128181001984486
0,0247614979499202
0,0135344190722415
0,027131354704081
0,0180216352913924
0,0270397746432085
0,0181218079643604
0,0200016541969236
0,0144489169469104
0,0185041164896633
0,0209956440978927
0,0171631077700273
0,0166495675555447
0,0126072477893631
0,0042279323766178
0,0214968568248968
0,0201696320157823
0,0149574905495317
0,017952874930841
0,0138233287077116
0,0186431025778849
0,0118056207053621
0,0191812548472525
0,0255254617359598
0,0152063804157114
0,0203048865414666
0,0186439723895934
0,0134417850818536
0,0127848081657421
0,0190606143583789
0,013492361069399
0,0203823566851556
0,0237038382141156
0,0213881365757659
0,00955370708053558
0,0090627125839735
0,016351556450054
0,0186837505030406
0,014291463063853
0,0196432455184593
0,0195475326960094
0,0174021800907016
0,0148557366158971
0,0162422897610952
0,0226852798584947
0,019188529292951
0,016437331364764
0,0210283655492897
0,0166971967852043
0,0172082662271877
0,0160013324680969
0,0213985822065809
0,0153408867410627
0,0184412133698703
0,00516530787160783
0,0170872018869455
0,00491417047564506
0,0204855770347358
0,00935677419237697
0,0231359501500475
0,0157794248579606
0,0167202528847542
0,0137225773160962
0,0103600289794305
0,0172179887307565
0,0188082205813369
0,0217519763199748
0,0179707473287687
0,0130697678897011
0,0066019214953729
0,0121196967280808
0,0166006982994731
0,0130118986667602
0,0220483970619099
0,0205743408514459
0,0133055054774148
0,0145379933638632
0,0227853874379756
0,0131360538309139
0,0169988705167262
0,0135533044250036
0,00871939946363559
0,00422951698059563
0,0142858215535661
0,00397356225312019
0,0201196939465956
0,00848679546360393
0,012951617099308
0,00992838166408689
0,0177949749878386
0,00907632846895935
0,0183331582675245
0,0126202339379494
0,00806967527131361
0,0133960889054277
0,02046341560763
-0,00552673430744712
0,00594898818702221
0,00696680371308364
0,0171561984884795
0,0167254053731947
0,0239865432718538
0,0103539334899739
0,0241211228939272
0,0101019525249143
0,0120865449357208
0,0075989639933451
0,0131678649924113
0,0199185182535294
0,0382232065296145
-0,0019591892058288
0,0208488013124772
-0,000432804569586393
0,0182425298393514
0,00802732244854027
0,0141182142536791
0,00672701878926266
0,0134665652231979
0,0129990589794443
0,0145580413028899
0,0159224006055378
0,0159690448339503
0,0199792203403824
0,0102266127565692
0,01642649264859
0,0359540519573981
0,00806835611375909
0,0063312107067407
0,0073759995889535
0,0296762258748482
0,00628418966552885
0,0140141424719762
0,0163006963392884
0,0191805868945871
0,00147108629031634
0,0179788845562778
0,0217515503899701
0,0191794679150393
0,0165559307447197
0,0259183955940698
0,0128550545244586
0,0136738937613152
0,0073535661209221
0,0198877832483923
0,000922589012119321
0,0120827513903696
-0,00202513299504491
0,0167763935297088
0,00941465756786049
0,0176677688225518
-0,00842093929229871
0,00927748098996899
0,0137969565350261
0,0156350121377044
0,0132562954736098
0,0127835961717599
0,00910891101267125
0,0202306095155614
0,0226260582861352
0,0266940806220447
-0,00429179096283493
0,0159747188800094
0,0151998038402016
0,0137576249128253
0,00933448456669914
0,0105715952688261
0,0091155480980945
0,0127315502520514
0,0188759286081315
0,01954989099745
0,0118885714334561
0,017247346907074
0,0137143401326942
0,0174032587380609
0,00864508553354665
0,0159647149145221
0,0153962881570146
0,0109539519137094
0,012802082194075
0,0197562023277581
0,0143470892910267
0,0168692130973892
0,0143449844492523
0,00901393438920813
0,0115141455331714
0,0144945190503695
0,012554718736807
0,0251206051574733
0,0173437628631731
0,0143175553232192
0,00907246669086952
0,0168912248734431
0,00601672443367582
0,015684021161277
0,00715698015050218
0,0160723264172961
0,00688427241439828
0,0152202738546615
0,0186472642988926
0,0280093350036662
0,0121857808113877
0,0206849737046532
0,0143894461365062
0,01439093489559
0,0103543834891011
0,00820530575320016
0,014545654971373
0,0165604057345907
0,0156638167378468
0,0200467505252855
0,0174058912672674
0,0119289076195805
0,0170038791483146
0,0225611045445313
0,014226834438074
0,0157329343979009
0,0187309703842836
0,0201796736857643
0,0136297124323622
0,0270724418610766
0,00948390739810102
0,00822943011129625
0,00767630206838087
0,0117965463033561
0,0133235545063792
0,0096877099608498
0,000594491599229145
0,0107524759997912
0,00994904847454492
0,0134597229124459
0,0180962179404611
0,017235492343022
0,0110159800348418
0,0238684224307053
0,00464368739789696
0,0251573480186699
0,00882402031188629
0,0237677883485062
0,0118691647655358
0,0125338584256067
0,00750642024468763
0,00806431750760208
0,0188962905698057
0,0220710477412837
0,015901571882401
0,0136140937432363
0,0174427514025188
0,01280650100521
0,0277131292730505
0,0284772730508368
0,0171378216940707
0,00956521776548158
0,0182894926250034
0,0247291097179496
0,0218486120686062
0,0129983604936123
0,0133948156965496
0,0179446508355468
0,00868393565948405
0,0294749719708601
0,0288843768083914
0,0112266541473226
0,0137194481448737
0,0128692849023238
0,0153936016788724
0,0155540340180567
0,0119199016135028
0,0151006209779469
0,0170793791238098
0,0195217437536099
0,0206983309259033
0,0284745776484521
0,0289581459575351
0,0214293954792303
0,0163047649285038
0,0268622819652082
0,0171462881558887
0,0235828649170267
0,0197655999471331
0,0170394839072121
0,0161439162769831
0,0198640556820208
0,0237226179602475
0,0204996681235997
0,0167944136300696
0,032808031905124
0,0292680236869109
0,0234152205502259
0,0171462048624032
0,0302104580161307
0,0188107248011792
0,0225073102618149
0,0207421138682069
0,0239114842580092
0,0230124681000235
0,0251580365946549
0,0196252936028744
0,0252032297553008
0,0237073699224641
0,0439516935057055
0,022037677313934
0,0357310266557893
0,0212210195918062
0,0237189217934266
0,0340960867559149
0,022949628681467
0,0280511095453836
0,0218724676203574
0,023010508592189
0,0283090574419019
0,0287486350465117
0,0356952788845314
0,0344387368929383
0,0356507011539671
0,0305602752269063
0,0350082722367275
0,028809846506028
0,041293729137463
0,0346105312576592
0,0486539811147511
0,0435784784720478
0,0429203555888954
0,0355409945552317
0,0455105107926629
0,0505713877359184
0,0472696352671003
0,0280596793367434
0,063328300686821
0,0248735888985091
0,0460766487433915
0,0396998225822103
0,0540930601283924
0,0397077593454162
0,0427515085755455
0,0463362840535157
0,0524386343823694
0,0525593745780828
0,0501797620931234
0,0572261168324132
0,06145569488407
0,0543349123530731
0,0625504539198625
0,0506435146811611
0,0587224791174609
0,0655923227612275
0,0590959355596256
0,0670453922973212
0,0691227267295335
0,0658550717575601
0,0772666102841812
0,0887833037775795
0,0596434165910928
0,0735430638841219
0,0631689977259686
0,0728723034576419
0,0730455897538666
0,0793022885573395
0,0785130389068132
0,0786142347250221
0,0962730921896566
0,0793792444463982
0,103332753004916
0,0860563840456175
0,0817830295231113
0,0993586426248415
0,107282705796729
0,0985562320209306
0,0942293687675878
0,0924078658617191
0,093265577564494
0,107116781803031
0,0991320497564185
0,109963948333351
0,110992705830036
0,0949633435962877
0,109509387634273
0,104433962427946
0,117767444078848
0,118487159592898
0,126134771345924
0,123108462977871
0,121726924409372
0,126966328797904
0,13086649920829
0,130559405598768
0,139357262584879
0,133747054613781
0,133599882726357
0,14142892287304
0,130353674710667
0,148776815220914
0,137667632642046
0,152164924229781
0,147484815984278
0,163257486441058
0,162472995497656
0,150025161646286
0,149463666638625
0,164530140661101
0,158059070373271
0,15809638479228
0,163490813745516
0,173352547974999
0,17389803463864
0,171734443126686
0,182535900542203
0,197068333338989
0,195632685932631
0,183756262633582
0,195798565458756
0,199475246059293
0,204379444821705
0,211827411559219
0,209796926405806
0,213620714959013
0,215625126181612
0,235152413306174
0,23534744602115
0,219756071886482
0,224020198476842
0,221116207764964
0,223745637803251
0,230439592387391
0,236736898001743
0,243354941262283
0,245674465116186
0,253381034792061
0,2517765115497
0,257619116602389
0,266389707390765
0,276748455395568
0,271193691121172
0,272394625831223
0,265016610117098
0,277956070190113
0,300172798866624
0,288233469815349
0,282504344980386
0,311824144229597
0,308028214955488
0,326195688982861
0,326091117312944
0,309082617911118
0,315131943178984
0,321298595637614
0,327673061054289
0,325431424284008
0,312871324556687
0,342442094508281
0,33045025078658
0,351154600708448
0,362503025960363
0,346721201854611
0,366146407799314
0,357832369174502
0,381512510820176
0,389752402379153
0,35761663371488
0,391415338345526
0,395922905582813
0,398865137246373
0,387342010602185
0,398650332509937
0,388454024739314
0,414599563678846
0,390545193709612
0,423110073959309
0,421679288273171
0,419212692106207
0,422352741869447
0,463586734547461
0,436608546691491
0,442376133004108
0,433951350692035
0,452839263238837
0,459934960236222
0,459364175617032
0,453530458424497
0,477248978747805
0,490197006112377
0,468673511721868
0,475840244043812
0,519039277364557
0,482201734936055
0,519192249426817
0,478816196106996
0,498794725238983
0,507483456663183
0,525004424387508
0,496034606016267
0,518205881310213
0,519281127502632
0,568946204752298
0,530356779650678
0,557737745384271
0,53182794693707
0,561783938610184
0,574719447731413
0,584490066411552
0,565230960782481
0,580701482434169
0,588133897914779
0,58640896960862
0,581784198784281
0,623215333907149
0,591124871696188
0,658223987123225
0,629176790624807
0,634443526545424
0,610913052902256
0,623459565322038
0,623143224507171
0,641627012808923
0,627139365592149
0,675995763704114
0,617172375271754
0,683564859046418
0,649706137860506
0,706822389796109
0,658454192523213
0,65229309740128
0,656080427591363
0,7015349129434
0,647185755116205
0,707009391395671
0,682863425932319
0,716359819590857
0,658244091495164
0,730887339471639
0,657259430600706
0,706770513667317
0,701008672435648
0,746078211762366
0,726310842678586
0,765399131199571
0,729618394556703
0,796879014280758
0,723103394674405
0,760204571228419
0,70961769194052
0,772332027099875
0,755404716459695
0,764694719930735
0,745330926598108
0,816171391059525
0,784402916751187
0,776160236238139
0,796215537384997
0,84643467788529
0,778110244467513
0,829148562394163
0,812375983005728
0,834630703771232
0,758910251334719
0,803701715361396
0,814108931442392
0,867463851368941
0,827295106663728
0,857368102204294
0,827481953342777
0,89893714545555
0,87092597030232
0,912624486302122
0,860140900511129
0,872691482731653
0,826402808915749
0,878312272776736
0,803942692861559
0,897013236219686
0,817377049378211
0,875104129810861
0,919693172827088
0,875621418952669
0,90785613869244
0,933013210571989
0,899470115587022
0,943030199417291
0,926550879081046
1,00519606333287
0,938048795564637
0,881694239873346
0,875586349283544
0,92963301431822
0,929684172169584
0,983759998336521
0,895139654408056
0,97908268040158
0,917456891757566
0,975779316269072
0,947199151547089
0,995223298675833
0,941516745128775
0,924214151055017
0,883399902477417
0,999374261520586
0,914277868657071
0,970491585633504
0,908617434437797
1,03909433219904
0,9630588046182
1,06127934418128
0,938952081344353
0,997073676817471
0,992712082899634
1,01852305339238
0,962607339754878
1,08607967026092
0,991339351860539
1,03895878369795
0,985353134147965
1,05516845104113
1,03137777094984
1,06997434265981
0,986319901869099
1,06873928515182
0,962930812866837
1,06453101681904
1,0074875089005
1,05762500075757
1,03085519687776
1,10773660795613
1,04050687815293
1,04188307776243
1,03793230851586
1,13722733350753
1,02576077056765
1,06921654578844
1,01737595866919
1,09000873673647
1,0241752864241
1,08457904795856
1,0541227539878
1,05507995556239
1,04925016347864
1,19768533967638
1,07707825129729
1,08348162557723
1,12511022636502
1,138295291365
1,06558602389758
1,12948415319579
1,07146778269432
1,15420126897021
1,04742864177721
1,12357962294984
1,07923209057635
1,09579064536009
1,01519100032535
1,15328515935667
1,01325524964098
1,13608609272399
1,060483445843
1,17640163606667
1,07824524734796
1,11631089332922
1,05801205210727
1,0905022618271
1,08535665547534
1,0951316516728
1,05985421228467
1,11904525810406
1,08511412404026
1,21755330035921
1,06668605824579
1,12942551041799
1,03241470020252
1,12261391282331
1,08101115394334
1,16997370017724
1,10502600972449
1,11209618074318
1,07308359382948
1,15543532370786
1,11825497479213
1,13317113741002
1,08098208404423
1,14646946476634
1,0881482595136
1,12327331472705
1,06092955371921
1,21939787312276
1,05121881769376
1,12041135771138
1,12235136350246
1,09421546350893
1,08799768946855
1,12502909635026
1,03959975955488
1,16078037875663
1,04309412382788
1,16532700525557
1,09980945836308
1,14717155137064
1,06741486229721
1,09247817361576
1,07319447729671
1,1548818738736
1,10999879707754
1,17536980794091
1,1094266710006
1,14706640770413
1,12914113825798
1,1772046835661
1,05816728658858
1,16522469689002
1,0885913046781
1,07983115301569
1,10900644294771
1,14961893005259
1,10540923703297
1,12727561258985
1,03817231902241
1,1796728103932
1,05781225678243
1,10139456051889
1,04845384412189
1,19000865047586
1,07275808115202
1,11672881317368
1,05369873011545
1,14852556637776
1,08598123069395
1,14901612830443
1,01882594235163
1,09295150736561
1,03976140612235
1,10440839774494
1,0421965099303
1,1204626647878
1,09850904439354
1,12015031728585
1,0857460234509
1,0489660443498
1,02500428657113
1,10078979746496
1,03470679104538
1,05878225050735
1,04166647330147
1,11516641526508
1,04299311421439
1,11575958498917
1,05856137633783
1,11942683815635
1,01370005043671
1,07837083030275
1,02314460060651
1,07231750349366
1,01227611168641
1,08590979750192
0,982279945690136
1,10089006847976
1,04122757927783
1,05384959891238
1,01659014132245
1,06804190166143
0,959170475014343
1,04735065590553
0,973403806437008
1,0428701486749
0,953020974918832
1,04015170251015
0,993201895712179
1,05137397214519
0,983282059927323
1,00024103772072
1,02652281270064
0,971313211013287
0,939356726953622
1,00364630650503
0,966274851847175
0,973749453673154
0,915015357214304
1,04349562534096
0,964880763482699
1,01327051599576
0,969257767210189
1,00598184187063
0,943419172005761
1,00798990554153
0,93352833521972
0,981529226860765
0,907562379926313
1,00872904944196
0,923836596195277
0,965001998178107
0,933132437426867
1,0268324415565
0,893278211564896
0,937957747470073
0,889949326150056
0,979676719567044
0,901542012902642
0,967264506065387
0,91480790645485
0,917073149773426
0,891254765207688
0,903225349313652
0,90001718746482
0,940801124733773
0,864683164927885
0,93866209046001
0,876493553410728
0,887613979452673
0,878803828229363
0,889881658990241
0,861818286623341
0,912812528356465
0,842258690723471
0,854646400821556
0,866636832327623
0,878646701276481
0,843882170681387
0,873406005552827
0,831664004505895
0,878562578528197
0,83422702320946
0,870298358832149
0,84122680508882
0,854017705350263
0,789253962525771
0,849322001296067
0,821776116144247
0,823659523458772
0,800171104522812
0,840724384751086
0,792055164503281
0,835055594587341
0,795409398703128
0,848857455800279
0,773196075242074
0,806165314876317
0,769130017956544
0,794449858989192
0,785064761865018
0,780734692131807
0,759929890017249
0,776937423438955
0,760034556956629
0,77312241679488
0,758698930515357
0,769559216938307
0,736458661483187
0,769962349955064
0,742662476381376
0,762037535126595
0,729854746786484
0,743309174699524
0,720589181747637
0,741373135801485
0,726436111877137
0,733406710661271
0,698284304269574
0,725194561959202
0,712188022567487
0,709218777325459
0,679305555788434
0,713286300503651
0,684192488325446
0,696935018143064
0,686311435604809
0,697788258297817
0,672507885940475
0,680595277058736
0,668994710211478
0,672855879726418
0,654575540743457
0,672308106219079
0,648147074970908
0,674231840672512
0,646844438818449
0,680664704524073
0,648705003044474
0,656706761203995
0,654842477374023
0,639410322740919
0,62175979549389
0,639282430913034
0,616696024141506
0,629695565422249
0,612496025758077
0,623629548058347
0,607754761200632
0,616280911733285
0,594506923051369
0,623909098105666
0,598972519537993
0,590664312962893
0,577075895854642
0,601679936856126
0,575598593069992
0,58976083249318
0,578487021723215
0,588605735506964
0,570849758786699
0,580292049198664
0,555436750555786
0,570083043134109
0,546019822125509
0,556680959940851
0,547216412769717
0,550384092795991
0,546175602051017
0,550768963897417
0,537078311028168
0,554053849450862
0,532056185211321
0,546589518117983
0,523013750080862
0,527775257540989
0,513244925453019
0,536579512234215
0,51927668735842
0,528851169310941
0,516411420306503
0,516193128426014
0,514552903036247
0,514396399064861
0,505528046295747
0,501171486908586
0,499270463820059
0,50691073657788
0,48659577601039
0,493155381238129
0,492238948612351
0,501535652483913
0,48051559320044
0,490724590624747
0,460127910651875
0,495965906958044
0,470516048462637
0,473205578448925
0,469038969832542
0,472923709939413
0,458521938508318
0,462649036805194
0,460990066068169
0,463769434550407
0,455074726868013
0,455430409315007
0,451551462203812
0,448567620353004
0,441333670759994
0,443574200935028
0,434364738977596
0,454858448930464
0,43252571361141
0,442238605500228
0,42435171275958
0,432976288706648
0,428532422775563
0,432263006425733
0,415316778231927
0,428069159259871
0,421460929535774
0,427383166476005
0,412936919062663
0,410181910280427
0,400973742236324
0,412369570947902
0,402552098948843
0,409541285441713
0,407761031097966
0,409062355546984
0,384232733355075
0,394872072958951
0,391754717984155
0,383525309635338
0,384907122368724
0,399660180950707
0,383944186516627
0,396198632903783
0,374555158722494
0,387415347457623
0,375391139410959
0,387214514983616
0,368730294877805
0,365941973464743
0,361586438766337
0,370070798610598
0,358530758081277
0,361715648551117
0,361848690427941
0,35502887376935
0,353867750137358
0,364888391869966
0,347643044305104
0,349413607282167
0,343213173267764
0,351856449800371
0,338807967425462
0,344955769545605
0,332418236766118
0,342234698254566
0,334220395720485
0,330385035310465
0,335355613507648
0,336651562502543
0,327212899632837
0,331997539098428
0,328727403595799
0,328299473730883
0,318685308534833
0,31911556399899
0,314927099507662
0,318740693681055
0,309662247326069
0,309479747317647
0,308143920578762
0,312508123998478
0,306395559918771
0,302921692532823
0,310959466890647
0,319370732791924
0,310615528546754
0,306040282210428
0,30405797988322
0,299265218479189
0,295114828413692
0,302600943348199
0,297485524344137
0,296059483939985
0,301229975289893
0,309182839848004
0,294412030306236
0,297275765362053
0,292460470644872
0,294391479038474
0,292618841182505
0,298813542888434
0,294010275162731
0,297677883527118
0,299186585929579
0,302856674196923
0,30191378296395
0,293876794670312
0,291754502351873
0,297468920254026
0,29182920727173
0,299685860773998
0,297334735622777
0,306299905382966
0,299169396189615
0,305993733129458
0,302915669635648
0,301936783942262
0,2994997399374
0,312374011187336
0,304893140040492
0,314517343141786
0,310369444517666
0,324335673439455
0,313777719771515
0,322032885185216
0,32162794094445
0,325565388151026
0,328660982768837
0,32746951341306
0,339343992414492
0,339137080745723
0,332138103005113
0,345470025788292
0,33626782556632
0,348262513390804
0,343849235773802
0,348610522285403
0,345927872596814
0,355191975311309
0,357633579383926
0,362127790607717
0,357984119984373
0,364307774696481
0,365095139445134
0,372722915159625
0,37054927532829
0,37866617758737
0,374212730128455
0,378682313047145
0,374976818476481
0,387336273046219
0,378451703323452
0,393189554893505
0,395258208449919
0,401362253525538
0,389411543694875
0,411494107110486
0,41282610579113
0,416558530323442
0,419687637655509
0,421358534471712
0,423100716535267
0,436785257938159
0,428603294728136
0,433331326168221
0,437062817695605
0,447351579158357
0,445440904387851
0,450512761881375
0,446425884081667
0,448885007580905
0,453595022953955
0,453384225097461
0,454666843077501
0,463010211738016
0,455750096721995
0,466362496612314
0,471284584687065
0,468949135880284
0,456061457064404
0,468281690999322
0,468079329459125
0,472079474744229
0,462593755217769
0,469103136243671
0,46184062711107
0,476918785440525
0,462559135473774
0,462640654199748
0,459867217472653
0,467213735963951
0,471853176971353
0,459896134555108
0,454665056579976
0,474953056541078
0,456674400855591
0,461949287110605
0,460024193808389
0,462430252358253
0,459091534434593
0,461727639392189
0,459311926072938
0,46713119709126
0,46202003231597
0,46476017273673
0,465785245953949
0,474818272018337
0,460719868741238
0,46772826925655
0,471127920899346
0,464848148732723
0,465189195109194
0,475133380794691
0,46394132697442
0,475945877081272
0,46909970632055
0,478605452214751
0,475907649448209
0,46675703281266
0,462502700098951
0,475395299838277
0,464706260208473
0,463138722856766
0,466765370397765
0,464350307051651
0,459850708705865
0,470682583598058
0,461939526428919
0,463128311570809
0,462393193174516
0,462795651457972
0,452448622871205
0,462165420053334
0,454868056383091
0,455195708615297
0,454590042557509
0,450461083210454
0,436966596029825
0,448278336464617
0,440947770589571
0,431472376891883
0,433718255595155
0,43846880849753
0,419846522246801
0,413746191552105
0,416114547676726
0,417573801760481
0,412282682367152
0,414600064014274
0,406597158225373
0,40200895563672
0,393665652863513
0,400263243942033
0,391149544109236
0,384256485651008
0,378862421106296
0,386282002837161
0,374591362634843
0,370212502109162
0,373034739585228
0,368544029227945
0,357038905297081
0,362339704749496
0,3579328133052
0,34490516656297
0,351089325276692
0,352484632306274
0,337659508347701
0,34340499994943
0,339728765772057
0,344098811501676
0,33225037661521
0,324890126007763
0,327026620148667
0,328520015082072
0,317956619512206
0,321872150962609
0,32212934518152
0,318651327228729
0,310516676411743
0,304384777818331
0,305228723671431
0,312397242228186
0,306367226096023
0,300341106673675
0,296568724737703
0,305074434131169
0,298618921363441
0,296013090883362
0,293766947812206
0,289879410249715
0,294182993809554
0,292889182317818
0,283332634505652
0,289949413858215
0,287394094272658
0,28195426526237
0,278427776603199
0,276916625607976
0,272709282143664
0,275983428333572
0,273257393242219
0,273875344002882
0,269906816316545
0,271711901353803
0,272730874163338
0,272201205844989
0,267474577565305
0,269423316415115
0,266580422458665
0,265212997374146
0,265582743488852
0,266339777551335
0,262054265932378
0,262968909303203
0,25879315339516
0,258412474210089
0,259391516263101
0,25838746726391
0,252385288875303
0,251913754261966
0,254446921362527
0,254189060842051
0,251092612776763
0,249123397579182
0,244396341059633
0,250330283778716
0,248973199558955
0,246161642718256
0,24459212443461
0,243079528647343
0,239013523206144
0,241323524050215
0,239749322792177
0,236516435943769
0,235846854579654
0,241864262172222
0,23652424277678
0,237707021590577
0,235776093781592
0,238117534656402
0,236531309209049
0,236674678400632
0,238720916285652
0,234822881401201
0,231625956462213
0,232450936450612
0,225670037987828
0,229145461475852
0,222446517384265
0,229067659409371
0,227015172605793
0,227639146795328
0,226881147047768
0,224389321306854
0,223122381296668
0,226052455390353
0,220166345530424
0,225177984576598
0,226017787880758
0,221319250838845
0,221984709765131
0,224170909607568
0,222715446432299
0,221935409569941
0,217518142048515
0,216427585296602
0,218492800376601
0,217587220151756
0,215513791314602
0,220586497584249
0,219393639716113
0,214453067979
0,211789163995345
0,217588735593916
0,214296308505213
0,211063998925183
0,212767418087532
0,215847940240836
0,215435457434373
0,214735114610663
0,211419600869681
0,210042688660046
0,211630890042269
0,209837669763666
0,209507970442739
0,212275271130464
0,205845063396771
0,204703879235061
0,209473118451106
0,210711752250455
0,209640349141718
0,212015737489704
0,206898650377714
0,208313474813904
0,208106938395639
0,205117780133117
0,205251555614205
0,204674374413758
0,200520982470296
0,207096651713531
0,203636642951735
0,204223580027861
0,203190801689544
0,199094466370952
0,201740100343169
0,200364544737311
0,197634848637028
0,204054698205403
0,200233626043497
0,198246914570651
0,200054836080038
0,201340435380738
0,201228055461431
0,201846618994857
0,197692327093651
0,197539545376047
0,196895023175336
0,196927749731583
0,196397222026061
0,194306743563302
0,193009701744374
0,189787657211031
0,193209383853724
0,197157254803405
0,193902939746092
0,190977510553204
0,192030645086492
0,193230773611803
0,193291824186642
0,194654492591316
0,185951890002569
0,185236893965801
0,190348960032868
0,190288988536005
0,18551166905635
0,184278847913209
0,185823772526923
0,187468426226262
0,187028281554183
0,182880325069387
0,184633203808108
0,184846538266329
0,181103190443834
0,185007672752332
0,180966284638566
0,178306727225032
0,179704404025015
0,182711826311878
0,177698388557952
0,17852692079418
0,179361651714062
0,177110541369201
0,174863234398103
0,177561031343446
0,172147496690326
0,173572259623328
0,175918049310458
0,172366034498139
0,171348124781924
0,17225284063387
0,17295192016004
0,17074198677538
0,168139580909293
0,170544857867317
0,166663577705472
0,166643628406948
0,170088435079705
0,166919592627883
0,166483718525754
0,16588841368428
0,1621402689231
0,161908268350235
0,162524967924827
0,162269315018357
0,159458468584894
0,159196582093798
0,159866831573962
0,159805050656638
0,158669161828574
0,161029434915546
0,159015015922777
0,159384771089466
0,155289150138767
0,155011732132818
0,152158527436027
0,153966006733636
0,152469923703283
0,151752034425694
0,152405158724188
0,150553219304223
0,147329353063455
0,146886521222709
0,145378668937539
0,146569132076712
0,150520396526849
0,148346997345673
0,145183129257916
0,14666121589999
0,145296373023736
0,145108015467333
0,141482900851536
0,142453376871755
0,140877368549972
0,138658214636247
0,141127228581731
0,142893957614313
0,140074039626476
0,140901368608697
0,141862608621001
0,14143661951222
0,139538162334446
0,139390144800291
0,138258629529901
0,136277201312969
0,133153621804906
0,134631583895259
0,13460574629277
0,132261145274431
0,129644775456235
0,133068540407717
0,131977246739855
0,130686565991104
0,129164548862873
0,129045346472928
0,130956967647414
0,12760853355639
0,130139631043689
0,131894060370693
0,12530949312828
0,123665219724728
0,127663054608758
0,12530368686853
0,127088706546262
0,126037110337024
0,124374686190947
0,123905958869715
0,124410551018027
0,123272890072295
0,121900857541624
0,125517657793039
0,124675593756048
0,121758615931402
0,119140479800916
0,122600255878739
0,121033554102625
0,121005702515758
0,120971177383111
0,121221227351529
0,118318077225359
0,118618710706417
0,116034531893087
0,115365783933514
0,119254055869983
0,117355867585459
0,115111318842935
0,119710891654513
0,116985093583827
0,116706491697829
0,115943406677193
0,114353238626675
0,11210171289214
0,111918238576014
0,115790176554304
0,114543324590709
0,112585534780766
0,115058849036017
0,113153735327514
0,113397097075847
0,114967592533039
0,11156393042105
0,111174860325989
0,110521743951351
0,110306592596875
0,110804827049861
0,109598167940195
0,109979804730538
0,112557883875221
0,109912869051004
0,107135841342137
0,110654686367289
0,109135915931302
0,109590071686604
0,112376227011052
0,112732485575844
0,108679109270908
0,109575803727646
0,104683884910324
0,103933458448648
0,108354252322014
0,10717307934371
0,106204948148092
0,107470572190899
0,109104542023622
0,108426040697102
0,104542570961375
0,104490549644815
0,105465740310645
0,106356263154354
0,106402416078751
0,106312866209785
0,104601618254806
0,103250300880811
0,104157087816699
0,103261107058973
0,103036304678928
0,101439509226973
0,1000235397552
0,099052500670109
0,101636771389747
0,10436063736428
0,103535047531481
0,1031037777806
0,102589994443002
0,102260066851373
0,0988955916968469
0,0991898920355782
0,102751640845381
0,100283870661491
0,0980107136520722
0,0996257146263054
0,0977897987930288
0,102774282312045
0,0987428330751263
0,0983054024715387
0,097618532344402
0,100491018753636
0,0995156961884269
0,0959941809485789
0,095962023515669
0,0985276403688818
0,0964997664120195
0,0954462166798275
0,09763788232128
0,0943438926298201
0,0974191914872848
0,0945361279702955
0,0931950272031603
0,0974425130835934
0,0942645654616553
0,0917245776144803
0,0955421085223461
0,0943443090376003
0,0952700360912963
0,0938614347114481
0,0927749380303651
0,094914549742513
0,0946284053979661
0,09105012347507
0,0910668199536484
0,0895239601375673
0,0886752824007318
0,086394316232385
0,0910640925279281
0,0894664789706116
0,0889304312087634
0,0889442451267593
0,090166488188096
0,0877683252761395
0,0858940792463361
0,0853900821966592
0,0886344233805239
0,0872180876831042
0,0846206402909122
0,0873060061761103
0,0842241516298518
0,0835919940641162
0,084773431989457
0,0856582271526358
0,0838423824858096
0,0827839554866722
0,0839097344728295
0,0814570210617925
0,0830049314817983
0,0786654769543723
0,0798789260143791
0,0818716941763453
0,0784272111658026
0,0810683698679429
0,0812568750266675
0,0774763078448032
0,0842218243908044
0,0777078492270784
0,0774770413058414
0,0775208511278088
0,078887200309822
0,0757588063741155
0,0785867032823441
0,0741268756141105
0,0773448917904358
0,0783188107165627
0,0759981598502199
0,0747670421762146
0,0760008624211405
0,0766883140081161
0,0781701434427091
0,0755828561667704
0,0735103025849349
0,0698187985025261
0,073558261220739
0,0721204949652537
0,0708113671725774
0,0696835717021221
0,0710332792902955
0,0718203292944777
0,0728034449363756
0,0737514013969634
0,072458945458139
0,0693185435978707
0,0673526285732105
0,0672213283332931
0,0692092271599451
0,0674072681554587
0,0671016593298477
0,0674133161528472
0,0676409104139891
0,065865810663452
0,0682470645772969
0,0668497837892153
0,0672939142156548
0,066292073801413
0,067803753163089
0,0631134155313859
0,0638103507097524
0,0641583719847195
0,0649471926620732
0,0630161849906872
0,0655166487713974
0,0664182006980913
0,0650538549629492
0,0618666698952837
0,0655069089608653
0,0632720877414707
0,061350370913551
0,0586887551095016
0,0630438205675896
0,0634459686783048
0,0630558500850269
0,0573093917045743
0,0608277990623746
0,0601473500346018
0,0598855981361957
0,0588837517128535
0,0599654790225062
0,060165302132894
0,0606756718516496
0,0609964996068826
0,0605918107230484
0,0573952333689889
0,0588951989049547
0,0580071849013104
0,0569995572718284
0,0585885166232274
0,0585077525227777
0,0573228718475122
0,0583339744615874
0,054270382734602
0,0604814782116831
0,0553587880527508
0,0566711125576727
0,0541906491858496
0,0587526346038844
0,0557325418851295
0,0584120040395718
0,0554132428954416
0,0559506381790107
0,0526378858294889
0,0540409836163995
0,0501927964296774
0,0553686828637966
0,0513508200599405
0,052390251823095
0,0519991261250484
0,0540850336420051
0,0550546029531866
0,0530857161130108
0,0521951242230801
0,049387737779923
0,049604396425732
0,0520568956159622
0,053809817674512
0,0512916989765809
0,0470197824039424
0,0541694705342494
0,0466495646634718
0,0485796313473358
0,0470727800830319
0,0515597469308708
0,0484861283152127
0,0550557148787626
0,0485965922510201
0,0501702474412737
0,0456057488631797
0,0511953756725267
0,0454572327024833
0,0534546015344613
0,0455686103021591
0,054514880958025
0,0462262480482978
0,0512074091961582
0,0460923619727017
0,0564064496641532
0,045573209208767
0,0501363995016537
0,0444839745747959
0,0553935520891953
0,0441012158654734
0,0496442917421133
0,0469009998830639
0,0528022360153132
0,0461448636644846
0,0510728987228664
0,0449388320905525
0,0479457036825013
0,0449188550175874
0,0463115002881225
0,0451564493897486
0,0473326034976315
0,0507688528588504
0,0474273125531097
0,0439451022226158
0,0427559466307988
0,0480545200806339
0,045083088420652
0,0508990248690344
0,0413234054778735
0,0522146580705632
0,0429322846933444
0,0524999411531658
0,0365247949487701
0,0532049387790127
0,0351202653302563
0,0561123753485375
0,0360143740535372
0,0551843676213717
0,0308726201551346
0,0516708568657082
0,0388108285394148
0,0507764391179498
0,0367366208539813
0,0500291629556072
0,0434776448423221
0,0447430538952045
0,0458858887348056
0,0440138959618708
0,0428884177705441
0,0449718179771979
0,0445967876953043
0,0451089192871898
0,0426511907927468
0,0457614512112269
0,0419714042977445
0,0474028229522597
0,0444024031453195
0,0453034861752362
0,0435821024196267
0,0434790265877282
0,046603026635633
0,0445824217426464
0,042232965737348
0,045220183269194
0,0394605474999654
0,0448999057150146
0,0413822486709865
0,0442833121025344
0,0444395026854323
0,0441830984745522
0,0436408541165041
0,0443420838938264
0,0420736217724355
0,0449828722071474
0,0454978417670571
0,0436870946898703
0,0423243157130346
0,0444793027761548
0,0424794023476499
0,0445928147878823
0,0428599331074525
0,0430620218812576
0,0389772890022876
0,0450853915037745
0,0423687020833366
0,0434557471299892
0,0421440363090706
0,0441702632290681
0,0413325735781178
0,0430302309940827
0,044569061599612
0,0435460348053843
0,0433213970556352
0,0431164040807517
0,0426001116226092
0,0404876649430506
0,0428679761950303
0,0426658901167998
0,0406417123026673
0,0432436461332945
0,0451700284661729
0,042893791413036
0,0420836468491432
0,0440371180742283
0,0421714051473325
0,0409955536366033
0,0425216560187118
0,043074277715478
0,0404546562744415
0,0423695083945008
0,0422095549039488
0,0428932873259852
0,0395094967852662
0,0453800749844153
0,040757806118039
0,0428523866914811
0,0427835609231366
0,0428024602335785
0,0388510306836463
0,0413261482278874
0,0429453217930369
0,0433902795339872
0,0428161723047909
0,0424181838449287
0,0409792819014283
0,0416169724656428
0,0415151684280475
0,0423553838212696
0,0421896837922215
0,0432473645462497
0,0415105852273087
0,040733141340362
0,0425384811932583
0,0400874578807945
0,0426658895640119
0,04266221319002
0,041978595376643
0,043351702532189
0,0402479073110995
0,0431666257891195
0,0431770058056235
0,0421346504376289
0,0394201285891447
0,043514504387726
0,0421263453481816
0,0430237141961481
0,041804929575283
0,0410975210167175
0,0405850897479
0,0432758268042376
0,0437645385921724
0,0424844650585652
0,0418279693236738
0,0417420005869623
0,041458795041181
0,0413061551374476
0,0436706501110678
0,0445096307457991
0,0421928188639632
0,0424045267146128
0,04171785415794
0,0450463645042814
0,0425634714209208
0,0433057998856171
0,0421273437429802
0,0423460652809379
0,0444115979181335
0,0417160998765207
0,0437404046928307
0,0436388305342597
0,0432584060138491
0,0429009124422869
0,0443391693139669
0,0441913863455537
0,0441572707160469
0,0417281968363986
0,0420761123984663
0,0430575329151301
0,0408046568775127
0,0442323186439465
0,045013590602401
0,0435172727001148
0,0423330546002475
0,0413130896098012
0,0416829805575313
0,0429810651646014
0,0452598308107598
0,0430526086447004
0,0436151262504404
0,043973679863532
0,0416411412811852
0,046069664160716
0,0455339853944231
0,0459539328527015
0,0411605024242906
0,0431182685694449
0,0457414406999764
0,0439806408984417
0,0421903496446907
0,0434335558450539
0,0447897007377429
0,046214259099776
0,0464199409815371
0,0439929894907259
0,0438741615541202
0,0442901467288067
0,0469182522072692
0,0447398478563286
0,0441358440564663
0,0439075001876494
0,046328323713707
0,0433724436357206
0,0449292885571412
0,0456013234612999
0,044597211655817
0,045015181789728
0,0448506790410399
0,0460979298823965
0,0438192783350019
0,0469878095662665
0,0444317669510684
0,0422333658657115
0,0428314530217902
0,0450247299057669
0,044678294384008
0,0448955829523074
0,0420215218066179
0,0448346432080274
0,044252016979174
0,0452432179177384
0,0442985990291653
0,0427605550804808
0,0428213759458721
0,0409581081348261
0,0427124491608191
0,0426163866965059
0,0416897014029749
0,0428507737197773
0,0435278745574356
0,041878437481976
0,0413277367865677
0,0419434950898365
0,0441675800120102
0,0420952570277424
0,0430195507397991
0,0406409419167714
0,042966775851087
0,041250045166807
0,0434356982724755
0,0430017931003227
0,0423640364571667
0,0406845591924992
0,0419639614223174
0,0421065054380971
0,0391468034767929
0,0413578684355293
0,0431877662430236
0,0389206839965914
0,0411648372844959
0,0416464669731399
0,0403289866064273
0,0399949067684194
0,0393509795330602
0,0401747487974071
0,0394227480593
0,0405187087773602
0,0408397213156966
0,041576102864503
0,0391175193726889
0,0405804788527442
0,0411735401236996
0,0415802134313995
0,0380472143860366
0,0421327795553306
0,0422329342379882
0,0398017794801725
0,0383863811057667
0,0407921036901942
0,0397233745836664
0,0410609156398389
0,0402331348301118
0,0387392203623831
0,0393759830352689
0,0403526015360515
0,040539123449173
0,0395591952162586
0,038877949729951
0,0405254685422363
0,0395294168238512
0,0398774479705294
0,0385563195046148
0,0379914921150032
0,0401113184191721
0,0404541468787874
0,0404216149394314
0,0404487321293353
0,0383311626720744
0,0426522819276257
0,0401215055659223
0,0403899581690823
0,037875609108874
0,0401101011855741
0,0423726554610557
0,040930745599548
0,0409329837416346
0,0409517443284913
0,0412951601768547
0,0395704850880709
0,0393559128632714
0,0393068263879526
0,040411928734909
0,038104748644839
0,0402404960675804
0,0396137551369918
0,0398301438058635
0,039832094499701
0,0401250299319909
0,0389039057990533
0,0407072195332796
0,0392593244870721
0,0407396181466251
0,0404727120941258
0,0375518241563572
0,0408637718876295
0,0381269550447452
0,0389084745210314
0,0388844189631426
0,0385078639157358
0,0362759320978501
0,0406276325516115
0,0387474945633182
0,0378653803883222
0,0386194572255216
0,0415888084178287
0,037280064663891
0,0384719320430138
0,0406028264007952
0,0381185516199927
0,0391029834339948
0,0376771896889733
0,0373196108509956
0,0375674089584769
0,0380833900369843
0,0371013694991344
0,0379193643317265
0,0365714026521407
0,037751661563203
0,0372745512268706
0,0359042563589263
0,0360823258435755
0,0355506984233632
0,0364185188122686
0,0377958028454018
0,0396133979278714
0,0384605972637198
0,035143201685515
0,0382165800725294
0,0352304825311726
0,0372791156593059
0,0337823839021954
0,0367529493497832
0,03451091184061
0,0364662656771856
0,0336118539428068
0,0359690420735465
0,0351307215073592
0,0379477513956155
0,035189456892803
0,0335383578842274
0,0346273567095632
0,0343311767174923
0,034062045055923
0,0345066563046888
0,035779809294216
0,0331944800762938
0,0344803585678735
0,0348253812295066
0,0339621817239169
0,0345884374028107
0,0338921676219529
0,0367327391055588
0,0324709506405492
0,0354068415819313
0,0308351569292618
0,0324793162910816
0,0334459297443348
0,0357678315308657
0,0353161449530601
0,0341659151949953
0,0334287778302872
0,033495128226819
0,0339883801426566
0,0348081880988521
0,0326760621221133
0,0339301971456474
0,0352852470632962
0,0324577730272594
0,0330537984050257
0,0321411774244612
0,0333163626500229
0,0351103239736609
0,0329052250466306
0,0322707350521258
0,0331814641997888
0,0342732477795963
0,0325720355935499
0,0317968822979939
0,032479533462502
0,030840615725912
0,0343415490459338
0,0313475154993472
0,0343697432231707
0,0320797989121375
0,0336525188664949
0,0307411019132552
0,0339814190599105
0,0312254035989948
0,032489969038009
0,031399135291417
0,0344790582471236
0,0332833377208164
0,0321151818292931
0,0325821236343638
0,0331713045951366
0,0319091778964452
0,0313830379860641
0,0307455760087229
0,0317555609728315
0,0302248818341312
0,030230383964634
0,0311710197574971
0,0329421457105298
0,0301227796907274
0,0338227894887809
0,029555769993401
0,0352507704687679
0,0313103197661942
0,0294560101959811
0,0312759712949988
0,029526557355329
0,0298359351985879
0,03049124060863
0,0312021545117429
0,0283486265708422
0,0305941615474137
0,0305212214276506
0,0319878908133419
0,0302625099418698
0,0324661896672546
0,0294189898159579
0,0328431364665005
0,032417517334947
0,0318328380735934
0,0303380222310634
0,0339465330612682
0,0305018198301208
0,0331896304206818
0,0296788766950842
0,0313180479315593
0,0303124350723555
0,0336597854228994
0,0300355581954904
0,0324576267366475
0,0270584616368998
0,0340545953560016
0,0257207251411653
0,0330146780027773
0,0306499981737716
0,0325532884644536
0,030402098768922
0,031968581730385
0,0300380311152365
0,0303467428768435
0,0311587505478421
0,0289610869770704
0,0310149358420689
0,0302166191727697
0,0302652049231135
0,0304914437189752
0,0304197226264403
0,0327621672901909
0,0303563039345086
0,0288116270534159
0,0313221577812669
0,0306963884406244
0,0299691941470947
0,0293574068083964
0,0314879307002565
0,0332238655484154
0,0314474478139237
0,0314510709173002
0,0312143937321579
0,0332234419077635
0,0317327038029207
0,0275828150835254
0,0333787206414456
0,0307773936237326
0,0324481255758646
0,0297338783854011
0,031054427538805
0,0295092199397833
0,0313845681608485
0,0307037734423968
0,0313255728198301
0,0329436030684245
0,0312235367838893
0,0308115114579132
0,0320199066124161
0,0313980640521406
0,0313152314970667
0,0316373321514522
0,0302098744928822
0,0319053532371814
0,0301929300439094
0,0353133344574863
0,0300788764964382
0,0305537587161466
0,0326645745915777
0,0311093604352521
0,0321099382724544
0,0314571811569901
0,031904394993708
0,0307619412829306
0,0326763079759895
0,0309045911005974
0,0326098196775542
0,0304009549652556
0,0323052868579065
0,0293744889919359
0,0329836159575896
0,0303946367064369
0,0326820996505215
0,0291662962802678
0,0322784447297744
0,0305216341198866
0,0336537407083776
0,0290664183365506
0,0322954036701392
0,0288815443478803
0,0341223031042276
0,0275800741577334
0,0367787383121125
0,0324555293592763
0,0312212424997587
0,0340920472087489
0,0309239599344138
0,0316353662968912
0,0320159591657876
0,03492724688058
0,0349341717186318
0,0307274105851496
0,0320166814799677
0,0329026595433485
0,0328549209504049
0,0330527714628761
0,03117898694866
0,0320680515136725
0,0322617744628498
0,0289852273714883
0,0337448261780035
0,0317213028676583
0,0348458656621757
0,0344993076762615
0,0281676629752883
0,0353475634087084
0,0318256560325145
0,0336180453793466
0,0345728586801026
0,0344036397194579
0,0324215832679103
0,0335549251976011
0,0344421630535004
0,0350021646944206
0,032251393657999
0,0339817971317671
0,0357332571443783
0,0357275518290108
0,0325118658683949
0,0325959309005616
0,0337955317255869
0,0364896900775399
0,0351103349824823
0,0360661157603898
0,0363325115369695
0,0347939839795189
0,0345268863116655
0,0362735163329729
0,0359647845748504
0,0348895335896463
0,0372864505183661
0,0369751367734528
0,0363097060261275
0,0360318231908716
0,0346622553332238
0,0366797351834074
0,0376428949351929
0,0392404084170438
0,0407512135565934
0,0307973106870178
0,0411049163939725
0,0317002939699449
0,0382630950517436
0,0369810153125775
0,0436903760793584
0,0365012402950926
0,0420199159282594
0,0346420739176152
0,0407488681411372
0,036695496753099
0,0418962529401495
0,0396953907160616
0,039906963207725
0,0379434510056378
0,0407095866048037
0,0391679187561247
0,0393043880878081
0,0377636512454713
0,0397253476040801
0,0508854536291356
0,0389336186791084
0,0393749506563833
0,0419588530749282
0,0402964803358124
0,0481790190625603
0,0394476929202156
0,044676129852129
0,0416277026951464
0,043370821434557
0,0427745493845053
0,0434032351700315
0,0425677695187379
0,0435728019028105
0,0438349622954442
0,0458511570791658
0,0433085321170907
0,0496165145121076
0,0427892222322458
0,0442983702478006
0,0446388048211533
0,050238877757962
0,0439787858328618
0,0474788006596454
0,0460289005057138
0,0485814328321409
0,0510928087665799
0,0472706448555831
0,0529135466541202
0,0489442742664437
0,053714467044828
0,0524659283072315
0,0552631216479294
0,0519244369666219
0,056604489982386
0,0545429110016133
0,0623843098742478
0,0549463207424532
0,061255217293607
0,0588764613224656
0,0681290860749932
0,056491745285344
0,0660685507183604
0,0558717644591907
0,0646719798446832
0,0625050281020558
0,0690057903100696
0,0627455303600006
0,0659810773168088
0,0672266988571497
0,0671727601566412
0,0687544134100894
0,0691731198962501
0,0736596871568304
0,0730860767436631
0,0696637533656324
0,0746247144468472
0,0733995086409881
0,0818672083997511
0,0774155150918817
0,0831174787572266
0,0749294784921057
0,0861773890039962
0,0773858245771894
0,0797152486853901
0,084262884240676
0,0843964486830254
0,0853778768092733
0,0842799207362203
0,0867610470841331
0,0909539305960446
0,094827635326548
0,0942759556048589
0,0902683270760257
0,0976970578465325
0,0936079963774318
0,106170481548609
0,0988951645417072
0,142780016589126
0,105731214774054
0,114146868906288
0,119169654091198
0,118513254643706
0,126282100724707
0,129360634627759
0,134449930350174
0,140157615893963
0,142876336412539
0,147451957694678
0,152965619300534
0,161114184000872
0,164379014299797
0,168750418669428
0,172440468748364
0,185534321672956
0,174747364228204
0,183027130073988
0,200392738364608
0,200217880897499
0,21037310719174
0,216706398954979
0,214374431106566
0,224370527165789
0,233826617547369
0,227935231589551
0,252415853241463
0,244847628555882
0,257462203042602
0,257828234030102
0,275444038695495
0,27204089891045
0,283446180787248
0,289578957070665
0,286823603987816
0,298844368426179
0,298323359599759
0,309342561626854
0,307791714419165
0,324916359506333
0,325280173617338
0,324454200681909
0,328112351285537
0,329871668370711
0,331559853682652
0,332532526790973
0,341439691316868
0,343094067027019
0,354485488464458
0,384986747245773
0,368576199086425
0,357507275551247
0,342159958522666
0,350837210672299
0,342802765448029
0,34955018968634
0,343880852059791
0,363084002700719
0,358574499603124
0,344635411363166
0,34972851587201
0,348761156168772
0,347046757449722
0,345634889935852
0,348684554595305
0,354559269451271
0,359587291475749
0,348529345409568
0,344313805033835
0,361353472081577
0,340093062860682
0,345465415066968
0,345684686003511
0,350777904985241
0,346297227484606
0,347275697913031
0,33897853137906
0,344856197510136
0,33395711907378
0,338706389489209
0,338677652933387
0,34261682371237
0,338636312092309
0,333508565530157
0,335641382174091
0,331648584520493
0,324594779087692
0,32890460619003
0,345010243508648
0,344111053212483
0,316961696962047
0,320240692629342
0,319593406589805
0,317996419854304
0,314925878565721
0,314553746859222
0,31662839344086
0,316398596588207
0,313420245959496
0,316537554958143
0,308107658289268
0,314451009961973
0,317914120543661
0,309884564231392
0,307374863919157
0,312653023801884
0,312180511599955
0,308597461967532
0,306801075756336
0,307865993902304
0,309679253081272
0,306560852946709
0,30582179110342
0,308277014659217
0,30585992707805
0,307593468482576
0,305883402902963
0,304732630039114
0,3058571262163
0,30163512602935
0,302406535730419
0,305193068660791
0,303656978652127
0,303964928773299
0,304861649421012
0,30144380677277
0,29962203364116
0,296326411003244
0,300259653388497
0,294978404012141
0,293874563838093
0,293803950415906
0,307233727173129
0,288185327249568
0,282626782683967
0,287445319415013
0,279384047398896
0,281407482573968
0,279478930519735
0,288647052644358
0,285454885446094
0,274331665153322
0,269643740371142
0,268148696299819
0,269171451396915
0,268068351129252
0,262129549411895
0,264673674894963
0,260713059197292
0,257839725100214
0,281233224017959
0,272210061942743
0,271662466361904
0,250629905311471
0,252651727978173
0,247359925321068
0,261953437472395
0,250841198294101
0,24856952631595
0,249833161365864
0,249506687278999
0,253370551651065
0,243128745682544
0,246380801043239
0,247377229774248
0,243356912131729
0,249546502310087
0,240304206660218
0,238199607131892
0,249259154810711
0,234589473616066
0,262757720179302
0,261555901957541
0,235257072611413
0,235514212506116
0,230788392971674
0,229143019183546
0,228785991516596
0,232166241073834
0,227821392266958
0,223599918140644
0,224412509245473
0,218464817355902
0,220443885257418
0,218470960362933
0,224344909377886
0,21169195966895
0,213007259815175
0,214539633471581
0,202271866697844
0,217011019591252
0,213267758325833
0,211655231975128
0,208365263222956
0,207214227514031
0,209337098711413
0,214936979560526
0,199219451572804
0,197788086013831
0,198374967660444
0,196632643325044
0,193900055591261
0,190867079065724
0,186810744486249
0,196794562541999
0,196371142826271
0,197561959991923
0,193054160452323
0,185629121933098
0,180667770635229
0,184411211234219
0,183801622624574
0,183736648381903
0,183620574764604
0,187136927345793
0,181726818919967
0,189802730524349
0,182118265118769
0,19726510852886
0,1874970636154
0,188128555430705
0,189934520576713
0,191275242860603
0,195193564355005
0,202801327101189
0,195618552826166
0,204212691236368
0,199541563012634
0,209249942401803
0,20978498376775
0,209946387272239
0,213906829479214
0,221567936369036
0,220176750869339
0,225562659603034
0,232096780581953
0,235142286263222
0,237867693577378
0,249886965810719
0,246168046533424
0,263521234349832
0,264346707659676
0,268224330699019
0,283025728294763
0,270932686078081
0,291017004403211
0,292013026664199
0,300433189627988
0,305312676189802
0,30649981234527
0,312567590345455
0,316198772029088
0,323472342329974
0,32501013702984
0,329988460606766
0,334192516038758
0,340860279740754
0,342933996464567
0,345063145248583
0,358671024232386
0,361715865791216
0,365163805145664
0,356275083310877
0,362117986061218
0,361458369432684
0,363514898801225
0,375666751542778
0,370030742714374
0,375278991694832
0,370934590256528
0,38419089893819
0,387792946004436
0,381943217662252
0,385269639805068
0,39271890278603
0,393850533732549
0,395727357350363
0,398065124187114
0,399700830635636
0,403087128432367
0,406282074952867
0,412644259171209
0,435444615833661
0,422235564682523
0,417603353265486
0,428726559037129
0,424639200473431
0,433193734555151
0,431448332260374
0,437402414286729
0,44558140561437
0,441628731649949
0,448747359425554
0,451314703815632
0,455626900897937
0,458442978372987
0,468337469753799
0,458984870846956
0,461006192107944
0,468574622927493
0,477395940876828
0,487815630551731
0,475197848091554
0,475423606655325
0,477444423653615
0,48817357379248
0,48778469570876
0,485431715021305
0,49296258824612
0,493403786745083
0,488029038638444
0,492374676018144
0,498210020525159
0,496267233058246
0,503641121896243
0,492012152100566
0,507511108864169
0,494220241003247
0,493411712393102
0,495138954966656
0,495157806402768
0,495253458353014
0,499020946195719
0,501512127932031
0,495700709416119
0,492393533663277
0,485173391776117
0,504610355804329
0,500468318686674
0,49507751859702
0,49535610555343
0,494521852103653
0,496776093681107
0,499239749357619
0,49361371006523
0,497335074173743
0,508833784003653
0,504180531323181
0,503189077123681
0,501338900079223
0,508907026086639
0,50602298148395
0,51388589961188
0,51122079351263
0,515490650846058
0,518358145456854
0,516722680077832
0,514339077239695
0,519591847838855
0,51817641204433
0,512847274339681
0,510956926679464
0,51209635359526
0,508221934014876
0,507810886975953
0,505945028354475
0,500686543675989
0,497698616285118
0,493369453535229
0,486816060822609
0,489180778451908
0,488057809622716
0,482203299522199
0,467560389290139
0,474761344776256
0,466241945643064
0,466849529774484
0,461111654892129
0,46080143143557
0,456085150358507
0,454043500952888
0,445769365525239
0,447663997944038
0,446269416858014
0,444441574214525
0,443417583639605
0,443135622910039
0,438897222014805
0,443992447763911
0,43865593687097
0,434756719235672
0,434602896662672
0,435949988562294
0,43547615066446
0,431953911932118
0,437216485451395
0,430203299314077
0,433636010247672
0,437817572225102
0,431814908513036
0,44016267891209
0,430803783048624
0,428450044453485
0,433276602708642
0,425682330985539
0,430171081550822
0,427805827567723
0,426825549592956
0,431585130702375
0,427614095574137
0,427759016207627
0,429826802759226
0,427807914107908
0,42727507514401
0,425768279840325
0,426391687980594
0,428202129236337
0,423910847965248
0,42768376178672
0,425217071900422
0,430116852800039
0,424219497227228
0,428744001692688
0,423453585371126
0,429636437993086
0,427455251440366
0,42644409619087
0,423107731016161
0,424470767219099
0,422110454330611
0,427840431463018
0,425271852039809
0,425073042401458
0,420865798003482
0,423597387135102
0,422850780507112
0,417279853096673
0,417271764570193
0,414697177940541
0,409913588724213
0,409225811332599
0,407576557921673
0,401860146324164
0,398413553847976
0,391218264410357
0,390116705794762
0,388993904770686
0,381401366955698
0,382472617157422
0,381263053336714
0,372993095140297
0,371082406734067
0,371198424030083
0,366742051644662
0,366468013273853
0,365608057251842
0,366731291942903
0,364249434640652
0,367367945168701
0,363020642005664
0,363945331869281
0,360538041063011
0,363667444049827
0,362501462761936
0,371161754051916
0,364423136952553
0,368334204996953
0,365514601968662
0,370076777829465
0,36888802044743
0,373409065989381
0,372921550982465
0,375654371821972
0,374476561959893
0,379021952093274
0,381375923916351
0,375436512350676
0,382488777383279
0,384091996748971
0,384980988378658
0,385266516364634
0,390491993282629
0,391400272627355
0,385958802368751
0,386906575867077
0,389591057924078
0,389262588165864
0,388248267203257
0,390923345226506
0,388631117151488
0,391356338083238
0,385564025985034
0,386183559193479
0,381809777834692
0,385098133378233
0,384310247098477
0,384885539755562
0,381005289488135
0,383083613559241
0,383470869692838
0,385176010523646
0,37958447698947
0,378516488399382
0,37905986034936
0,37851051825297
0,374949038793757
0,372388677768979
0,37352528020799
0,372085544204709
0,372906643077489
0,371615786345487
0,368134785421055
0,370544857218487
0,366859888779695
0,369496512137201
0,368025822397588
0,366700870068732
0,364017111615502
0,369316567462213
0,364987765937452
0,360509429043059
0,360174089884937
0,361454219129754
0,357896022098202
0,35938460028804
0,355466688888462
0,354363485001274
0,351498662962671
0,351114059108264
0,346262349340367
0,349566076558324
0,339375597179339
0,339184140787798
0,33945875729647
0,33609167214267
0,332927598843627
0,330847471095341
0,330231765155803
0,32620171480218
0,326871070521702
0,323524430597788
0,323297666065191
0,32433208478105
0,321734060028331
0,320109415517201
0,321917866480146
0,317942078146168
0,31650858278521
0,315584264187321
0,316111440389352
0,313963508163958
0,309197079179351
0,310522901587416
0,304825153592252
0,303580489882074
0,300120144062718
0,296272029609039
0,293923287279774
0,28833478539425
0,289873786456224
0,287397980722125
0,286817714057191
0,288192783187954
0,287218149957298
0,294476606154089
0,296891569962571
0,307245800365778
0,312972315351156
0,321740961501033
0,331306774630975
0,346070417885489
0,357264808837997
0,368980186152379
0,381582449206627
0,395488533005527
0,410439218800087
0,43119449247586
0,441603185545395
0,458999140021624
0,470615853330241
0,487098807362693
0,49660406502102
0,512590323785753
0,524682918796281
0,535512012121109
0,551445166078108
0,562138424270996
0,573906488303585
0,58397589597883
0,593628519891498
0,606424920943195
0,610590102859713
0,622955486973873
0,62783695513524
0,637911970507331
0,639636759496632
0,651718643074419
0,655843904815053
0,661049491320048
0,6610368305706
0,666879287901248
0,672095813262447
0,673087133982352
0,674722784744357
0,677382616468161
0,677271731919207
0,677573062020209
0,683053480234093
0,684909980472155
0,687015115674972
0,691224408145093
0,684402828423458
0,689340504639066
0,695904071176595
0,698751059633301
0,710487403651104
0,709889368303074
0,710390416554596
0,714672477894885
0,728900948767687
0,727456132823458
0,734918801794421
0,738571361823291
0,743611267941982
0,757902624956332
0,766398981441598
0,776124875978545
0,779755808400845
0,801400516587867
0,807025307259024
0,817406114277757
0,833103268637141
0,834840691620764
0,852162831167388
0,859627281651583
0,860391832264439
0,875610252548016
0,866334347776695
0,874843789947378
0,868839860202801
0,868394317406795
0,874286985378818
0,87411635228439
0,871689579453258
0,874741909125858
0,874740094633938
0,87308684052426
0,87204625049378
0,866774487221814
0,879761995061372
0,892896740567891
0,903031606459395
0,914128840020639
0,926053963397765
0,935292651919632
0,956281872421164
0,963949482422117
0,978773588496143
0,994806464119465
1,00363837017328
1,02735138680522
1,03959243800084
1,06438961949583
1,07642364072155
1,08620891970892
1,10937530532193
1,11963561250623
1,12155724975861
1,14635184971514
1,16616890505401
1,20154016238699
1,22386365788831
1,23686886301177
1,26479909849402
1,275604687256
1,32402233319182
1,33727556416049
1,38221577025277
1,34227650567564
1,38435907351549
1,38045113382307
1,44114100638381
1,42748352949997
1,42938420452509
1,49613496899708
1,49423490541078
1,4675684644546
1,52519859429449
1,54128426857325
1,48868198066787
1,45950451593374
1,50566133905655
1,52183472417948
1,50831459386748
1,49597427346409
1,52733556796046
1,51002035835734
1,47099110061258
1,55440428344796
1,53061612547302
1,4501539116188
1,506222570879
1,53089049961209
1,56217764133615
1,51163961544849
1,57878951233951
1,58790104344792
1,62043035688255
1,63065283625651
1,57799665230488
1,68220111626443
1,68845244722444
1,69385625931718
1,64940288906304
1,63268064863531
1,75768398050486
1,66066088369216
1,67319922966423
1,66299041342808
1,80813759026379
1,76725964063733
1,72659786437871
1,8382439206844
1,81306038067098
1,7809449112921
1,73740826582067
1,80380187342178
1,91223937565489
1,79692379643965
1,722863499442
1,8148407420222
1,88986038935105
1,80762268593059
1,8351368989492
1,81201027462762
1,73513289163576
1,75451521099713
1,73197737129997
1,72604754852788
1,71461017148434
1,77075196755784
1,76648975696441
1,69368126292963
1,72704204876522
1,63370950245318
1,66539493499191
1,56717516726728
1,49714899842235
1,49653817099102
1,43477602054834
1,41463455536358
1,30908617878662
1,30468532509542
1,25212296819317
1,16438997269271
1,148779881609
1,10715086872303
1,05864491887076
1,03989634081744
1,01457636496985
1,00390059795108
0,975159408890986
0,977512006097295
0,980666495824685
0,961248908800188
0,947951766491378
0,938238870277967
0,940525717109675
0,928188002035002
0,905006440381994
0,902693219745555
0,879639459724535
0,867263652454367
0,854408340274045
0,837517450461224
0,824336084796081
0,816807916725949
0,785719150110339
0,758813373449646
0,737256895834602
0,714567967583959
0,683766181209304
0,666820227595531
0,643760339174229
0,611734490656782
0,586701910978416
0,552070729935526
0,523729195299936
0,497968771252474
0,474063077662759
0,453185214697301
0,431263934183382
0,408528196803737
0,392668150880697
0,37793791067441
0,355812344313005
0,344380354823963
0,332407333413335
0,316790088335701
0,309514293785152
0,298665183226849
0,290868450763414
0,286568136963145
0,280635567142667
0,276728555339973
0,271163175449519
0,271451943454952
0,269568824201231
0,26263610261156
0,265701633256843
0,266655619064759
0,264189459530039
0,262743315419605
0,264475788653989
0,269237606151146
0,267823452677098
0,270823691388978
0,271162082718127
0,27491615669509
0,270210969775955
0,275587625186798
0,270320443986682
0,268563682850439
0,269426281683066
0,263531754387079
0,262849896163167
0,256642425250186
0,25596697247342
0,253929760945923
0,255387851750321
0,250809123751706
0,249878485434365
0,24634560018728
0,251266686834932
0,247435955982859
0,251644427748839
0,250855402648309
0,258187183814012
0,256222210737734
0,262312558036593
0,266223841406876
0,268036454863381
0,267807718358205
0,27205650863724
0,275681808907374
0,277695284505283
0,277517175408711
0,283880185043833
0,284870062968528
0,28773119329708
0,28696190585663
0,284505761702074
0,295424144935553
0,292818370095145
0,296847179770433
0,294383400678785
0,293427865274538
0,295013533775088
0,298576976622804
0,295551339943736
0,300108210755962
0,307636199940426
0,306659484997855
0,309108530721554
0,318284793554718
0,32571775026175
0,335770912805274
0,342857777223242
0,349560168415843
0,357580991072627
0,369065850204583
0,386111708367098
0,390434244006247
0,398654916713544
0,40527247622649
0,407552894802742
0,410344722156679
0,407390295533886
0,400615679158606
0,395221159941502
0,391754589993512
0,380009386103586
0,370242957755066
0,368194451202123
0,359108464414259
0,351050558776005
0,346168205267934
0,342426632936712
0,34655397762881
0,350833813763319
0,345880969416458
0,33837752192594
0,341241795881062
0,348807500998387
0,339526133275788
0,340007030080137
0,337844046250906
0,329380053524292
0,329918938382831
0,328909753768157
0,325890262844466
0,323677859811384
0,31936313768077
0,312070079994158
0,305912834939102
0,306048144374935
0,296110849925527
0,296042625883678
0,296273103448365
0,296772102887379
0,287841441643731
0,286600975720199
0,283078852298185
0,289490030049363
0,282331587091603
0,278776409438259
0,277736901278534
0,277053668430619
0,271547854347125
0,272881369024426
0,268362179475875
0,264282614637635
0,262688381404432
0,255701646009496
0,251530949963251
0,26612394842141
0,255814183481273
0,258704023590175
0,243763343043317
0,237967070889031
0,255256427687252
0,243573715781895
0,238625586817277
0,234918964228492
0,22584189716915
0,239289772630414
0,235452335643712
0,234142554868604
0,22524224970299
0,22531457218661
0,224151957737471
0,218382472347078
0,219524077665046
0,21459449196965
0,213360437436884
0,219150449124185
0,212627222986221
0,220005018942078
0,214591801337421
0,21911331305815
0,213843512882354
0,227250806237853
0,213377253456747
0,229906561141204
0,229382167001676
0,22589213272192
0,217486193342503
0,220435451232954
0,226104304586054
0,226899685141593
0,222927165081518
0,232583271932122
0,232090251257569
0,234625920643148
0,23197839178369
0,22575328312071
0,243426287293637
0,251436276310507
0,250525304854152
0,259512227961664
0,254367606919335
0,258924014674881
0,262935441687865
0,260746886161046
0,281183560035303
0,292660274292594
0,297807710123708
0,295313286301454
0,310907572961734
0,325322287471538
0,315999822615556
0,35182526976671
0,360368686576752
0,368168226361566
0,368426776502345
0,418310049495652
0,392403168390923
0,425019206597158
0,450254161055498
0,447402694154616
0,456063732098138
0,456937458406908
0,470313037736428
0,47960034465432
0,445847593457654
0,443871125329428
0,428195368877123
0,455701010114674
0,464234669269521
0,452113374709406
0,427649614466088
0,441842958575813
0,448622440588604
0,429848196214369
0,415196756109743
0,420439183283546
0,45232005863329
0,429556988028498
0,427621253035081
0,416684326980784
0,41261939689292
0,40329252027433
0,398528309268412
0,387962969669418
0,388849589973842
0,388683267069765
0,373444257937374
0,38664205306755
0,383009031087176
0,380490576812727
0,355750836258633
0,37464389028619
0,35422386883205
0,378318623690125
0,360392916432077
0,362962370290462
0,353822710527941
0,34979325231113
0,33367119564837
0,348618368739017
0,353860535348208
0,348471009136474
0,359358266112467
0,357864190111384
0,337433459949616
0,361064276598124
0,354065931061021
0,344595663813205
0,339009555675932
0,363755549328918
0,339252577776505
0,356071966935387
0,359826783365374
0,362232978868422
0,366852188598668
0,377010116027035
0,355714203666199
0,389713751448693
0,359614639763378
0,375646679915531
0,352140743066036
0,392420866906211
0,381604903449915
0,390619284756623
0,365944984478585
0,360930600642705
0,418655550094909
0,444017580392311
0,399330244063058
0,471060679425902
0,420569732716455
0,414588390504203
0,465150188204947
0,460223927574329
0,461282677911589
0,456413216425372
0,41526744313211
0,476159955377473
0,464509082532684
0,463478458317739
0,473249012407177
0,500049660214563
0,559606148687794
0,547354532030246
0,499740935880606
0,567806802284975
0,60503880829309
0,587161110989215
0,519702936860758
0,539394685955869
0,611677036059097
0,608010002589605
0,476240097101856
0,544292242458135
0,554379566894501
0,574290929589013
0,492828289228629
0,518615826825379
0,473633752827324
0,516958037022281
0,497121488435831
0,57896301044056
0,532118257340948
0,527164664125791
0,568182200176012
0,42161490977837
0,477125535732721
0,521044195657988
0,458379539896474
0,514681062643495
0,497428614532756
0,49359935922274
0,468857471015388
0,510586818324725
0,566289089796237
0,481012229559337
0,494681342493156
0,605016255861856
0,516024865914796
0,490660398994035
0,519008532022526
0,442483395997344
0,454320139545901
0,711118787294746
0,480466938758335
0,523913584664919
0,454781957880656
0,305313830942865
0,330763598006816
0,617714855081999
0,502148409731449
0,521107949266185
0,765514425416925
0,828261637375685
0,602640893908494
0,860463633137475
0,746614360506748
0,56630291973154
0,432281401074644
0,865094827941083
0,63884586685584
0,46376811514377
0,41952754997218
0,713377735891041
0,349025992265361
0,415879842505223
0,643656340644984
