3596
4000,36533379555
650,420452594757
1
2
2
0,0324690055998104
0,0236034921895041
0,0293389376236792
0,0179400162100848
0,0155314800667267
0,0274109986387635
0,024327240553881
0,0257437537390829
0,023183825170484
0,0229443823723071
0,0226550005457774
0,0293282369492348
0,0302185183198593
0,0249001717674334
0,021155787848654
0,0283930949903529
0,008124973168886
0,0233545196246223
0,0322775873929358
0,0291318919147922
0,0265468587494889
0,0270113634670681
0,0169719458590614
0,0329035077423599
0,0296519623586767
0,0201508805190142
0,0221369882776884
0,0275960553032746
0,0193296719949102
0,0185086096358673
0,0263033568867952
0,0241095368999927
0,0286820180059589
0,0261739960047778
0,0214639895063949
0,0368925732792468
0,0260364695842362
0,0261259798522797
0,0271935580359185
0,0164681205677279
0,0201513004222728
0,0186220896239848
0,0220702476133851
0,0266053244817827
0,0241422471584091
0,0210596044225782
0,0137061889470855
0,0213917274138931
0,024279658585359
0,0299443587519362
0,0292287620372663
0,02073172794987
0,030779277951406
0,019108140159847
0,0220578950512313
0,0284609178382743
0,0257421200858416
0,0329902257881765
0,019918435117266
0,0199922024500399
0,018792838405498
0,0200758133116603
0,0218612806303425
0,023212436176151
0,028113129792158
0,0314863099580904
0,0214136004769061
0,0178500058840366
0,032405427343909
0,0225822002464057
0,0230789374813023
0,0332237031386227
0,0158322271062709
0,0297060078483387
0,0229422102829581
0,0282969852069844
0,0245393179712255
0,0155845266420885
0,0224024941590408
0,022083313187992
0,0100437959970463
0,0165146944625728
0,0120998884884608
0,0215078238881148
0,0301714310883329
0,0111291637216453
0,0242885547612343
0,0183455703117252
0,0160059285532184
0,015193243941748
0,0150457721233903
0,0125896317757148
0,0137618017967128
0,0218550155822802
0,0234266154054346
0,0171255791252635
0,0194541648193456
0,0332135714088326
0,028145564827432
0,0130863245625137
0,00722904915137612
0,0315112374565551
0,0142831390035005
0,0294402383635511
0,0343306345534254
0,0164760730271703
0,0224745079371339
0,0139446462637264
0,0112901265522426
0,014569395860468
0,0206114300281207
0,025664659657252
0,0159016591608436
0,0152863364182748
0,0177108640670921
0,0141551167145691
0,0138111691836064
0,0170841320522524
0,0129310859989963
0,0130870315192345
0,0227532360255295
0,0277357189510366
0,0124444984280925
0,0176761424459946
0,0219556274616192
0,0193046832449425
0,0245584890762767
0,00924441446682294
0,00790315506217881
0,0175185363924438
0,0204431824271306
0,0178844940444678
0,0179073662589494
0,0219241990855454
0,0142572687143496
0,0111439875750309
0,0260371827629345
0,0220666109458165
0,0159591695561483
-0,00187505959688008
0,0188493394880368
0,0204712021660719
0,017304027844887
0,025538686969819
0,0134078786532417
0,016569936266174
0,0149138816225481
0,018479316600768
0,017420041070041
0,0174854624659378
0,0173748444974288
0,0194182363634057
0,0170051926902159
0,0131321517284427
0,0201474732112208
0,013005357747919
0,0109081001458225
0,00895565563242279
0,000368320966766058
0,0245174479346087
0,0197587429225641
0,00861575089114064
0,0147061625989164
0,0156789328666839
0,0125647074139506
0,0193878881586466
0,0231460437140138
0,0175807601312417
0,0207528643965692
0,0255479803842822
0,0216447233823137
0,00945689877029053
0,0291462456310194
0,011509337297339
0,0133156494304601
0,0229175229270446
0,0105690201590484
0,010160194945853
0,0145413882222355
0,0279028393869284
0,0103026718256356
0,0133654436204215
0,0163204037491798
0,0206612099497399
0,0142771518872694
0,0227411180327703
0,018408551819733
0,0180131305610693
0,0154477534088469
0,0270093170619222
0,0281602794622516
0,014823955866286
0,0112436876754235
0,0200624517100127
0,0154330525680052
0,0218821867914222
0,011273791694795
0,00807013906494521
0,0251573223280833
0,0241179639903551
0,0188137749207662
0,0155814971453938
0,0192660513617138
0,0208235805181255
0,0189424261414016
0,0163509463748198
0,0114261995229303
0,0141658907934996
0,0157144703122488
0,016782905181796
0,0224797840805064
0,048648491267055
0,0210558599232895
0,00165104080145172
0,0187187564050038
0,0193782898781105
0,0344551343022291
0,0195520433449638
0,00667694289055176
0,0180291044559121
0,01452768329397
0,0150721102378749
0,0196040910497012
0,0220270311586918
0,0142609068973939
0,0172319899163636
0,0187686591199756
0,0164080829103435
0,0173630517587996
0,025462557001392
0,0127263977792634
0,0181579805044447
0,0192647913720912
0,0165468758457791
0,0168369533938009
0,0195443180810762
0,00908959565320705
0,0142481458980692
0,0176711345310541
0,0159399370277874
0,0224907463676113
0,0190298750536809
0,0111041507658022
0,0188374171582107
0,0272790889601769
0,0248652966501414
0,0145680919814138
0,0130127586336022
0,0216293582318972
0,0205377819926478
0,0099175409669602
0,014242438471898
0,0227034365976014
0,0205344284144819
0,02017961556789
0,0185898988715802
0,0236011313181865
0,00887845811906842
0,0110323983988872
0,0238650021103132
0,0189797707183037
0,0118806267378515
0,0193132609848129
0,023064970454857
0,0306191965584452
0,0114500561799205
0,0108714304997518
0,0217973495455318
0,00264972558800676
0,00929988974292967
0,0185563248028171
0,021122575382353
0,0402122407082375
0,00986412635353944
0,00629006719569165
0,0148904772880047
0,0207065282865877
0,0190061176123812
0,0222477668139902
0,0180291178724963
0,0244519789538636
0,0290348553511998
0,0294323044663378
0,011552235715202
0,0180186120619545
0,0270523444208387
0,0123151214499805
0,015665426304164
0,0158156067174798
0,0118488463500796
0,017119473897167
0,0269938160903808
0,0300797579165105
0,0230860637328245
0,0257319767288041
0,0169861277260797
0,0261543946935573
0,0161648493369882
0,0145315089399887
0,0262838504502355
0,0273902075113302
0,0226833187560654
0,0212071663549609
0,0258430896304968
0,0266843410611988
0,0270259331975513
0,0238126359233229
0,0303602611063421
0,0218439620690972
0,0211800812620094
0,0319722715721199
0,0142859249404929
0,024797264873198
0,0314383259486729
0,0254954146293848
0,0237842601434021
0,0244211795029464
0,0321790061099168
0,0369171319446876
0,0210683997286474
0,0216055011154794
0,0265698953368865
0,0277938976324696
0,0278181069183519
0,0323472685264941
0,0323889759686329
0,0285992034908659
0,0310470731176319
0,0294164185556691
0,0405370345411974
0,0342183987811168
0,0256662838456443
0,0430505746446259
0,0244863737567883
0,0135622651688951
0,0340925471089871
0,0301909475194148
0,0315662734485897
0,0330852244384138
0,0343989671202997
0,0332359041351204
0,0378231104637234
0,0351594019832803
0,0331844501960069
0,0398296802928551
0,0423868743519687
0,0474616043649033
0,0339343096914861
0,0250916654669134
0,0366757869117967
0,036773557945297
0,0398993491454697
0,0478909553231473
0,0436896684311573
0,039188584412101
0,0371070975572805
0,0469820129306815
0,0460269275761702
0,0466538755640597
0,0505141674856817
0,0490265484192249
0,0480525467307281
0,0517749453581204
0,0543037990872705
0,0577849300976
0,0563585082392544
0,0564999336081421
0,068906223133034
0,052023354395102
0,0554236757106484
0,0621566628866249
0,0651479599518782
0,0709840651661365
0,0746794070299499
0,0789194088169832
0,0561498629610339
0,0626523055392576
0,0702959157883344
0,0529689703691417
0,0635468082359764
0,0679315120771415
0,0748656298323641
0,0845510632199697
0,0783083249311844
0,076171226521152
0,0857332425555495
0,0860700041385007
0,0857527632765526
0,0927254175069709
0,0907810602845182
0,0864119963478534
0,0942002889733385
0,09954098627558
0,093584603648586
0,0972468033542833
0,11076782719264
0,12088259433882
0,106424902136925
0,0979258224218504
0,0978884363902665
0,0991130217241602
0,114734637521282
0,110150796379147
0,108894694846511
0,120512882378721
0,116873888515184
0,119106645933901
0,112688825701928
0,123824433357377
0,130234369726724
0,119506936654627
0,12551314645466
0,126236285870761
0,134647873180936
0,157634866272181
0,124289508091667
0,130193042266073
0,154428470420529
0,131090707856522
0,139142378259971
0,146586816905939
0,136685479590339
0,156091797204215
0,152375608931168
0,152867103422563
0,160303468485338
0,158522242731188
0,164137070439782
0,165587250005526
0,172405677835366
0,168665377432023
0,163845894736755
0,17848854456141
0,180697621605594
0,173022426642336
0,180061357772997
0,18082006006205
0,184532535879889
0,183634118752647
0,194665920196815
0,198756100102771
0,198146702899028
0,212351314425673
0,193172153922036
0,186006397424587
0,201572434747531
0,215790119964302
0,21055110645158
0,208534471678928
0,226514431908119
0,223038420012596
0,226071272372309
0,235386158955712
0,231093330808148
0,243472897717337
0,238901732286997
0,241716677335689
0,246618136514886
0,240600165681316
0,246744822271192
0,251279033288647
0,274429451425159
0,283351103428804
0,276937231962064
0,283388729163992
0,265677184487902
0,259400078736006
0,280671163009447
0,28637719023815
0,279834994267075
0,286614153049001
0,293623624228157
0,281395268617447
0,295047101129279
0,300941709148271
0,310058925820504
0,305902856825624
0,306995723879146
0,329251187679219
0,332973953233274
0,316980359720443
0,328310721805496
0,342751319883542
0,344015721744058
0,350206775270942
0,333661117356291
0,345812302461929
0,34406246173471
0,34461516696709
0,36416838416941
0,356625546360233
0,353110136278327
0,363497126468111
0,368641261024215
0,355917598542931
0,378089260905468
0,384471826050554
0,392722854779673
0,402820092222353
0,414328988198258
0,420694212376631
0,416676158458593
0,394339092819599
0,413980650366577
0,397051340826506
0,42220529513117
0,429782190981818
0,413066054523251
0,416000876302988
0,427572901171091
0,446775158638099
0,464951066894898
0,467552363879391
0,442768291138778
0,44239973017005
0,463605088908046
0,47047293575544
0,454530722862607
0,450387131686164
0,495328844190296
0,474601117029955
0,474433595668091
0,502932117483977
0,492649867897056
0,50221720234418
0,532017675641946
0,489849047619676
0,521430006096126
0,525333976265463
0,513026093860487
0,512998430899911
0,518979549233159
0,532702815727914
0,538471391615343
0,539261768995783
0,540929711946065
0,534166917742049
0,563476337559245
0,550899776294062
0,578209407654313
0,546316128606629
0,569419015170934
0,591719467758823
0,594114213790085
0,580299714314111
0,610012104868509
0,616334517945523
0,614197611964006
0,596236478433961
0,61181095832723
0,627858032785296
0,603471231884546
0,603595429544466
0,649491407251882
0,646492223817949
0,640290274558785
0,607371717168326
0,628599916670619
0,649197412047612
0,700304625223462
0,665035162601548
0,663498099548801
0,693154020191516
0,675560529753876
0,67801754620209
0,688181187220225
0,646886540576702
0,698502370641843
0,66548850768701
0,725300590291988
0,700191725678211
0,731135388612793
0,698900281303006
0,702128936579407
0,715963447269316
0,755574816158073
0,716815004500692
0,762243055356706
0,737355645145359
0,761761212186012
0,773961569510071
0,802779417938595
0,754325629261597
0,781989619481915
0,743510409010156
0,792142840456729
0,790368277797943
0,793439791791391
0,773160372331416
0,796629015479718
0,761549394139359
0,792489379725119
0,79388710459201
0,849593013256045
0,778746534181787
0,833072689698667
0,779866619933895
0,840014783634129
0,793891413949725
0,804484063606077
0,805992293088719
0,818133985699053
0,772512441224913
0,776374898225356
0,809529756123135
0,849344019806706
0,851295076751846
0,880445992313761
0,856154566928855
0,879577932909833
0,830839235268382
0,906888007250409
0,848659319947551
0,889389319592128
0,923874931601189
0,945582866192192
0,878049095912742
0,883521685136045
0,883522564924795
0,89289978927623
0,932646148482051
0,930686525197439
0,906467170170339
0,943518799904731
0,951160739478846
0,96316079780215
0,902206377406563
0,8994756487033
0,889779909172023
0,916679485230854
0,928305126661136
0,934423863156968
0,880742331303447
1,00901144022938
0,960065599814122
0,983220548710067
0,970854887704588
0,983977023947011
0,975131581075351
0,966552003122879
0,938222946560326
0,959175957708151
0,938435234611163
0,998924152632162
1,05291284657196
1,01589259226707
1,01213995591706
1,04460071821476
1,02105458994175
1,0476027947353
0,999172432435058
1,02500831891211
1,02461518608323
1,0713376876081
1,0802440549277
1,05303660026411
0,98306780822432
1,09849193856045
1,04183650269972
1,10455552901347
1,00611926366682
1,05661891927938
1,00824103954815
1,01595853410899
0,992821802686477
1,14138834128062
1,06736621558089
1,09392768727721
1,07307785360512
1,08006286207202
1,04262359438038
1,05969620383475
1,01847638016292
1,0715252348068
1,03122812470263
1,06748898176672
1,05313057396408
1,10825912027449
1,0578958866365
1,10292857816385
1,0918178408794
1,120380577005
0,98204439990868
1,07549343271498
1,09128524439657
1,12294973985805
1,105641662029
1,18984235222275
1,10594025599371
1,17960347611315
1,10804248902418
1,13335089607963
1,12083236400802
1,15056347875815
1,12675572472766
1,14538382173061
1,06775769458318
1,14476668573626
1,12345948290051
1,19170555875128
1,10524771120597
1,1144636133883
1,09483022850059
1,17301053643011
1,08208546375281
1,10396539404801
1,08812379858823
1,12692954073741
1,14930474846571
1,18795648317151
1,10657116570338
1,16198295663946
1,11012092261238
1,21419257650722
1,14214204735856
1,21565728779744
1,11561221544847
1,15974013079658
1,1559454951546
1,14916177751684
1,13694937301285
1,19193880117435
1,09605513634211
1,16290907663668
1,14881143422813
1,17493835682875
1,13154800409509
1,16013384393765
1,15344597516623
1,15280183833739
1,10757348953978
1,1998685447154
1,15083123389381
1,16540523176926
1,11108415164077
1,25985710752881
1,21730001522999
1,19083237948885
1,12686862989864
1,12338167359498
1,14650757813194
1,12525970931102
1,08704132353975
1,20812077455051
1,09671734082371
1,19794411396114
1,12805374711263
1,14463815993352
1,19812783333377
1,23475533526721
1,08201101781948
1,11283532761262
1,11377349430695
1,20237473832638
1,10590212985607
1,22436393363375
1,14540039376913
1,16243382954257
1,09988431213509
1,23786900599257
1,11249270846399
1,19823530334022
1,12687474191422
1,17783216561682
1,13928919748834
1,16069042925341
1,12608401021613
1,14687670880042
1,09335160141658
1,18447131623138
1,13118048684943
1,19095375480471
1,11094515594592
1,12379343493019
1,11271147970072
1,16700293352974
1,07335932139077
1,14460605648951
1,1681727946913
1,14671253482557
1,0816625838626
1,19678435481995
1,06874667255931
1,15991805389118
1,06208229948382
1,10411616966742
1,10719418544438
1,17160835691233
1,09572948805402
1,18306039968331
1,06332955027366
1,16558447527666
1,07350329865627
1,10620706106254
1,10580867515647
1,12394623428724
1,09349791307295
1,10989457529525
1,11124388226427
1,14363244003938
1,07800415285952
1,09979107346837
1,07278896200799
1,09213213593559
1,04088323797808
1,11737876814174
1,03172073201866
1,12715145459691
1,06182058337798
1,11081089111553
1,03849912098378
1,14207094560398
1,03775679940373
1,10879434563587
1,02934773939698
1,13298157021708
1,06293508956746
1,03279981770258
1,02832823408917
1,11043428745598
1,03122879075081
1,03189990353593
1,04014276625052
1,0637949628445
1,03117444121787
1,06989550023733
1,00955632944177
1,03509749322103
0,982792060278297
1,06068251565918
0,981979594439342
1,0287003662739
1,03572888697346
1,02381392751545
0,96684913590392
1,04490642849647
0,974455957210957
1,04230840985795
1,00256088983926
0,981657798885555
1,00640638205913
1,01551150934028
0,984140258514961
1,06588385092135
0,948455541436034
1,02379000350979
0,937801850841465
1,04622211847939
0,939504955579732
0,966583034382349
0,956029340967188
0,942220554080045
0,92248336462304
0,943270002965591
0,933940089905039
1,00423148462238
0,935768561532242
0,991955270903432
0,895614432746317
0,955069594098239
0,910910676666234
0,96652521665835
0,919407381496007
0,93586276440215
0,885716170571663
0,942021298724308
0,918361777793207
0,931492977848882
0,909446845708419
0,937281653151746
0,894001966054041
0,950786518843781
0,871553664378209
0,914070913476118
0,879588536781867
0,873884487838066
0,867319109541301
0,911591013060277
0,871057931660462
0,889731849181688
0,840800305590586
0,860211666046435
0,826085140263298
0,840058637768252
0,833383523158003
0,864597452156583
0,82114156178969
0,847872722405187
0,828930891171541
0,859342075813561
0,829061933361297
0,866730088133778
0,811067559574842
0,844815379014253
0,797537710892708
0,806018729448253
0,787827864558425
0,823515211603312
0,759270783159156
0,816536574074569
0,770366776723352
0,801635358200322
0,752994526096893
0,782101960093607
0,746320396449821
0,804135979313078
0,743567452892006
0,781479777630462
0,754562841859752
0,771213185077395
0,742862604675473
0,757090058647171
0,749669428531091
0,745912858832176
0,731492573293665
0,745178600783788
0,701381344359909
0,757997695551788
0,716931696463847
0,711001744585577
0,702098995451687
0,731565258850973
0,707868381250157
0,716523629225406
0,699863126560276
0,716570907408853
0,689655130076726
0,697987693122488
0,669576089377562
0,681408126929696
0,667212187159443
0,695702297325272
0,6612070673042
0,675790282180553
0,650336652490547
0,682984797311955
0,66229084114569
0,660386019312477
0,634301165063129
0,667952263531093
0,620728797166385
0,663489665508765
0,625467353861316
0,647371336901983
0,632056777706406
0,632999001708377
0,608870387518467
0,628483889548503
0,621454720701212
0,629559005616112
0,600515374436855
0,628004250830825
0,614389381367687
0,615090376691997
0,598547613126173
0,600159306368639
0,589800143169346
0,615034175254026
0,589693059770202
0,596308047128624
0,578581938967307
0,607152916817356
0,572100144140901
0,594839515305851
0,578545508413743
0,58083858402196
0,555225574880116
0,567700362165224
0,566780347152852
0,573499270353586
0,546626776374943
0,562031563401161
0,56269383544879
0,561288552377766
0,536567720370995
0,552924123104376
0,527155092706953
0,541822117860587
0,542046898889736
0,541056649905381
0,522649289895248
0,537427658551425
0,517979381948593
0,534498370859547
0,511940933117494
0,52160925254373
0,515768660057716
0,522144053028598
0,50924453141425
0,522022575002753
0,510111424917723
0,512684247293088
0,498736272789104
0,515269014183501
0,497538176819704
0,505619801279118
0,490310545717159
0,499602263035383
0,481421876928558
0,499217425011143
0,47947595433329
0,500043402282556
0,479583773420087
0,494684465326254
0,475833770234305
0,479670195759827
0,476209627579342
0,473264517411227
0,463989373239849
0,474407622533184
0,451156926715637
0,454627613980494
0,449921286222737
0,461730277315534
0,444019706741905
0,447444788310987
0,447950567553665
0,455107622564724
0,446354999624576
0,448040498104408
0,443407065872316
0,443435638582535
0,436348225367806
0,438782737865254
0,425392431500658
0,442909762417361
0,422570466670392
0,439167815249773
0,414109174466869
0,434713526491102
0,410731810158241
0,414056228637008
0,413068125440207
0,419734586251777
0,407345174382808
0,410996079321514
0,41328953550853
0,406488139123446
0,397120026827711
0,411856885627974
0,400516969719727
0,405320465573459
0,397316530837759
0,393476186862243
0,383738848035952
0,401747421242715
0,384950072403245
0,396694761800455
0,382074416428419
0,387291033425901
0,3884910499578
0,387606711603172
0,383684977341906
0,378550620588649
0,373581696197688
0,380336924336712
0,370538025191503
0,376019860371436
0,373900734074209
0,384949702074001
0,372173519884866
0,36993772648336
0,373740069244813
0,370558193520809
0,368504915907211
0,362938519777909
0,365437516380719
0,362990476849039
0,372123001254409
0,363240362696555
0,365889690169166
0,364925092348018
0,364385244177746
0,35884725876527
0,362153473502405
0,355113531124441
0,349025572372509
0,350433378618005
0,345848351591305
0,356896338174826
0,350285738820535
0,362995081504092
0,353513286524143
0,35569859616475
0,356303160886651
0,359768624214473
0,359432747285763
0,355249826985695
0,363478580523732
0,361358293407942
0,361210548155275
0,357803520801423
0,359363628942462
0,361749093813451
0,36307464438504
0,369932926842584
0,367180853374381
0,372930548220856
0,367099421024972
0,372732504423762
0,369040152716743
0,379633837211587
0,372497880840274
0,38953607983687
0,373745779736816
0,385494248229613
0,386163825483497
0,399620279402873
0,384736461155486
0,39070390769601
0,396435578413414
0,395101944715173
0,391481475593918
0,40974041863143
0,406268713817463
0,408427144570262
0,39704258614376
0,410394008820612
0,407255408273174
0,413973113139645
0,409305964434189
0,415541015393336
0,417656058673419
0,430123326169918
0,419750333669181
0,423069283971622
0,428678960279137
0,429942704522317
0,430506939755662
0,439725854586985
0,441721096612549
0,44587727058867
0,440234029563506
0,461746426616357
0,445770081345279
0,469638231017739
0,459605152223377
0,458380993643802
0,459996262954644
0,467555770113328
0,466802873396496
0,484088829426157
0,481513007173928
0,48908623972137
0,476313535710649
0,487215090333807
0,47685558040191
0,505984718945142
0,493797386822685
0,491985533249314
0,486222764313682
0,500032600640061
0,48287373658727
0,488975002024444
0,483310768954855
0,492688901451198
0,499133754767809
0,517508361379403
0,491112906076225
0,501360405226764
0,49189750748291
0,496703040197259
0,488693888331523
0,500212735693873
0,495547277067226
0,501540813742623
0,484062982001353
0,492607553058726
0,490824147236832
0,485158020163718
0,482386569332373
0,48860497979563
0,500300381417117
0,492332180928571
0,4973543006353
0,490323991424582
0,492606164121154
0,496121827748679
0,483468687244839
0,496915491744876
0,50409622930079
0,501387195896997
0,493251660924577
0,49763625248726
0,488642349663423
0,496010182569016
0,495438323279643
0,507226327965461
0,488185094838112
0,496832150757797
0,496975760924636
0,503107393036396
0,496942450081064
0,493755288588898
0,489509786956075
0,501182527939467
0,496956902817978
0,505525292059531
0,482911027709688
0,505204231792618
0,491227653141773
0,496472379802994
0,48263703205692
0,495498803462443
0,483312577187573
0,490189776394097
0,484828536164365
0,487421092524814
0,483935504956884
0,478185462712173
0,48470019482596
0,47872976922801
0,462348159211976
0,470434171983515
0,471675689708435
0,461227722857167
0,451213513840231
0,463226056872371
0,460603910818503
0,463387172037286
0,451044715006363
0,45230170779694
0,441150743491021
0,442228810619759
0,440072242945854
0,448536323498979
0,432537350771962
0,44465200633956
0,422667733559588
0,419982351357225
0,416932399697721
0,418260238447075
0,414907459504103
0,415641904956715
0,406655137945383
0,398672619275722
0,406566506355382
0,399117611445707
0,396334013007721
0,392300537519154
0,395082262290632
0,388510375839076
0,382025212267868
0,391988067128212
0,37656701623684
0,383985859526837
0,378746039286478
0,370495714486975
0,371294171650941
0,369645061603651
0,369590323897907
0,368297339867198
0,356895106140758
0,359925751274167
0,357787526332515
0,356868104800077
0,360977032372554
0,357523718146218
0,34699035906487
0,343395244315769
0,348941020560587
0,341487770897842
0,342280445161915
0,341609277881627
0,342757744522892
0,341985508051922
0,333851752235963
0,343772238492519
0,332676226322398
0,339275410466185
0,337592293080338
0,337778281386194
0,330009989600415
0,331399301536896
0,32593244164818
0,326730572099739
0,319103620323752
0,325644504653145
0,323304639263478
0,325891389254471
0,313328646976973
0,318094545044773
0,318065540503816
0,315601894946585
0,318512531277137
0,315571962428564
0,305372860024309
0,307585330012109
0,305005891898485
0,309942739113173
0,309777948683659
0,309938563214848
0,307079967976431
0,309586381396471
0,300377818942238
0,30846505669476
0,305007453594847
0,303620150384913
0,301646853534686
0,298779905214437
0,295980207182103
0,301937022953781
0,299738087668109
0,294369584238502
0,29369934525794
0,301850627963161
0,293915488702982
0,289942540489395
0,284918681350733
0,286796811343489
0,28932051850684
0,290557894829406
0,289992890329211
0,283465625503479
0,287973280009947
0,287784791902854
0,279278590074987
0,284777839780201
0,279690908483469
0,275947257115346
0,279848369428476
0,27855935239749
0,279188344024188
0,281051680155483
0,272080035183862
0,277287895424406
0,273829822863215
0,276815863782586
0,276869197513336
0,275743326451629
0,269688352137909
0,27168255974884
0,272644604655837
0,272022459721376
0,276287573623375
0,269279553043662
0,269281996200068
0,270155756377891
0,265853838544261
0,264566604207412
0,265605356667735
0,270115392098182
0,26957387590376
0,269027415530708
0,267308275107197
0,265977668367698
0,26215424505013
0,267000333945858
0,259635335479284
0,261573904071978
0,261371412333431
0,261125016996711
0,260558142554136
0,262694238004082
0,262088667905776
0,264943026492462
0,260832299469543
0,258644024805665
0,257508130285501
0,262427166665706
0,258590975172957
0,25745061859923
0,261084269535528
0,25890746845736
0,257259224756483
0,256274802603497
0,251492389953902
0,254066650684231
0,253868353493291
0,255200574296438
0,253246239988991
0,251806566756078
0,248418880727519
0,251170342535096
0,251994949936522
0,24868202511179
0,248252403284101
0,250711829652095
0,249632108190496
0,250621560641577
0,249801915599984
0,249383236933244
0,246158810713708
0,251788599619516
0,249860219352687
0,248437215171612
0,245217518898368
0,24497234927516
0,242849408144505
0,242890071636197
0,237897731810064
0,240377715891808
0,245222649163861
0,241169071296771
0,2352372826458
0,238906712918563
0,243450182539481
0,242471423162225
0,239773461027412
0,239288078297945
0,237083098531359
0,240507985201024
0,23362411359816
0,233589579912405
0,238031471552646
0,235896367109799
0,233541887165971
0,237295519757183
0,234555025893264
0,237065769488408
0,235582022890846
0,231475537566524
0,230956714586038
0,233525474999367
0,228624494938544
0,227255875411197
0,226932027182266
0,229344706249024
0,228327608921031
0,226309620952524
0,227615562449335
0,22698477578881
0,222113768256011
0,223863029976006
0,222605846935435
0,21913435267157
0,218302179815475
0,22030016750779
0,221642553832604
0,218721409977999
0,216780796897091
0,219286213150135
0,216560978709451
0,213693759404264
0,214164780447849
0,212085591311227
0,209216137326728
0,217680849575626
0,212764016419431
0,211086372573462
0,21019110836568
0,208935762427339
0,207237239828884
0,206841241091105
0,203963299170134
0,202433493420479
0,206143694616479
0,205368492801055
0,202289223300809
0,198744579134595
0,203580437671177
0,202939879504989
0,200384851449632
0,200689325464048
0,195627915812956
0,196370994250824
0,200549782896214
0,196426540161184
0,194636003213541
0,1936932803942
0,191370511915512
0,192864302064463
0,189609136224945
0,188856036335946
0,192366257495208
0,189297398150088
0,189065296864056
0,190047687837033
0,188240580079695
0,185898318638386
0,183968243844926
0,187331645453932
0,183830149865832
0,179978382250622
0,181808693429791
0,178684001051897
0,176403229567745
0,178044906962983
0,179335280591547
0,178432651002511
0,177031625052218
0,175416319532071
0,17439749836764
0,17467555553425
0,174753450599391
0,172877013143899
0,175588117384395
0,177019596606048
0,168292339310978
0,171356052404021
0,172175926811682
0,169778880066895
0,167970197491381
0,166657085465792
0,168328936298496
0,166604258764496
0,16344212635516
0,167671627140154
0,166660061593243
0,164811514094263
0,163611457918514
0,163102974066278
0,162212727777665
0,161287451979477
0,163798373379911
0,158616154020037
0,161590151175405
0,163666723330841
0,158344105255147
0,15966061875037
0,158809073805999
0,157817651306611
0,15966329650012
0,159833612052568
0,156094231892859
0,15405238195187
0,150918982211618
0,153280049740308
0,154297870221636
0,153371397815861
0,152735657306771
0,148239630651516
0,151819385033658
0,15289978076428
0,152974669115912
0,152508166559147
0,151271393980227
0,153311480375721
0,150868602793049
0,149562451089185
0,151707913511744
0,148962736100105
0,147340921681733
0,147269052799933
0,147629441073456
0,144562135090448
0,144196315455128
0,147424537474679
0,146397678149788
0,14656674399155
0,147269334431295
0,144570945293182
0,140879525840234
0,145428308481544
0,144256728446961
0,14267047918622
0,142543508355636
0,139644484639352
0,142161316247949
0,14363432871031
0,140223420616824
0,140196515440855
0,140504862843813
0,140428098421336
0,142928576331237
0,141746776262829
0,138425188050824
0,137734169889662
0,139005542552727
0,140489179566003
0,136287820432391
0,134570566880713
0,138019696092502
0,13797866184363
0,134249475636272
0,132021562733102
0,136450017876646
0,134641607862712
0,133147927281958
0,132888553794426
0,134231940609861
0,136161358514562
0,133138868526246
0,133276201436512
0,132597933767286
0,134654985271037
0,131212207758537
0,128582155143442
0,132084102641363
0,131881673051307
0,129496606179653
0,132399215072201
0,130194592044522
0,12881720902306
0,128331522299461
0,123746842476404
0,128088185772671
0,131080447519488
0,128589416020048
0,126915601880568
0,126066654612257
0,124619407389335
0,125616608587761
0,124993127909613
0,126715626053246
0,126727236999431
0,123920331804822
0,124882593817193
0,125329980046851
0,125196844314615
0,126083739346423
0,122835003109767
0,12113974963007
0,12198297713467
0,12484277760514
0,124917597506959
0,124518887899913
0,124118538317996
0,122926861832679
0,118717629116132
0,121288936835235
0,121219090297492
0,121692634577438
0,12095103606243
0,118931562600585
0,116489309563796
0,117546594869325
0,121149289000531
0,120193373128361
0,11657145234586
0,116380632585281
0,116906073431048
0,116241889156648
0,118888722190278
0,116988858686452
0,112468158726014
0,114529328181529
0,113747975098548
0,113203038400292
0,112136034889868
0,113349926237305
0,114252318540262
0,113124473623938
0,11115451942463
0,110440812693123
0,11066822321695
0,112217979023422
0,109011289617799
0,108323777753911
0,109691105478741
0,108096745852351
0,107193735744761
0,105793304502377
0,104668339746293
0,106100188871564
0,106712088548316
0,108592572753848
0,105558405067618
0,104013522825225
0,102872700225218
0,102804527165983
0,102966545922355
0,102908750542962
0,102888723844464
0,099865320091422
0,100729024696973
0,100712289799402
0,10182430197971
0,101472329785005
0,0992815803941712
0,100021672448076
0,099254873550263
0,096123644138954
0,0953897454530939
0,0952538034982836
0,0955166401089344
0,0962057391912889
0,0967784919684132
0,0984675324436682
0,0974150135556579
0,0959425674931633
0,0949186211656121
0,0908131212640722
0,0941734422756358
0,0936341895164022
0,0903930370640047
0,0914694919211301
0,0913474510661173
0,0905597153346718
0,0915908758827578
0,0888130027111863
0,0885694784387951
0,0895818050973791
0,0872239879741534
0,0906968581983122
0,0882801231376735
0,0850906581254745
0,0878504068848657
0,0885306602315769
0,0837840700395953
0,0864608237472874
0,0853189865000004
0,0846887728233507
0,0860612369113157
0,0816277380610301
0,0829552683689092
0,0850309842946346
0,0841493930180141
0,0827297824443168
0,082743266747414
0,0824684111396942
0,0845023383896842
0,0831233735141953
0,0817687808652449
0,0817171246143882
0,0789267743781131
0,0806494672747314
0,0830160330819537
0,0815810429838448
0,0800810647673974
0,0781556817184004
0,079874995213374
0,0789961213741043
0,0748463878202719
0,0765074445832223
0,0766520650494998
0,0781443088818122
0,0751466903831792
0,0754697813571981
0,0749256466401602
0,0752760595331594
0,0761706674209889
0,0773485849285245
0,0746242650027254
0,0770351735564377
0,0781309998370234
0,0738040362130245
0,0724665586726102
0,0729292064283381
0,074383877047394
0,0742795558254282
0,0737077619571609
0,073051859933032
0,0733192053236133
0,0720366811396375
0,0712113918034835
0,0721324579949223
0,0712244819720968
0,0743557116867819
0,072204358666583
0,0718770309086688
0,0692143097868648
0,0675565176068373
0,0700722759011144
0,0719736697243747
0,0700093047558079
0,0710512403604055
0,0698866738746941
0,0686509334930119
0,0654473679398028
0,0699392521234817
0,0675418459108498
0,0657320512549211
0,0660328471948336
0,0656383245996283
0,0642269027478579
0,0688916681539504
0,0655604293488161
0,0640184283636512
0,0591887341896691
0,0640687876199015
0,0619587173467444
0,0653146259241641
0,0680335806969966
0,0676461907574978
0,06465551070079
0,0642662409984534
0,0639020456197155
0,0633231733083411
0,0612924132385282
0,0625529608450111
0,0632107439789727
0,0655500403296993
0,0649745353347665
0,0650860235733187
0,0651795881401347
0,062878730721884
0,0599092311684981
0,062037582540558
0,0627986955178994
0,0613314027045965
0,0584692378825316
0,0651530559248615
0,0647576171554767
0,0629027723986707
0,0605409156960926
0,0637685038754432
0,0590859699182468
0,064782062555155
0,0607837044039837
0,0609344250843077
0,0639053872597075
0,0630547247811636
0,0604438058570845
0,0613319838252156
0,0590883495342466
0,0618094390437546
0,0575659071209667
0,0610495083509894
0,0590872088000696
0,0624517520340605
0,0594751434314196
0,0583667635673736
0,0575432807597006
0,0601350687453422
0,0567062004051374
0,0566566167438254
0,0624129943340532
0,0602371884677514
0,0605285403638748
0,0593454846155951
0,0629973555165985
0,0605467064584685
0,0605238364767059
0,0583977574962771
0,0584004206165936
0,0572054028014679
0,060256720648943
0,0584135399013061
0,059031818199241
0,0597943068353582
0,0619466174984865
0,0585970157292658
0,0582612433837692
0,0572627034511319
0,0567748384091347
0,0595572519502282
0,0585694439812989
0,0595619750688721
0,0566253362904721
0,0589907030426029
0,0568215026634026
0,0574042343398298
0,0585883358120247
0,0588858939781519
0,0591222689093546
0,0583764100824685
0,0597731310055947
0,0576497368162538
0,0556547792533733
0,0568118459969816
0,0595576892490093
0,0583745652746161
0,057333133973988
0,0591298270381327
0,0582140021004986
0,0581439272154448
0,0552049010285945
0,0570599130737083
0,0569602068768135
0,0552674831572943
0,0591432623640571
0,0556353830562244
0,0570510952667568
0,0561254593796382
0,0582384847955234
0,0566858379022079
0,0558512436179321
0,0566095039682509
0,0564078345794437
0,0565982490159591
0,0568677777321836
0,0571058891975213
0,0567153876517106
0,0571484982741477
0,0566050505009372
0,0586867144927813
0,0566621293181886
0,0561439540091985
0,0559704517297213
0,0567065424133621
0,0564962985261156
0,0561389126192355
0,0587134318006733
0,058688470817616
0,0584430007966589
0,0568040608168932
0,0564186565828349
0,0567631779699249
0,0578406971101021
0,0562520868080019
0,0589425863889591
0,0576267967499816
0,0583676346105742
0,0554774736507168
0,0593618409815578
0,05727889051111
0,0569516618352609
0,05567874568557
0,0570110490475549
0,0558272999465137
0,0554391602188253
0,0575419926772788
0,0546285958707456
0,0590707427976613
0,058238514458923
0,0566205252592274
0,0586799772776908
0,0576426603466667
0,0573868343734042
0,0564871494712091
0,0591732317680712
0,0550145515237119
0,0568223949753904
0,0569264555627374
0,0584809375806291
0,0577389762539203
0,0558438162270969
0,0605663354430993
0,0589763012960556
0,0575922519011001
0,0589952868830272
0,0591527184925641
0,0570672320919391
0,0560367747369904
0,0595835234412959
0,0595693764332694
0,0571033438861337
0,058306748786546
0,0560126888055972
0,0582878356867207
0,0590424472265989
0,0603375083615376
0,0595525006210482
0,0592658702195283
0,0587027794363512
0,0582839845192659
0,0558625638883638
0,0620989090049749
0,0571471093788204
0,058784198424161
0,0587198035688576
0,0613635280165743
0,0581278075344125
0,0595969575312411
0,0599384383233466
0,0607057473899238
0,0597617033966764
0,0611394199710036
0,0596770430838047
0,0627084687352119
0,0626542825581496
0,0586952888700294
0,0584632897245091
0,0608682166608185
0,0604049623895973
0,0605379023903858
0,0582810191422062
0,0582605947103045
0,0616565294402102
0,0569404417406047
0,0589906615835416
0,0610209633943343
0,0602105435818008
0,0602071933246959
0,0603028331785261
0,0600423816008045
0,0586579362437754
0,0614739506642484
0,0618262850916844
0,0651930919086812
0,0602095817737662
0,0602744396263962
0,0604776561532726
0,0631723440382494
0,05955631188965
0,060373996178602
0,0629909661524111
0,0610913059387395
0,0615641524385233
0,0635135125199055
0,0619489216033934
0,0614209919529914
0,063171313889418
0,0632031381531903
0,0644040649058428
0,0631506678634822
0,0605127976192663
0,0629574448865753
0,0618880747570057
0,0624843994843597
0,0646803416999895
0,0624121703647397
0,0639112485272292
0,0611701938999215
0,0627942048261352
0,0643841360415913
0,0617094362905245
0,0624466519002082
0,0636560374926287
0,0610982890007408
0,0629451140965685
0,0609585674049689
0,0587280660591138
0,0619031777952637
0,0631856213376186
0,0631303938853127
0,0614218933128915
0,0612745994001967
0,0585541995174627
0,0616209954722074
0,0604749245310203
0,0623209850199789
0,0601596235078154
0,0615536738023788
0,0602168321286075
0,0591566295360688
0,0599465082577
0,061253115448171
0,0604916658991124
0,0601471078133987
0,0616890618708483
0,0604607349445005
0,0594470426292817
0,0591061276785842
0,0603679021124609
0,0569927514402795
0,0573680508699051
0,0586824529002049
0,0585665926348022
0,0608919130804521
0,0589946145513002
0,0575535009436381
0,0598745882081465
0,0596764182447189
0,0583313900983445
0,059319728116508
0,0578385107550379
0,0574870324597888
0,0581530345718985
0,0578784948133035
0,0581225987321405
0,0585726911205308
0,0584769314448647
0,0554210613439654
0,056635007464349
0,0582728813625302
0,0578982126176317
0,0585016196736036
0,0595985765651321
0,0596006207953275
0,0562824014208811
0,0551846060260806
0,0554659650813486
0,0541427796063678
0,0559059715050899
0,0573239352385175
0,0564183612694139
0,0559751637544093
0,0559330613552953
0,0560965478666832
0,0600874496063392
0,0567452508331292
0,0545553465760987
0,0589073837027266
0,0551012725414831
0,0546410166955659
0,0542217820355291
0,0563314939988079
0,0567138965511538
0,0551354689606673
0,056852650437188
0,0581520864249661
0,0546028596112412
0,0541226399281458
0,0550994517965232
0,0565915089975016
0,0552482677278969
0,0561981817652972
0,0563178926169347
0,0555740425611206
0,0552541581164811
0,0545794317659561
0,0566128400070751
0,0561473827473872
0,0584573505186001
0,0575388818361338
0,0555627743427394
0,0563437073238362
0,0559727570179509
0,0586737255125163
0,0570547500134682
0,0553792413449811
0,0531354151389497
0,0570712523104146
0,0561198264556465
0,0544516746844072
0,0561503358257526
0,0541752278080415
0,0547816134968889
0,0565469801927341
0,0537204853185055
0,0541070938802894
0,0523877493320224
0,0532489979613452
0,0534838551727904
0,0539145014581159
0,0536669705159702
0,0552731513670224
0,0559165260491029
0,0525885197145082
0,0523624166294538
0,0533509751487879
0,0540271655344228
0,0517095091449562
0,05498361686737
0,0508502718516574
0,0518397010315587
0,0549744257858783
0,0547809295627877
0,0520167016757504
0,0550524582363106
0,0528975428770914
0,0541780469194459
0,0525438600069422
0,0533296315928965
0,053134737384862
0,0486398869722656
0,0541407516082613
0,0500046020243501
0,0514229733810946
0,0491633263057036
0,0509616384591953
0,0486989948675604
0,051492050131317
0,0509530630645166
0,050425405563265
0,0503720561052145
0,0501553106658756
0,050650174647761
0,0493795569418468
0,049537245857561
0,0486867010002543
0,0476067584459832
0,0473711275822778
0,0487440818856425
0,049893918787666
0,0489861665311085
0,0481883957305244
0,0490840128730963
0,0480808680223547
0,0476636354210095
0,0472451085307866
0,044833993242891
0,0464604902538953
0,0469673491147759
0,0476447606881109
0,0463103636687731
0,0468879825244781
0,0451607706740121
0,0485874334197488
0,0471832180152989
0,0448965815502011
0,0457883548295353
0,0472694329938126
0,0426018444674168
0,0447548177530187
0,0447896892766697
0,0463574573084734
0,0444189485031328
0,0459488215172075
0,0456400508099972
0,0451234387444295
0,044624170375435
0,0440063180880869
0,0441074387307153
0,0449561790876752
0,0435238697435223
0,045044668105534
0,0429950562953484
0,0478604227692305
0,0426091664726842
0,0447426053489392
0,0446156933687712
0,0463151617723651
0,043875375096687
0,044746785748014
0,0450682745016748
0,0452038715809431
0,0455546845188997
0,0449415943106581
0,0418874856093236
0,0419824482611205
0,0421117264100869
0,0426850823919067
0,0424476012819946
0,0437896915565855
0,0438557018686101
0,0432492775279588
0,041643118082745
0,0435333422154144
0,0444832300637293
0,0425317033788783
0,0415651043077942
0,0426478451154744
0,0434578388817727
0,0424352556653797
0,0413405636707272
0,0409945931675973
0,0419295710669621
0,0421471841777726
0,0429702657313527
0,0412031625967181
0,0420115479987878
0,0426572261794247
0,0411101990944284
0,0414706976434363
0,0458974540784648
0,0414415487210658
0,0396702237458382
0,0393227120441395
0,0405491891169342
0,0431360497364331
0,0385918704237329
0,0435586631776192
0,0434733475302999
0,0405717780985278
0,0416065820208612
0,040682325246302
0,0397424484075258
0,0422955089450519
0,0403752423017239
0,0400765462741029
0,0393972895781067
0,0409991291617618
0,0414552066260245
0,0404453823316049
0,0414917610556798
0,0436160556609123
0,0418397650861419
0,0370930511361362
0,0405675099808942
0,0405354437654352
0,0424461488134421
0,0419764650933926
0,0379525306850587
0,0390569355538167
0,0409600689797922
0,0393347899027027
0,0393938965249315
0,0401407000271426
0,0399184658152495
0,0404318670491386
0,0413198413628539
0,0402727176290638
0,0419291563704065
0,0416783586479688
0,0436943541831389
0,0425625094404639
0,0389428381672554
0,0431789964469156
0,0399654377092517
0,039628991950933
0,040600165143945
0,0393535870975883
0,0415146967815293
0,0409183020011733
0,0397258182692247
0,0420612871816981
0,0394786278833919
0,0412495985467426
0,0402725920308788
0,0426406927191775
0,0407073720211029
0,04109301441907
0,0419102523929509
0,0425222934678864
0,0389263091469471
0,0394049986065598
0,0398179432144278
0,0392954900091706
0,0404835085768493
0,0397111279206987
0,0387466346815333
0,040984834814181
0,0395092418954896
0,0390715080984535
0,0402980845919137
0,0431266208158671
0,0415214416511246
0,0394173987316779
0,0393127653761507
0,0394775284859459
0,0408886653302769
0,0404724928424165
0,0423598455963291
0,0415192525032456
0,0411622800976245
0,0394941189657228
0,0395259120816605
0,0403695139017978
0,0391300852492745
0,0413401996356928
0,0396057739787051
0,0413586875809563
0,0389537535172681
0,0407016561548225
0,0417867242991549
0,0393801719052579
0,040742806030332
0,0399461034357914
0,0402831460570535
0,0423822170067237
0,0417782048596652
0,042088152896874
0,038396580008667
0,0398797533655543
0,041332119691344
0,0426187135532482
0,0381352081721534
0,0401828756152724
0,0394784853433681
0,0423397724982363
0,0471493324086182
0,0404587540981495
0,0423597403228563
0,041158701734973
0,0439193510527006
0,0390890859219406
0,0427446461717605
0,0427447003799998
0,04378800633875
0,0452874282998111
0,0428473167097082
0,0423628515310202
0,0396543910757427
0,0420921372106792
0,0437373194114874
0,0458914556316568
0,0434298424520209
0,0414520015547832
0,0387541656503325
0,0451589040757729
0,0472217717658026
0,0371696235281926
0,0427251586705039
0,0446798128791877
0,0428619676839436
0,0436765680668915
0,0436600640924732
0,0440768612411005
0,0443852664450206
0,0438528887233256
0,0433284224744084
0,0446388732460153
0,0472953208272929
0,0478228351079161
0,0452757683146833
0,0453877260572026
0,044266802822803
0,0441167574304308
0,0475216664153695
0,0462764198518827
0,042655934092796
0,045756466482129
0,0471538038935524
0,0457864694601479
0,046936279880025
0,047922577575676
0,0465276042188009
0,0488148390031636
0,0471415282637479
0,0431421844710115
0,0475323706486583
0,048058392677926
0,0503327027672423
0,0459199844333109
0,0466992431102919
0,0504331541186327
0,0476382965005057
0,0514446519096971
0,0467004092285992
0,0485562241279831
0,0471857322018627
0,0509241208365126
0,0495675991641659
0,0517942233910918
0,0496692807828735
0,0470453607250876
0,0508879557486574
0,0532716305851621
0,0547199894434435
0,0492854797345637
0,0494836854431692
0,0527021530516483
0,055097812481138
0,0517876537412384
0,0506753309811937
0,0524248878358147
0,0579531014205153
0,0590057179099711
0,0530202322036499
0,0498910898776828
0,0519712298986944
0,0587453606768566
0,0543899756209159
0,0522980738368307
0,0540689671013345
0,0564292275520139
0,0561068752026281
0,0570898209966836
0,0606480213258558
0,0536627050543885
0,0569210094082023
0,057155072134278
0,0549519919487649
0,0619299015299619
0,0600931270610824
0,0591782872219023
0,0605168538824252
0,0595719922985212
0,062107375834287
0,0603048712437818
0,0610813282338513
0,059838644907342
0,0674302992700308
0,062401131773861
0,065516593461768
0,0669897481346457
0,0672520826250359
0,0685996851326814
0,0709571928702308
0,0671793387111261
0,0693600176495467
0,071865591503144
0,075908493528686
0,0727396287951913
0,0699066638341009
0,0742444171361288
0,076520674602609
0,0814278847399546
0,0918091158694223
0,0827288228337482
0,0777654234213531
0,08192018516779
0,0864087632528063
0,0854697242014843
0,0822049893142514
0,0850634659679655
0,0869609459643284
0,0889316386191863
0,0904571861770309
0,0933750935714159
0,0927860795827309
0,0928828419794548
0,0915931507634399
0,093139807971296
0,0982641658096867
0,100861990345772
0,0960291858720975
0,102852598165596
0,10064761634851
0,104291705504254
0,0990307384135179
0,103395377847739
0,107691565904083
0,109694378324951
0,111558777546569
0,108638784891385
0,109814950634499
0,114317216320678
0,117283176655074
0,117257249263277
0,11589579803544
0,116418507303277
0,126222056577999
0,132570596931305
0,137222158084636
0,128626757326328
0,128606422646239
0,142745151457857
0,147109953751933
0,156556728700802
0,158591457266458
0,15722509698268
0,161976646331646
0,168678035936632
0,172784146804907
0,181685820893582
0,187446385489248
0,189927527322328
0,195490538321966
0,202037782610185
0,211260237280567
0,212636830431343
0,20334666473312
0,228934528321361
0,233658931896419
0,239839453069245
0,245024190953105
0,2551617479432
0,257684874516759
0,26218319039016
0,272166816121622
0,283778988194662
0,281411136556862
0,290796840827652
0,295241288619419
0,303328449090373
0,312173320178149
0,32262246184219
0,329661149991689
0,331713061411209
0,333187369955871
0,346790784541855
0,349934069980668
0,358062556686739
0,361631066380707
0,366786624431705
0,374863055830629
0,379731296150941
0,382015599073237
0,388781140097528
0,392243377816918
0,403271759759132
0,399893020646968
0,405453951057582
0,405256504775741
0,443178282448353
0,421522256387316
0,417714011594838
0,406830644069587
0,410468742395126
0,411823193954775
0,417128595766563
0,426402247392897
0,421780418105658
0,41577184370427
0,419891501195838
0,416191203545081
0,41180913687019
0,415760362289673
0,417747286630179
0,411876245836215
0,416106302991185
0,420166311795468
0,415584248460666
0,417182217666321
0,432871495335471
0,412793641593708
0,41408177268426
0,409672515528937
0,414682414022124
0,41340962803797
0,411892867833233
0,411115182042876
0,408357547402672
0,408601016619327
0,40654433748045
0,397039635292048
0,408356663043818
0,396312974225281
0,390286561666607
0,393011789847583
0,396913601306911
0,391671109219409
0,382681446710732
0,395025318662168
0,399059052678661
0,373566962967285
0,374043178461475
0,3709290468214
0,369369894466551
0,374097252812338
0,369911019011267
0,359994751291987
0,365258765882459
0,364785216188502
0,364039338483455
0,364768458674539
0,362858322383942
0,355938605605694
0,352748498216314
0,349986085429249
0,352907612945329
0,352309209455937
0,348759905765596
0,348929287640259
0,35077576915165
0,350720107682677
0,352499340611316
0,348960463352498
0,35027888652759
0,348436409652826
0,350938880602707
0,345516362627894
0,33936914411294
0,346467675397901
0,34456288993599
0,340846200339109
0,341494018364849
0,343097258052186
0,343425067564671
0,340772685714046
0,341603438045727
0,336862561750086
0,335828745599588
0,33595292290322
0,341300596397039
0,335065160414612
0,335196363883406
0,343591912054906
0,329427631473335
0,33000095784594
0,329954962444862
0,322508645516526
0,32277876391266
0,325793460879708
0,322188888112236
0,315324259004006
0,312764280150402
0,313126963840995
0,312151264844888
0,315882664590831
0,313561906634923
0,306309676877403
0,301609386915958
0,299576517773161
0,308122614513111
0,310779493746559
0,311475898613604
0,302676002376053
0,289029633179099
0,293631105810128
0,302711778622844
0,296458377330118
0,294347956428245
0,289309879720168
0,291370345254764
0,296097657254871
0,291648731196681
0,289957876615374
0,289936479109338
0,286909554179884
0,286743559244222
0,28658482367575
0,282016526640483
0,286029861358532
0,287307812038417
0,287374377315049
0,301189286785674
0,275949527834801
0,268481582117159
0,271917901938444
0,27221402013028
0,26622595087022
0,271284582854163
0,271463878162151
0,262508689500754
0,257779564491339
0,256485891371817
0,256944583575503
0,251337185210712
0,253175720815011
0,253588862892016
0,251546672352535
0,245871788303684
0,241678847893884
0,249715928108753
0,252982426546266
0,241684580992145
0,246224436054333
0,23328693550462
0,237103791150375
0,243210092344169
0,237658394721284
0,23543902511031
0,229236608363628
0,230625974971977
0,228915329537077
0,222362177156264
0,2219465349152
0,220152422300453
0,220623987817174
0,23003273056337
0,227308959715568
0,222631748862628
0,213727998769837
0,207859754152095
0,210234163167122
0,210406403763155
0,212923942207019
0,210062064555932
0,212321786788595
0,213064688575991
0,213486990855635
0,218136549894314
0,210628661470998
0,210595115496502
0,217248712211497
0,221678109860167
0,220722674013933
0,224311462944286
0,227368195542186
0,223722072704375
0,232411811649001
0,231639290390051
0,230956480326212
0,236057713317046
0,236442248003479
0,239662114779331
0,245585206016836
0,249307059495954
0,2562538891317
0,258831256296935
0,264732059103144
0,269083996643635
0,276273203993823
0,281326355384134
0,286601620109782
0,289572860125716
0,300044873420583
0,304886769741658
0,312166793497707
0,316752349695505
0,324104573437628
0,327905279603075
0,328859450549557
0,337663993867933
0,341300837100241
0,347807443664559
0,359673413544041
0,355830602559664
0,361548936239306
0,365316871514335
0,366116832414887
0,369930761245581
0,379578831189197
0,375715154983257
0,387655709881155
0,387133371892428
0,391195168669094
0,388764506532514
0,391573633014907
0,395583864323069
0,394273516777875
0,399315773239386
0,404932509737841
0,405114167098532
0,408873045122556
0,408731588456899
0,414209144627075
0,415243665289481
0,416704127154886
0,421287857832291
0,420791582052512
0,418820128511674
0,426501637416905
0,43312773080283
0,436654733561323
0,434090546322259
0,446896059578123
0,439626217943887
0,443036411722258
0,445443277264971
0,45061212983639
0,455965846495057
0,454369980145929
0,464487387165142
0,467927997222791
0,468067438015261
0,473284839161423
0,470900058532956
0,481122445998557
0,482311108811435
0,48796218753949
0,488444334650935
0,486575038352556
0,491633452675152
0,494981647146768
0,502460225053611
0,496889156749771
0,503036909050823
0,503361229564999
0,502467192607737
0,513323084704233
0,504567684248984
0,509931649424266
0,515338327465475
0,51470605108152
0,514470795741819
0,520736373556917
0,516285534772857
0,518880839008382
0,507280205369311
0,520841764927937
0,51709475069827
0,51241832572468
0,519297968290035
0,519168014238233
0,514714538632008
0,510965207178036
0,511856014627565
0,513556859369763
0,508006386360344
0,518892174974997
0,524149192702181
0,516361011683988
0,510047206208113
0,515263387068778
0,514782598132966
0,515395621778978
0,515545077263673
0,524632732787741
0,52252186513143
0,521993513460609
0,51936594920761
0,522825581195751
0,525865338407869
0,531752866080425
0,531096007103304
0,534834763181742
0,53743891971889
0,54019499676693
0,536016470452423
0,539496884552788
0,543521591194332
0,540298230018755
0,534457795809603
0,541526049507312
0,537793021184363
0,537997052540319
0,531609397086782
0,533516096833541
0,533099762837325
0,528446239219673
0,51980033886283
0,517046478483807
0,511451993651657
0,516675450538929
0,505245306310177
0,502838282680977
0,505564403227368
0,497218348422562
0,488120511595183
0,487588634328165
0,482647158716161
0,481303635703352
0,480620385878644
0,477602331544114
0,473919153939841
0,467946709261973
0,467443627709894
0,472154753611278
0,469407162470428
0,470380871613114
0,465300133689772
0,46393822087991
0,465419809210398
0,466845531913665
0,463013404685149
0,463424321458655
0,459968014869348
0,459419781514526
0,459763650020828
0,465041810498765
0,462154218896671
0,464480106582854
0,455832342150854
0,457743752062137
0,456940348497746
0,460404093652641
0,461288230740761
0,454041274637373
0,458997147911364
0,454551160604981
0,455959647238885
0,45701662248763
0,45358620874484
0,454409696102877
0,454703509990229
0,454238874079836
0,451673931681096
0,455158017278649
0,451618487342231
0,451671162445218
0,452262039840931
0,453709508121077
0,456144599744702
0,455814537433318
0,453858613220517
0,45821820861698
0,453653046673266
0,448153765066186
0,459775580672109
0,450634786632688
0,454543310353818
0,456670228004398
0,454013645291507
0,455893954588934
0,452214311202039
0,45049832453511
0,451359170432716
0,448875508090495
0,446367339797621
0,446793041565123
0,438522520543642
0,440912102251231
0,438067404636319
0,432443439511659
0,428680498615255
0,424462926340459
0,424315035718239
0,420345889855741
0,416026218296786
0,412440919904057
0,408761911788689
0,407632399721534
0,400766926018567
0,402020087212365
0,398415878853564
0,3978642838673
0,398734791446308
0,400526852093434
0,394518995886774
0,393776012361117
0,392417243690608
0,393378202253185
0,391935892373579
0,389656292608008
0,39009575699795
0,394115097768412
0,392044064596471
0,392392906660455
0,390359754820461
0,395931735746838
0,394165983202377
0,400353913600502
0,399049668444519
0,40154374819551
0,398019348126391
0,404558098344603
0,404388146321655
0,408097831114349
0,403580526512639
0,408507937623279
0,410587748073821
0,411677344784191
0,412141032658184
0,417784163896792
0,414870496263707
0,415322183221104
0,41734394856323
0,417148914553894
0,416230482151369
0,41669637424017
0,414854952777724
0,418354906288653
0,415751252831776
0,413997107834924
0,41126795927213
0,41542297296333
0,410596548675598
0,409472320418271
0,410724462123992
0,413536109362146
0,408092133292241
0,409383825239074
0,405073555034175
0,402287590833886
0,400735836827778
0,402944587644256
0,402637440858779
0,401609523827622
0,398149427840923
0,400975129850382
0,397985904921287
0,395963357495738
0,39440626860378
0,393858558020993
0,392118455053285
0,390440344565498
0,389836380156092
0,38726750510669
0,387680484549945
0,387428645647353
0,385679420033375
0,386011839048214
0,386091332219922
0,382893097254883
0,381214876897748
0,378357915144129
0,376312383331098
0,379633793445473
0,373444832018849
0,37233399748251
0,370889908683138
0,366509074624134
0,366554740909051
0,365352031225658
0,359378100447779
0,358786779488758
0,353465490808025
0,352456176608032
0,350612313268252
0,349625729951115
0,345711590113355
0,342619140218671
0,342363967224527
0,341319570129032
0,3397070978006
0,342218015484027
0,341596688850325
0,337900479698779
0,338250131761704
0,339186525629726
0,335462739487558
0,333308141003465
0,331454295798333
0,328826576944802
0,32553122538813
0,324151009726255
0,320780369632612
0,316775248754355
0,313415604999062
0,309968092708462
0,305018828787434
0,301858093593075
0,302415290048683
0,298650078053268
0,298852211251666
0,29770903966252
0,298793366215058
0,304343457619896
0,309841733194015
0,316607985986031
0,321981509912
0,332369845907936
0,341199013644644
0,353586639242958
0,363548210230878
0,378411013501252
0,391306859654094
0,407899692669391
0,422034101788116
0,439649530118726
0,450914432630069
0,466158631946719
0,478687019568086
0,495294396322105
0,510817412416735
0,523018780591244
0,535797011669142
0,551512345023529
0,560315681425999
0,572766406011352
0,58318927870845
0,596545666135853
0,606339483482334
0,611911013437163
0,623730413501265
0,631418423452497
0,637690221537111
0,655261424278741
0,662494754762113
0,665313564709504
0,670887464220525
0,676893549463146
0,678589079177497
0,676437513901231
0,683296273770334
0,686054584658043
0,689134623825779
0,686215665124328
0,691618329235356
0,690631182442471
0,686619862283995
0,695483338451747
0,694009860457911
0,694814013408739
0,692266047311664
0,704139377191925
0,70453749993657
0,706300111421291
0,719242407274794
0,71807247016982
0,721477146853827
0,731913187521925
0,739800701772051
0,735532494247925
0,744581273628863
0,745762152033055
0,756253731480265
0,769138035526857
0,772188244237525
0,78262081006319
0,794998968965255
0,807533360846134
0,817483140043049
0,832602023831965
0,838969666607405
0,847651343018915
0,857616276594117
0,857296277648748
0,871766929899682
0,873656734942659
0,889253661136899
0,880124029913247
0,875861476175591
0,889865291931633
0,877161719236092
0,881849719819668
0,881934958029036
0,868264162432067
0,867507485451083
0,863183532323405
0,869260462739429
0,86954221981552
0,883642528683894
0,894471799566975
0,894411280199385
0,910520616336125
0,933674825329446
0,949258708765299
0,951861543438368
0,967057685385283
0,983366505251849
0,98828633758498
1,0094958293534
1,01843157613258
1,04931413830829
1,05092491571123
1,06906034908344
1,08761616954614
1,09631551324117
1,10339060660412
1,13233295844274
1,15215434162275
1,14634909053725
1,18693198371516
1,2245376060418
1,21176354736266
1,250343447275
1,26266624382774
1,30263868435774
1,29291153286724
1,34155696634233
1,31063351733688
1,37969026545214
1,3987968373687
1,40609545922795
1,41720643837661
1,43801516996114
1,46191443867953
1,41614939304278
1,47404479338472
1,48359534581915
1,52629274368369
1,46385051794637
1,49287109724208
1,48456509593759
1,48996994752523
1,5078397999669
1,50082150911836
1,48306587919653
1,48023633242787
1,51047546609821
1,47899663853952
1,48538386116146
1,45013786250733
1,47416593755892
1,47511274726171
1,47981516541493
1,50023712351692
1,49213141213956
1,51204699913182
1,53992895122532
1,52890360752101
1,5981150103663
1,60513987558047
1,60515622555744
1,59427161248248
1,64626359704456
1,63405753839612
1,66737105253999
1,69395121959706
1,68772689235281
1,71460791893659
1,69589700337661
1,69240708852504
1,74351323100773
1,72476428777711
1,73714122389828
1,70750330750774
1,69351155286285
1,6970000228401
1,74936057617066
1,73561473634458
1,81266552607563
1,77663013250215
1,72489267980344
1,81893185529984
1,83395552920983
1,73213314937634
1,74615731965909
1,74081993356377
1,73826425860672
1,78690738101077
1,78415963655875
1,69667411853913
1,71337864851722
1,72224198510762
1,71451991686318
1,62903722708327
1,62980021661803
1,60631798833072
1,55902715069021
1,48336302774669
1,47863660760736
1,41192557012992
1,4138541332515
1,32526678488919
1,24679976134875
1,1926218004757
1,18331306773727
1,12355400003017
1,12597802506722
1,08305962196902
1,06602914183772
1,04665009316683
1,04053853892305
1,02062798764918
1,01030570966331
1,00765143046946
0,977583534582761
0,984587413801777
0,96505804645982
0,960860869582149
0,940642716518782
0,953390207325284
0,915763394052397
0,906304739902435
0,908539457602024
0,886400359526831
0,870948969609759
0,848795699836475
0,831476720583066
0,802603358725348
0,777201056496427
0,760314137918172
0,731296424337992
0,698401152113414
0,679178664949592
0,649632469350924
0,627762996838215
0,598194084200743
0,572970719124384
0,542793851136421
0,519053501626323
0,498675637360418
0,476921701034847
0,45465901160205
0,440531777838727
0,418350453370332
0,407337633507107
0,386170202360564
0,378147009186654
0,370221690060627
0,353644070762693
0,347436362671183
0,344603857273865
0,338102520747037
0,331522949931335
0,32313779490437
0,320610887250344
0,316673351556481
0,315479826921628
0,318934585059586
0,314889312028126
0,316127284081126
0,315701336620822
0,314860479371092
0,317661343974166
0,322723393911615
0,325420565187417
0,324296538592893
0,326514808770824
0,325758318691401
0,326862979119079
0,322494269381773
0,32142526361433
0,32272518610912
0,318317414293911
0,318505243225167
0,30940278918536
0,310422237831164
0,309838625921062
0,304957695087268
0,299780014110403
0,299774581565443
0,298182274959862
0,299269346706756
0,29650979190332
0,297240559322556
0,300788802322866
0,30411840314644
0,307536714160689
0,308882580247179
0,312576160678754
0,309322368992244
0,317702703430987
0,313245691390385
0,323026950552218
0,319946006054657
0,329715892922098
0,333875206006938
0,32959652661085
0,332937645789199
0,330244392568053
0,334418674348964
0,343746038912194
0,342317669686531
0,339157568157876
0,336847098765282
0,337499836055836
0,338401217192567
0,346131597756149
0,340319682457554
0,347779630863283
0,352907633292314
0,354837706948188
0,36065817090205
0,360189725837258
0,362027236787955
0,377124373835004
0,391834894328901
0,392049561211418
0,40025446600536
0,413447102742096
0,423844915942091
0,441287489239333
0,447945314402523
0,463422755508959
0,460742734832034
0,466034225026781
0,458392533062161
0,466048920042739
0,461528176013213
0,458428749561148
0,452110760284805
0,436512938109837
0,429531047656967
0,417727795115924
0,41503616393432
0,407362680898106
0,405212679423703
0,40105622167083
0,395905785397312
0,410994066382458
0,399241196752299
0,400427683875744
0,407140949862771
0,402490663469696
0,397143908340614
0,404662235174175
0,395612145040827
0,397956429643139
0,393362669937196
0,390224148244323
0,378487888008676
0,38220982480007
0,366694099897017
0,365414343393484
0,365605726006081
0,353256133486852
0,355303004035574
0,357428348399355
0,349611560945386
0,348516941614617
0,349043525680585
0,354694116033241
0,343231313846785
0,342802803252037
0,341723496356829
0,328636572922022
0,328219075068008
0,334632726808919
0,325320004096861
0,330399754308799
0,323157524833559
0,317007724515719
0,322000194542727
0,324037412623769
0,31577137883701
0,315413703314257
0,313327046264308
0,309944935187752
0,303657671840626
0,301114982645722
0,295767115806494
0,303389240421325
0,293100614012838
0,297591572471391
0,295281721363306
0,297520028467508
0,287194311359127
0,292310553428371
0,289882331429857
0,280429837079096
0,288132972690249
0,284628644927026
0,280123110048197
0,291606531174266
0,276295515106526
0,291559323029654
0,282579223454928
0,284499030642882
0,273902829876581
0,277794038003532
0,300839189171915
0,293421570093675
0,291341701318586
0,287542707079107
0,284241503167933
0,293126156895011
0,289540526217272
0,300558202987503
0,290422405864426
0,297851262192174
0,292022506423812
0,297834316317585
0,302085501397464
0,295318685783683
0,306182473012429
0,305468531102664
0,299660185432745
0,315361175779928
0,303894157493809
0,309732291059519
0,334531124344332
0,327282015568337
0,340185583386088
0,353951025651242
0,344002887530791
0,369147005418311
0,347957597674673
0,36324176487148
0,392651214835975
0,404100409088312
0,414387528456386
0,40481821433471
0,428592893925189
0,456920883368935
0,46130793730292
0,480287086980764
0,478182215445509
0,487324856568013
0,507411276373913
0,512328750942589
0,524694003833742
0,544090068997656
0,545953740950928
0,539540436810806
0,517670156830114
0,540859167490864
0,543823251550959
0,540888186562743
0,508960975633486
0,554908885787122
0,534234353585787
0,521659700727205
0,519579338588493
0,516915522773632
0,510749926050364
0,513425797483916
0,518836995965621
0,491683821364115
0,512468035068141
0,498548875991533
0,476075402666861
0,526696750632798
0,518401146470264
0,477494017447947
0,482117745201872
0,490611907569205
0,452528816790525
0,442394287950728
0,476408970501968
0,468539359385499
0,446571416835654
0,454811271703188
0,451069137161374
0,447526801307865
0,450013754095664
0,450752034663926
0,439020685946569
0,411798023954609
0,446341308933306
0,450933904229815
0,444407111969523
0,477825219659726
0,422389793344119
0,431665094268712
0,44589521870536
0,44284880515835
0,420426836097903
0,481735947512588
0,460397911018913
0,497130742089204
0,413221880586585
0,425540551251371
0,454588409209179
0,454390330279862
0,428271324530528
0,503586724542814
0,45400750674172
0,468995631917353
0,478782887508291
0,485464030942325
0,472679097801579
0,508126847752651
0,459369199616565
0,443872066289976
0,452170568854504
0,480016726055491
0,451810180635606
0,520861581242038
0,488018780934684
0,499471470552928
0,499300592921562
0,501068988029756
0,535174156860898
0,539755363755885
0,484806951822683
0,562207337521021
0,528972361638845
0,53140099031532
0,628524628060707
0,573240554372304
0,539542522135451
0,577724476752332
0,581151163019093
0,603279370902501
0,565871812007331
0,661124547690631
0,587410198969932
0,577413599014964
0,683284307305026
0,715795843799748
0,634624303611967
0,722932026183639
0,681059161745214
0,672104529281918
0,569606463540907
0,671136052865103
0,681383380345511
0,661413142502532
0,730792466110369
0,673199309254179
0,542551894992066
0,620278608618353
0,560067625921177
0,600536306630394
0,518301426989285
0,54515937908908
0,533255223240968
0,599945639947301
0,501701323511434
0,527622804579553
0,633464714761596
0,520787935877539
0,480781076493292
0,703980916990535
0,525603954039306
0,550588738729685
0,599451978195202
0,582469336069285
0,647477478583275
0,597348615383648
0,565963060310585
0,677609827350972
0,426423021954779
0,542255954717526
0,743008079363615
0,533993193052098
0,399649909871403
0,496206940438083
0,446478950298841
0,889181079093763
0,75790080655078
0,800725008049706
0,523963123623328
0,610861652877843
0,521438795665899
0,50339884909622
0,790873520592517
0,80744724493136
0,488478273354189
0,734785289860663
0,862951074916499
1,01824108975579
0,520568059100391
0,974428789497236
1,03282517628162
0,254257681795898
0,41338016139078
