3596
4000,36533379555
650,420452594757
1
2
2
0,0264480779571511
0,0192793910088283
0,0303871097853215
0,0231570224574419
0,0192879256970556
0,0309691889421132
0,0305926302743319
0,0215430436232899
0,0279092382086062
0,0174868794371821
0,0199465091771096
0,0236277931794169
0,0241622299013129
0,0344061164912293
0,0173016210265705
0,0267437106862288
0,0128020316199651
0,0337680260480901
0,0255006143920767
0,0222902235092828
0,0275349909827649
0,025577897082576
0,0205452539820081
0,0352289328454923
0,0240138203491183
0,0185534626391713
0,0270923628838647
0,0216869909169426
0,0309872133006735
0,0258030875230748
0,0277620591981707
0,0255774827802121
0,0268708103301374
0,023822121305163
0,00802068293092809
0,0331265171688535
0,0316841621557792
0,0269125749013926
0,0273873278996611
0,0152964054249812
0,0184734311709754
0,0221743084840186
0,0224779473117927
0,0252482891002024
0,0301125535492926
0,0251597505251727
0,0228571943399258
0,0214153779555635
0,0249795133181324
0,0237495065780717
0,0280060952724694
0,0157977043118612
0,0304909373032657
0,0188769877668891
0,0307478465159239
0,0280249579984047
0,0299169854187673
0,0324695216634529
0,0121593740010976
0,0236661476264122
0,0298812063460695
0,0137880516508207
0,0324246236556161
0,0183877906442105
0,0244288692051899
0,00918805150659781
0,0231644818778271
0,0158450849186078
0,0389848654797788
0,0194770749368746
0,0259352526003876
0,0371524164126074
0,0134444489762067
0,0302800554768764
0,0215302026415577
0,0233696987320681
0,0253810710464006
0,0188608388913557
0,0341981578192759
0,0440583704253389
0,0200602488510698
0,0213932359607371
0,0218443416677951
0,0205183609267178
0,0436876932062116
0,00509515430665453
0,0270664287255448
0,0236149447032071
0,012294945579461
0,0100601519809122
0,0161451079154829
0,0209493231512279
0,0245296968450787
0,028676653574423
0,0302738812956667
0,0132893100710038
0,0144117181342645
0,0356737609387464
0,018981791437034
0,0271778707612097
0,00991555656829327
0,075323412977724
0,00383652150668794
0,0513909904474526
0,0223522012471554
0,0149690002096522
0,0533860606290522
-0,00245596628136944
0,0314313255248876
0,00969305319432904
0,0212191869529775
0,0145241997178482
0,0426518506236479
0,015230191340253
0,0158040108351461
0,0264081818030948
0,00839176934415478
0,0219473783388081
0,0163723575589553
0,0144338755008021
0,0198202473963948
0,0581944273404136
0,00106299276365773
0,0302762218319018
0,0214584546357633
0,0148957732521622
0,0272561747764341
0,018018881935454
0,00590294351393136
0,0297866309020783
0,0189603696151111
0,0269261830926034
0,00197971551277311
0,043852736801736
0,00621845065957101
0,0110421305683844
0,025706547862121
0,0251947796053379
0,0372389386566638
0,00151683568864912
0,0242560117757873
0,0158555664335912
0,0171425282432514
0,0316306476811098
0,0242847462716528
0,0245023476598956
0,0326635657034792
0,0251349810980094
0,00750438782118544
0,0275256898357255
0,0156107082187338
0,0352735955039644
0,0221414602140887
0,0197670072085213
0,0294311747171708
0,0642762839489577
-0,0248492591519928
0,0631997404108145
0,00485411084241988
0,0275070927803152
0,0174809132854421
0,0184976123555187
0,0251562413433649
0,0215928581853254
0,021049598526095
0,0110657317841673
0,0394125828621399
0,0146053401945091
0,0298441390000142
0,0231159322481852
0,01703355800056
0,00570397626547524
0,0568622968447042
0,036259649490658
0,0118573361275479
0,0475446086316266
0,0109680966699557
0,0232088111352933
0,00831807438023509
0,0295493090612953
0,0085221980799027
0,01990490894
0,0244227727565512
0,0224732194395768
0,0168172310496393
0,0317932113223368
0,0163765887502823
0,0283222539844982
0,00834798996505269
0,0263957942301324
0,0301530316554562
0,0389921348476803
0,00263446269188841
0,0248405615939566
0,0169651278815907
0,0213328735894932
0,0493974358395668
0,00302871408935012
0,037086031405999
0,0198868597317556
0,0278472644633157
0,02197852788817
0,0210731300433585
0,0256267531469661
0,0109455610464907
0,0282381575022289
0,0237024070767844
0,0149925180496448
0,0340486036916308
0,0195784735373867
0,0294484501828211
0,0281598065643413
0,049289962602038
-0,00688014072875104
0,0277079803673637
0,0136168056665259
0,0346555485568868
0,0272206030082077
0,0194728187294247
0,0202949486476056
0,0131438143095576
0,0149208487690722
0,0260297545848859
0,0220628579870431
0,0227106919321099
0,0222020982100328
0,0234406330214826
0,0163995588493236
0,0173318737398389
0,028094024105975
0,019287745213418
0,016845567064171
0,0309302965787721
0,0206045567660861
0,0218465428337253
0,0392322070307251
0,011802107077285
0,0246883821689516
0,0246689961707424
0,0188552085756788
0,0153191603456557
0,0223878464180476
0,0199334558558049
0,0272470472293178
0,0203230231747328
0,0330537425749095
0,0285368138044441
0,0163290231541322
0,0356392613356865
0,0115919318550157
0,0461695383013021
0,000278602941462994
0,0324226536472282
0,0128243720123619
0,0369941858025689
0,00626976903328832
0,0366273515280481
0,00207718855747041
0,02166667207728
0,018169326192268
0,0413135139478173
0,0127763428008414
0,0334257353528853
0,0261571863992792
0,0422923098042136
0,0344346729565941
0,0147795976633622
0,0209411961190711
0,0234082703221785
0,00687532375105515
0,0425430648554942
0,00611827954603536
0,054867201073749
0,00703291206676924
0,011448552202898
0,0112310578187072
0,0384501529130471
0,029089201953664
0,0218042032121036
0,0291576627853591
0,0124698617117879
0,0366639623802669
0,0328956512932476
0,0276283312695646
0,0294850984169699
0,019374534160448
0,0661044115458417
0,00223473565072909
0,0307971942326081
0,0087829905247568
0,0347011926533766
0,0211007342818457
0,0564643291332489
0,0161071055653067
0,0509736462294856
0,0042801696451223
0,0476876383174818
0,0177482672296569
0,0210895755391989
0,0197457009440328
0,04697515716608
0,0171953375716315
0,0323798828691987
0,0234426747846049
0,0296796452386217
0,0325032837289927
0,0247202650349416
0,0403618949256161
0,0552739265707109
0,0152296414236116
0,0491191317522429
0,0209773255196109
0,0312992361229329
0,0280005602911425
0,0278418885264653
0,0179670867522563
0,0276705002062313
0,0229479196372539
0,0306226245415763
0,0373489407694496
0,0207384270245487
0,0340474964923146
0,0241489479618809
0,0281019841742754
0,0308438112550243
0,032926111225262
0,0207440638999778
0,0339290988398151
0,0359140738269074
0,0269332000050877
0,0467331172162764
0,0273315996509961
0,0373474350327261
0,0432918091116885
0,0114447233105655
0,0293432984912675
0,0339888225466184
0,0323310484851774
0,0313496404634719
0,0363504205989239
0,0400531190912321
0,0294755121303128
0,03875439579058
0,0312684982915962
0,0382342533598637
0,0375115660919396
0,0519097688985367
0,0450585266755006
0,0368853525461337
0,0201798451069437
0,0397162410329089
0,0309455170614804
0,0961460467274405
0,0258260181981234
0,0591459610327441
0,0241206631101625
0,0357090168486793
0,0462175974635179
0,0422121474442885
0,0444430368937549
0,0411171665974552
0,0491188612281603
0,0497700489491486
0,0534870051260626
0,0396964167761425
0,0459299003966696
0,0496123955396816
0,0667452892357614
0,0691892170701238
0,0423636338206615
0,0589583419412721
0,0511282936156594
0,0550241116693406
0,087642077679425
0,0518351571767457
0,0827401925944286
0,044092264829955
0,0677863653639217
0,0569012214353446
0,0494023432873136
0,0693776946123747
0,0588632103003871
0,0727135200672037
0,0615702765410491
0,0706475748478509
0,064590271708965
0,0776997527450944
0,0729574831713146
0,0794539297151223
0,0726423895267327
0,0832167032858621
0,0721810728795383
0,100954855754228
0,0644710383410839
0,101796269713766
0,0845779430785516
0,129896556790456
0,0684750836323978
0,107303943853266
0,0679467204199883
0,0989990798348129
0,0768905553640865
0,103039653486612
0,0903377763808177
0,108696234836614
0,0972598649982396
0,112287487531177
0,109268300159143
0,102953057837852
0,10437747985601
0,108041361509418
0,0909555257070297
0,137163052629727
0,0922529163433132
0,136296042885094
0,0875468033689583
0,125022281619234
0,111877843336349
0,14807016722113
0,105096733828092
0,134442184197694
0,122479226083074
0,133505372557757
0,122793124487632
0,124981177463935
0,130765231787727
0,133137415410774
0,140646775663026
0,148879563828657
0,13624176763935
0,140503167333087
0,131942073358505
0,138685733911783
0,147198216398448
0,153107318799658
0,153498912207102
0,155540822628158
0,138290745448692
0,169684579942227
0,13907912515338
0,178350359496819
0,143039310325839
0,194456679166179
0,153001662196982
0,159263411472252
0,173684256847577
0,163871052069798
0,168607393832897
0,187349344075909
0,171117589013436
0,185676693079709
0,180576531049709
0,192769659323363
0,179738766404095
0,2034292446394
0,185803396840524
0,198492496861825
0,188344521912077
0,212148587963468
0,185646982432951
0,210166976715643
0,201448119983617
0,250868103131701
0,221754991905796
0,251023521001907
0,201281220428899
0,226063804989802
0,211259389245339
0,215869151365501
0,211278415241807
0,225155828762443
0,233846420521036
0,242916918548866
0,247441016591518
0,240422679713205
0,238864172036877
0,252586222181539
0,238397037285668
0,273124428166601
0,250699724008916
0,249315669672911
0,242478080204741
0,268328212550573
0,256463406727045
0,283246103349663
0,272289942880539
0,275973809387904
0,265075068023883
0,29222338182946
0,260821170456663
0,286184799482263
0,264365683871359
0,285522802124308
0,276322591264502
0,301966291905943
0,27678186276686
0,298338901250807
0,295221043785236
0,311083899616935
0,307247836426767
0,332826683736084
0,302590485196435
0,324634133286336
0,295614592822903
0,332896165826986
0,330060049732659
0,327275505867316
0,32824063931876
0,334021222101994
0,332030405687381
0,341934157068724
0,348706139473266
0,356977315083909
0,34111152205995
0,357802494524461
0,33336782790496
0,375665360746874
0,357179948295903
0,384009272332081
0,360842194414717
0,36810675969387
0,363465378846167
0,390656617570401
0,369113022972496
0,393025775430195
0,379053762191672
0,418466019256848
0,386235297145002
0,410698736891588
0,380252697927386
0,421293088582579
0,411329476544358
0,442490817527943
0,408194655179561
0,435881748312503
0,394349537768423
0,433398330104865
0,412299011602569
0,428225529990853
0,417755631308115
0,434414729904903
0,434464804534695
0,463668053768688
0,436221309371586
0,459106858206494
0,42609429937999
0,456874780429553
0,445904288728756
0,479674476225869
0,448718918621604
0,460273993278987
0,456177956111152
0,502363738779507
0,485813697603177
0,486341040777233
0,469501101190931
0,499275034909839
0,484978308642161
0,50797472113244
0,494620775600784
0,511570612743329
0,484843872630362
0,527676497987479
0,522006513683244
0,528565353611384
0,53004905206551
0,528316422036341
0,501537873110616
0,528805471339843
0,501890214890333
0,536722746355844
0,529009138508276
0,543839699109664
0,525753774835415
0,558157385312011
0,539529862924103
0,577837244894567
0,549033023034424
0,582092160341659
0,566250862050728
0,621498961953221
0,572829754288262
0,560411390052421
0,581279604194448
0,588337786458879
0,556785469886663
0,620815036651139
0,589847253564704
0,60810967931828
0,597072890673961
0,625289696965182
0,597226844672814
0,620506429492708
0,603715813739201
0,622623538476822
0,577564052208642
0,617710838013645
0,618544532773242
0,642209643256326
0,609299396431755
0,651100853077361
0,605314179131647
0,65359276389157
0,618644820444473
0,639311580452601
0,598226385757551
0,641768446299729
0,631902015649738
0,643305022427157
0,655738247309775
0,709429993380654
0,679763780051359
0,670668676553696
0,660379976505408
0,665074593817457
0,656979342871929
0,692697439015314
0,670206856989376
0,68215067177906
0,656955822749009
0,66588522369914
0,645964730953683
0,678733112906707
0,708523659115446
0,721745329581331
0,6767580991156
0,701879748082521
0,700058090716237
0,716618188786832
0,68754365825347
0,700527766233806
0,69886028496737
0,732211725062311
0,69845820130391
0,74057363375522
0,728625875587225
0,731875528043103
0,746605537801333
0,729653117961657
0,719552567887247
0,747535545961407
0,695942870230624
0,734084230216597
0,743875621964132
0,766183016741543
0,747014513989463
0,77083955356113
0,748713555313731
0,775343920663631
0,760690934245983
0,778513467990893
0,737370147913163
0,777261336142322
0,780346880505863
0,806460650281719
0,767870092771944
0,789210785099759
0,75502744792412
0,763309308658129
0,773465220856879
0,765154226687848
0,784301696681528
0,79891069694375
0,765160588318927
0,811506390808044
0,809291117087901
0,777353287171973
0,743268466946238
0,814052707196998
0,771615716602221
0,7623560760185
0,772524594091717
0,801407534285372
0,83468838285436
0,831225550668814
0,770061205250448
0,795837585782291
0,802135856601508
0,813585140251375
0,785677874810741
0,849636796207389
0,857162198913288
0,852784513471601
0,832779643994125
0,806673525869702
0,813712546251399
0,82889231736085
0,818854204023854
0,826850572793403
0,822932848540948
0,86811592656201
0,814980897263003
0,861425212086865
0,865247637567709
0,870556328474543
0,821854768512742
0,807030318721515
0,804894192754499
0,83265049103448
0,817659050343391
0,839453835360633
0,854742844079906
0,826725913282864
0,792572924834987
0,848278239744258
0,852196004924157
0,843117594397803
0,846090925039191
0,84175897231074
0,839026496220708
0,850461856404016
0,824027435800204
0,859199503349365
0,846909378345281
0,851961092734567
0,847110566820062
0,845189938245243
0,874663669223846
0,900080236974175
0,859957345195172
0,856256695866951
0,854903304837294
0,853726223547532
0,855967840345807
0,888772603452215
0,886674775316221
0,878185958017188
0,850944038010568
0,848549197145657
0,863594496173726
0,870586949036119
0,87597179435767
0,846726155789205
0,839409522314591
0,874576530835633
0,86291036481169
0,894710382748859
0,895213012072799
0,846459358033433
0,823205262429503
0,884231948689823
0,875051591120977
0,866779082296197
0,864510791579825
0,887290810719578
0,881245143088641
0,834366929228768
0,824714799275999
0,840394440098082
0,858175973266411
0,848152170399591
0,844463174955222
0,851418449668892
0,859867356092433
0,882783423978423
0,853416901869789
0,867164712548845
0,869433384805046
0,871778787787053
0,866976099115765
0,848682540458673
0,84987060908161
0,85567804768981
0,85638450630289
0,854124693775935
0,851806278349725
0,819259496564445
0,822456014677201
0,849634889104237
0,880640892887556
0,882194197140621
0,875883329436192
0,862561527668973
0,846017564684592
0,872809490192509
0,860422394215313
0,844978718888425
0,890468387709638
0,866617530397891
0,835019184774939
0,83937416303842
0,84197531343144
0,859167746658837
0,863318814612925
0,846584744105729
0,873089744140372
0,872105197669365
0,868462862583041
0,830890979101048
0,822799732503757
0,868526232784838
0,884650099204093
0,842790483129266
0,845203397667247
0,828631224892069
0,815836213980677
0,834137196799634
0,833286878761173
0,831612547155358
0,843487309701493
0,8051057030806
0,820836463267279
0,829065867345275
0,854828245558971
0,843367648720132
0,834117580672418
0,811872796623704
0,804922780429965
0,814741294920203
0,815943526383546
0,796898040457498
0,82076936588435
0,812012974265835
0,830869272748254
0,815652321918495
0,77960231282008
0,808896834107741
0,789452116321264
0,800453210711667
0,817573178851996
0,777722546271025
0,799341174679716
0,792716547082413
0,794753933298535
0,806068977890979
0,78331124934842
0,813357079143575
0,821014835189321
0,770289034949772
0,765882446279496
0,758547192175922
0,769909880685791
0,777358474703012
0,782135134630588
0,781574570918944
0,784924361637198
0,747946467677243
0,762319598111915
0,779218386811505
0,798761736632091
0,767580827770419
0,758228985643793
0,748582529123705
0,743740357918746
0,750727998984191
0,762290272022021
0,737963635787397
0,758977686191518
0,738619268434459
0,745928165388805
0,748587197868833
0,744866677889128
0,730215572873958
0,746764260052977
0,733015983023488
0,738530853646806
0,719293711934649
0,722312528718786
0,731139119739039
0,740885082563934
0,718212756761459
0,72002105648942
0,708157412639534
0,719415725073713
0,699091771967806
0,694100030305233
0,693928646045445
0,709213362245189
0,695697318251577
0,693853856407924
0,690127753884564
0,699380484161308
0,680203340409729
0,680216447385993
0,688086151349401
0,709053231678797
0,681271723152262
0,666040062456474
0,676121923963268
0,674056527725364
0,65783673322278
0,665904350369724
0,655958507511312
0,670850419151578
0,648130468157079
0,652387093713414
0,639334433899547
0,660555801748069
0,646349877044869
0,635384151843167
0,627280697542611
0,6364263582051
0,639345890288444
0,638694640368446
0,625118512317515
0,645786267670248
0,634039445634076
0,620715051603975
0,600616090112709
0,625994892312659
0,613846925309242
0,612715433913362
0,599549095868305
0,603403820810583
0,601764554367705
0,596555489082989
0,598360766770682
0,5821719337962
0,58130066497623
0,590533560578312
0,57811311775484
0,597805655876525
0,578145040558171
0,588731533967264
0,566198088330791
0,561642110376675
0,557657524866314
0,559969540489742
0,559061753696137
0,565899291626542
0,562764075614532
0,556178997262195
0,563057259677782
0,545185604534454
0,534117809756545
0,557526106384216
0,549784468061614
0,536306567588609
0,539640729699276
0,534686612997593
0,531711819212195
0,524156570181333
0,522792584781611
0,524789661498404
0,516773157768429
0,521432335809157
0,516005268230737
0,521790691783862
0,503375362323569
0,517026102542605
0,488767033235897
0,500390157236951
0,493212093276993
0,497460778688812
0,495414764651815
0,49004276419301
0,482176082332175
0,488662051345074
0,477066310666179
0,482238766127118
0,475788429019864
0,484201710840513
0,475553012961349
0,463522667090616
0,466983890345199
0,468359728740096
0,469154760972483
0,471514983367779
0,453501649264636
0,462610528378609
0,458146117395531
0,454741394788077
0,455013959509556
0,451441693411449
0,458409765944561
0,446211299743106
0,433452970676265
0,448657434571175
0,446080162494537
0,44252843546396
0,430574350337779
0,429949249892469
0,427662608126935
0,425229054027922
0,424254748941898
0,426127260928658
0,413020631643555
0,417489523106471
0,411971697219734
0,420521482985599
0,407411702501317
0,411105996328057
0,403975653803632
0,410584718309116
0,398227604403173
0,397278729603335
0,400466448250674
0,398706812860364
0,390556028604763
0,40027226703582
0,393441915851693
0,392705050721942
0,388490278716113
0,390096455812122
0,383545576877239
0,380800612833837
0,383550130085019
0,384673004872837
0,367308354455275
0,381564121252742
0,368888799309859
0,370739424522981
0,372762193029036
0,366810388350073
0,359360439851645
0,359630707379719
0,363036694269867
0,357228064086561
0,359345742806835
0,353921701308695
0,349014705192123
0,352839563276318
0,341748834926863
0,349980921595777
0,348027478024674
0,344286219501324
0,347188736353627
0,342559754851944
0,34018756430065
0,337097895926808
0,338214273037961
0,335509381775829
0,327582222551353
0,328086732420568
0,323549099547664
0,326288749436767
0,323861605214972
0,322881643419634
0,314798996962892
0,31674282196473
0,319599641988052
0,314629592353119
0,307417412999872
0,320893469802106
0,308925749879955
0,310884789832601
0,304683317526061
0,308064606584119
0,304324214574545
0,302740356612938
0,299382635007112
0,299122745697241
0,295136833168929
0,298353334604994
0,294131962277809
0,296167142671844
0,282295970404202
0,290466460828218
0,287624258275799
0,290700449711589
0,285156467143012
0,27818096607886
0,279406136415429
0,281643356740094
0,277954608564474
0,281750104585933
0,275684607876538
0,279489877389251
0,269893636783774
0,272985161089672
0,269441572592145
0,271373263125535
0,269881397695444
0,271251423023501
0,26457004571562
0,266566674833826
0,266659584613466
0,261786268241071
0,26301545829085
0,26889775983369
0,256604817993751
0,264720810959569
0,259201042232904
0,259803715370836
0,260639746956003
0,268008512001987
0,25589745018958
0,263386681144637
0,251223418965482
0,257225695026837
0,252338569341312
0,261980394389286
0,257254124404921
0,268316800204155
0,261666737832977
0,266536887822519
0,261964292977582
0,259522264784721
0,257895275291995
0,259257839582555
0,259563642472727
0,267002717200571
0,261719623453726
0,272316546125568
0,263111871546386
0,275055655323164
0,271261127499948
0,275920179117614
0,268730729050655
0,273787943118715
0,276713926614235
0,275594184563992
0,27815889323214
0,279192917249465
0,273148395758477
0,293135038412381
0,284321718234443
0,291742547817273
0,284622773884876
0,289608530939396
0,287320047200133
0,300402691421282
0,290101637406638
0,298047920932921
0,298581651860091
0,297378503404413
0,299931696826192
0,30352558743697
0,298983628823713
0,30909470838179
0,29940114148892
0,307605593246781
0,312803105152834
0,314481369510581
0,311051547091579
0,318985040472415
0,313904785516834
0,327610940005288
0,324742161919538
0,32902517993871
0,324757384452034
0,329173046968659
0,327791520418791
0,342679789226668
0,334477098031962
0,349800188170875
0,335970249127556
0,349272077325455
0,347214858001919
0,356073799428342
0,35021183310716
0,356853591537615
0,360224529291278
0,367257886001339
0,357255768079727
0,37242631409148
0,366047159831485
0,382021380236036
0,364422089341457
0,369969307538247
0,363283505842133
0,370867147035741
0,366358667977206
0,37300710707237
0,361756464446163
0,373998080642902
0,358471019647988
0,373196688877696
0,374174283036432
0,3749737469928
0,357632681680251
0,365853089795578
0,373913821997604
0,367517016471602
0,367680790812793
0,368486178355443
0,364778100767697
0,373855240738607
0,36681525590841
0,374743593573288
0,368773482280848
0,373566577564153
0,365096671192943
0,369007981692939
0,366527457899591
0,371345517222875
0,367874688040109
0,371196471058033
0,368567893634826
0,377111353471205
0,371437661876823
0,369779027903059
0,368684405818808
0,370153379317836
0,365968027797676
0,374903251685429
0,37098492365946
0,37843118441752
0,375200382821545
0,377187145297591
0,366564255432713
0,374945605241713
0,373179744672493
0,379085142625342
0,374877944099347
0,377363825855091
0,372138135214543
0,379545727886862
0,368161394977006
0,371587223648971
0,365515868227768
0,376988667335055
0,361726710973587
0,371643392693093
0,364612204442325
0,370376135689832
0,365383637035794
0,367240273040221
0,357543445828145
0,362139263631039
0,356297307455797
0,35775788311301
0,348533948013537
0,356317960095903
0,344180840457967
0,348638077550673
0,344026419825427
0,352190697976056
0,339994220322707
0,339555960821545
0,332040493293655
0,336357707232616
0,325787343682864
0,33045529678213
0,316341389597653
0,325398360565652
0,314964306898527
0,327404816705421
0,310473174890852
0,31320191066832
0,305017554870735
0,307482274609029
0,301500767760723
0,307870319178828
0,294923859184551
0,297595772409998
0,297259239736071
0,29876393793741
0,285384162330689
0,287751934754822
0,278668379041568
0,288784011893755
0,279573480124693
0,277006743089247
0,278005034071859
0,282007477526721
0,266786001959576
0,273125289665091
0,265958129561442
0,272854474619143
0,260845236911454
0,265982488852477
0,258213117596566
0,260122759494026
0,255845559671159
0,260375407291093
0,257734879736812
0,259488587026231
0,246817960967867
0,249236903033371
0,246828660932311
0,252091148634564
0,241803008776498
0,245073000575048
0,240638841979212
0,2442754479654
0,233192434052474
0,242091646356773
0,237006710344563
0,239085090541448
0,234402293077324
0,24143418419729
0,23655869447216
0,235236718658682
0,22966912962309
0,232939146273691
0,222655058014719
0,230031845017067
0,226281579023871
0,228738932677386
0,225995869295102
0,230324510305954
0,225052564714427
0,225103071154732
0,219283064962914
0,224054806257776
0,216827351809644
0,215450209824157
0,210648116684592
0,22152211312563
0,210788706277838
0,216838243832911
0,211392541941584
0,217976411477126
0,20673274824701
0,217671218382387
0,202497681686335
0,21227861265507
0,208453725208915
0,205943401786646
0,205746986809136
0,207423949615074
0,206571718943607
0,209551524802109
0,202320349788001
0,20678903056996
0,204044439649003
0,203195783842532
0,196185854201684
0,204116292605098
0,192945752011772
0,204148738245242
0,198847444412708
0,198886554676691
0,191722123761502
0,197548267021433
0,192739728046803
0,19782605791503
0,197029799206632
0,195985531554162
0,186213949555867
0,193145565961697
0,193154986728655
0,190958122170225
0,186786283078326
0,189665698111486
0,18548535939117
0,189685994236001
0,184376925274444
0,194129449541404
0,185403141839755
0,190026547032455
0,184680812514665
0,189416065940876
0,184768781052228
0,186069990948287
0,184325412385327
0,18376566129973
0,174975785284282
0,184626905089892
0,184345580710814
0,181491050066767
0,178624302537863
0,184183169131739
0,180998766534225
0,186772027345879
0,17365514021
0,179468113867393
0,181065951707899
0,181000579812975
0,175717930375449
0,175086472713642
0,178856973509967
0,183652653011135
0,179016688307857
0,178683080323895
0,176002066542388
0,178280558681301
0,174902820665248
0,179040467170073
0,169130630999601
0,175484429191566
0,17113065794554
0,175191696714074
0,171799290321151
0,17462484393407
0,169753569328834
0,177053739602914
0,172349786061059
0,172693759103404
0,16829593576036
0,171589294472143
0,170207156992757
0,173669946301872
0,166934381708332
0,170852692742632
0,170734235058541
0,170258480728116
0,169386127115221
0,169070231736857
0,169842816748991
0,167755901041767
0,166670145988471
0,170697037876207
0,162574327215859
0,170784750420419
0,163008461540564
0,165686009923948
0,160269819845022
0,16790559077716
0,1590137718038
0,165343795682466
0,16195436147651
0,164939500892427
0,159637874449876
0,163311524921241
0,163244632561028
0,161354628618875
0,157560267736384
0,16604447892492
0,157219624623869
0,161696100446702
0,158315971027361
0,158611968373312
0,154736249722809
0,158826401380808
0,158441540166225
0,158365791329114
0,153998621218197
0,157321487875223
0,151778381010133
0,154634906608458
0,153260140397775
0,157443372368566
0,149593416379251
0,155504794521271
0,151562619294618
0,155598136029986
0,150109322939495
0,153378761957734
0,150504353268283
0,150512753171172
0,146556209098226
0,148018527439636
0,15148556016373
0,146768531244559
0,145601040624124
0,14944833873648
0,146847396730112
0,144424753626741
0,141248889960708
0,147957094848982
0,1415639471153
0,147086145324621
0,141019085843119
0,138761823875182
0,135760681169631
0,143546535285263
0,137161936241094
0,141989159022706
0,137315740298196
0,140349916382134
0,134972744841029
0,140197815751204
0,134975548554753
0,135369978216239
0,136139204673044
0,13673660782384
0,133180392999012
0,132739868275441
0,132809132531676
0,133986426303286
0,130012345886844
0,132570476996262
0,126343836775503
0,129105257504335
0,130188342482654
0,132337626537324
0,125129071103107
0,129001100167737
0,12600522253851
0,125586654360155
0,118192067800709
0,126326987009878
0,123126397361215
0,125439830961184
0,121518394052507
0,125580449482138
0,120248760314428
0,118295068036056
0,116986396002797
0,121425201076839
0,118575556807906
0,120233211510955
0,116662695320717
0,118397901609573
0,11456797243989
0,117004761571147
0,116756739787679
0,118025872910681
0,115303515481586
0,115023076137952
0,112268784508165
0,117126186846829
0,111879471234125
0,11231686202859
0,108799718780236
0,111952815258433
0,110174500955172
0,111570647986112
0,105632270552002
0,111759378930953
0,106622191827662
0,110060538653196
0,108373289551663
0,110112915120143
0,105347988793064
0,110999818722998
0,109814997159175
0,107332034021501
0,106278623934014
0,107429011777094
0,105522892654583
0,108713472915605
0,101917612690904
0,107542626605609
0,102728717145053
0,104042788302073
0,0993274230112317
0,10326109353127
0,102098035823844
0,106183241544305
0,0990341694350483
0,105288231264954
0,0978625089576848
0,100342758369517
0,0966726602435248
0,100652252201292
0,098751761325363
0,0998637855220523
0,0977007668862672
0,0984699170355242
0,0988442079255213
0,103278106784331
0,0960849263028505
0,0999012446839504
0,0967177221833936
0,100798403908343
0,0966101083150082
0,0963038017540227
0,0947534111083882
0,0956988939682816
0,0935302033031583
0,0967683572198008
0,0934268445051587
0,099005715068794
0,0926478095766632
0,0968476989648791
0,0953830067342088
0,0967101338976614
0,0936251285450904
0,0957686025310287
0,0934670866930427
0,0946203455659081
0,0930291359518391
0,0948441448679285
0,0932881250896798
0,0928831016547979
0,0926182356341326
0,0972307834630954
0,0898051133069538
0,0940632033827114
0,0931212557299951
0,0925693148299555
0,090412474295853
0,0915848582264008
0,0879697962649786
0,0927138041561879
0,0900130862261303
0,0931108699095506
0,0883702260464504
0,0887122413127977
0,0888172454588758
0,0904606209973668
0,0870151755243507
0,0912832655830053
0,0868083253100547
0,0874560864921922
0,086110513467842
0,0885902560158592
0,0865947679947943
0,0880314957537771
0,0841499386366913
0,0879325361287312
0,0866658046988567
0,0876255525360606
0,0861061933375707
0,0885403038386558
0,0866021901861945
0,0882989572469161
0,0838012222325706
0,0884672781697209
0,0842401389668487
0,0865032235366115
0,0851460238308305
0,0857070758839229
0,0842681322961381
0,0869573496219317
0,0841922967803993
0,0850014389118156
0,0825930557813459
0,0841039679146172
0,0819153142435863
0,0835539862911052
0,0821011743509354
0,0855168126199351
0,0804103971319079
0,0851283733413775
0,0827071949185591
0,0872174100224783
0,0829111668269084
0,0806725780169101
0,0790467252084887
0,0845531692477049
0,0802959069983226
0,0796966701317642
0,0812568129504507
0,0832482345178631
0,0800563685847155
0,0784444975570014
0,0789799636305594
0,0827706781879813
0,0778746254659655
0,0795043312962402
0,0789988932564107
0,0806827227862509
0,074405826212434
0,0786093055935679
0,0786714428845011
0,0764638169168071
0,0737069357679262
0,075320442788595
0,0732234147546605
0,0797714559506193
0,0789464576373359
0,077290730451702
0,0753917192226107
0,0749733854887301
0,0750215851022702
0,0789460318028548
0,0722833027970833
0,0754380138595549
0,073715618853138
0,074464274262433
0,0717332271335585
0,0747180188740264
0,0716408831156028
0,070856656429322
0,0676733174580951
0,0736408234023373
0,0716699854336504
0,0742752601994648
0,071347552821811
0,070314392058126
0,0678223173553664
0,0728855478822579
0,0690295601878264
0,0697550622700192
0,0703163473304497
0,0722121486912742
0,070224251858559
0,072215010658213
0,0674435892606655
0,0705766690041682
0,0660888718206298
0,0686843645115654
0,067625030452653
0,0694709675316001
0,0673915936875913
0,0679221119454964
0,0675110624193954
0,0664978764972335
0,0633600221321371
0,0668395312216255
0,0624307006239597
0,0664653116164896
0,0652297566463388
0,0667473074730607
0,0646396134642719
0,0647913077849629
0,0633727590295118
0,0666882711539337
0,0605903765269601
0,0625973851968385
0,0610267479089349
0,0618099974339385
0,0595328663170979
0,0623162221931664
0,0592960420021678
0,0611593259296878
0,0600228474217391
0,0638820651665632
0,0633706921291611
0,0618090532171473
0,0587158094441622
0,0612254565338313
0,0577116879404078
0,0615629165415622
0,059524353135098
0,0591651286456988
0,0566911904555398
0,0595576239763942
0,0562119144742285
0,0574586459570498
0,0556959234455631
0,0596541629020197
0,0594064438565743
0,0593247358197155
0,0546176710972227
0,0577060482106486
0,0551177630424483
0,0609797912779351
0,0559372699250574
0,0567588028897227
0,0548440830001651
0,0563029746991332
0,0538488292714946
0,0572838413466719
0,0534637432536741
0,0542031052657857
0,0539311436260352
0,0555875421810463
0,0527126529441276
0,0532070149827758
0,0531374562335687
0,0562516738430531
0,0523533201261401
0,0521164640580542
0,0499141157964547
0,0543102786432367
0,0517032045656908
0,0542265848629082
0,0521838913325484
0,0517361662979444
0,0517150222080948
0,0549159097090989
0,0517971123086908
0,0526639848864718
0,0503061573571438
0,0527357064011572
0,0534121506228584
0,0550152616356692
0,0513406096490352
0,0541090636216062
0,0493970029772532
0,0508739186173729
0,0490419641609193
0,0520249961174469
0,0521088560942343
0,0539218954545553
0,0500735321776519
0,0518292232195701
0,0471692534846671
0,0510533668315233
0,0492068453034799
0,0524734204834889
0,0465244127434453
0,0518600217545772
0,0495693261053501
0,0534055097708042
0,054469703155322
0,0555571534299464
0,0498320564937342
0,0527461145460442
0,0499283866216378
0,0583278466643103
0,0547050141993167
0,0553431713108002
0,0492385540310001
0,0479694923972646
0,0461856462657415
0,0491604536411015
0,0465331054900788
0,0554224953896809
0,051581416513381
0,0512850875046475
0,0498793086906997
0,0508295992299555
0,0472484025097984
0,0495031684665379
0,043931152046477
0,0501304776540222
0,0494449153623874
0,0504257447205218
0,0478983272383487
0,0564930238624367
0,0474017549015689
0,0497464602785337
0,0510441554920398
0,05128707428505
0,0493980447525445
0,0492406635438104
0,0541660890463246
0,0457871981987274
0,0474321422271131
0,0480091311314837
0,0515094915920874
0,0421287066143951
0,0543408009041395
0,0464426512743524
0,0534680790948333
0,0373370532927803
0,0557039709965424
0,0372999713057966
0,061811730479192
0,036053911077225
0,057083960641162
0,0274778932739727
0,0654176198529739
0,0321522808748997
0,0640821085264791
0,0214352378966235
0,0656108324072166
0,0290707365274687
0,0625806118415661
0,0285229249228247
0,0574447003005273
0,0367075137908942
0,0504710869738401
0,0420086903763522
0,0453464035334888
0,0491951046506929
0,042347385724681
0,0496990829875074
0,0402029516608483
0,051619261303861
0,0389372820887342
0,0477987843203558
0,0413679140076708
0,0451146860081107
0,046833628877068
0,0432900663675916
0,0460577247554555
0,0415741264768363
0,0434217696299632
0,0411343678710028
0,0431155875585048
0,0456680509420743
0,0425232245520871
0,0437602893016671
0,0414975932133057
0,0433006107707984
0,0422179432034326
0,0420807605194339
0,0426334446480003
0,0426228071629759
0,0424176809574104
0,042823940149628
0,0423945260521831
0,0414886327642336
0,0416873914754225
0,0426784971896914
0,0427132252384917
0,0430264388472435
0,0405449359698967
0,0400976632541543
0,0412886962129978
0,0416848883360875
0,0401563469946736
0,0433732559350231
0,0413675339583798
0,041943735742252
0,0400539721848934
0,0431236287982499
0,0431770852788883
0,0405928709026302
0,042602364163117
0,0435982692908581
0,0409517744981988
0,0400502143758399
0,040079041406662
0,0415129346081499
0,0416397158488162
0,0415774408694641
0,040875708585947
0,0404169393577495
0,0417591905079788
0,0410293914768167
0,0406613378257567
0,0436543443968655
0,0417919513446276
0,0437603063704781
0,0422520022664287
0,046442003294992
0,0419902926880253
0,0412255603672234
0,0442118896201379
0,0420982861033205
0,0392022188230883
0,0406853664424317
0,0413149518345291
0,0425643184095086
0,0414191877747399
0,042546843107677
0,0387291013782596
0,043821835318975
0,0408661654938621
0,0425406042052134
0,0419128628944479
0,0415930335725124
0,0413789633625069
0,0409380114771091
0,0411106594838128
0,0402309771796994
0,0412602826284971
0,0433133838134381
0,0424585084370551
0,0427034295614352
0,0426022889343581
0,044512560363249
0,0396797291178389
0,0428370515903325
0,0404535935718647
0,0431512929720945
0,0431873643236569
0,0428586000953529
0,0427915193071337
0,0409360816768569
0,0409459209945671
0,0426516782060204
0,0433599115500984
0,0436711203286368
0,0435378155423641
0,0420256874951059
0,0417284062728177
0,0440283331356655
0,0435014280943087
0,0427095692023833
0,041137050400699
0,041347967994935
0,0407083582872088
0,0433178564614226
0,0423508888982903
0,0446271110944498
0,0419247132093491
0,0455416800929037
0,0429863436054935
0,0412263313842692
0,0454432196240656
0,0432070632205037
0,0424657072801882
0,0440602899378512
0,0435775999534239
0,0428951211070382
0,043988986611435
0,0461071503411495
0,0428862255598642
0,0419264311694059
0,0413397942904958
0,0452062325771498
0,0449957566865317
0,0439681210760276
0,0434139478199164
0,0435022526827108
0,046156987075884
0,0432599995104603
0,044887436673655
0,0448794826261728
0,0434304935266185
0,0448947647240187
0,0425367201194207
0,0450594550485503
0,0431578500304826
0,044130140027929
0,0452291153330636
0,04594098789097
0,0418349597542485
0,0428130741516261
0,0443916430980233
0,0453544055452694
0,0464677841349374
0,0460236969885163
0,0433218942034546
0,0426089181693532
0,0436622387329686
0,0463414776009605
0,0437352723613944
0,0465722536039492
0,046072190798691
0,0457786769892459
0,0440060250015292
0,0462442314400749
0,0442027783996928
0,0452636632190273
0,0460412940697814
0,0462776469214794
0,0455697044073195
0,0449338862715445
0,0450880772455873
0,0473527543502902
0,0460953447350545
0,0454688614488874
0,0441617081671342
0,0461925642474963
0,0437425015146805
0,048135116508122
0,044513594023134
0,0449202011696799
0,0463468377712027
0,045729396710398
0,0451295890403662
0,0465241620596475
0,0445147772624663
0,0437626942033245
0,0450990959801237
0,0440384507099144
0,0438540564021829
0,0473779461700418
0,0440106723864578
0,0432426765146433
0,0459305030600709
0,0455795647816198
0,0456224872355817
0,0441932939156544
0,0419563544488477
0,0451674591802481
0,0446263242811792
0,0432936495461723
0,0427639626891481
0,0443641798994467
0,0443709098356555
0,047177007292065
0,0415314007928401
0,0437929434109921
0,0425279121570724
0,0464644902451273
0,0419394623012493
0,0428774893214804
0,0403044835713106
0,0444970407191598
0,0441334817030435
0,0427709114494228
0,0415472061459022
0,0426202978473404
0,0425542477328467
0,0428993464478314
0,0426705120267074
0,0422935292596836
0,0399708539180068
0,0412387935523843
0,0423150125750635
0,04292902113146
0,0406198567434096
0,042733106699266
0,0400988894695299
0,0422502143448983
0,0398160931665224
0,0413124448285693
0,0407998869777197
0,0429222615294657
0,0416404296658438
0,0441447414685687
0,0406157802482721
0,0417822703805601
0,0388322541305436
0,0389088908759586
0,0406712022699086
0,0403519918272424
0,0418241929925404
0,042881784613251
0,0409622254945544
0,0439743289506823
0,0404129934663203
0,0414535619727106
0,0430271214811276
0,0413430466507225
0,0422390493933512
0,0405553933617992
0,0406657551411495
0,0408600353173346
0,0407910798083017
0,0407063905564418
0,0426940744392809
0,0408378647152607
0,039588685702736
0,0396386085743085
0,0387580504700714
0,0427686456990987
0,0390647443952561
0,0423792897122616
0,0430750514270713
0,0408204488148525
0,0400025892047249
0,0416137393604743
0,0415916316966218
0,042435782399318
0,040801737308464
0,0390014727079122
0,0400805604611227
0,0408835265882145
0,0437427962653857
0,0399457171454134
0,03984018663736
0,040658198119948
0,0405924923561419
0,0408388878101393
0,0398164309327389
0,0416468694003582
0,0401608740154436
0,0398796841456484
0,0409385390400232
0,0393443142310233
0,0387281245583512
0,0390048213056249
0,0392822038266345
0,0391006796405744
0,0377955915013083
0,0389467196012166
0,0397234084327047
0,040735097056383
0,0393975735908425
0,0410729983358199
0,0369549973580941
0,0403719061174296
0,0352998849383017
0,0429846961318697
0,0391857506783499
0,0382506297962491
0,0379542485004421
0,0394371252870224
0,0369383646903464
0,0401483237551949
0,035697096525338
0,0391498494415542
0,0382501230683435
0,0373697082789888
0,038422505716811
0,0375416762018918
0,0390716145012896
0,0394379615544655
0,0379480874066539
0,0372602526921374
0,0364130390962377
0,0376831473044805
0,0360836883516537
0,0376029836852244
0,0346334540740421
0,0396668373934295
0,0390763413476084
0,0357882229255149
0,0358314979015586
0,0343204567058078
0,0356023325715593
0,0346783680834514
0,0368824383442529
0,034280504412163
0,0370005499853794
0,0358884455295206
0,0339662695416695
0,0347925136493953
0,0359895732653674
0,0354909043758504
0,0346696159783152
0,0350693244195256
0,0344465171622548
0,032294409426092
0,0344441325336906
0,0366070228912129
0,0331261292909791
0,0325115668768781
0,0350351889720742
0,0340685859221645
0,0342638382229247
0,0342501837106337
0,0375130246797937
0,0279107021810431
0,0335406380764663
0,0321290593836292
0,0357796120065139
0,0317117714964501
0,0355381067451242
0,0328302724095155
0,0344422365791096
0,0320272104007103
0,033675075957482
0,0327079937791665
0,0326223312430617
0,0311427379707298
0,0341139141882328
0,0311495525355642
0,0347165952641945
0,0314789957656533
0,0323138425292697
0,0306402675128003
0,0353140262350073
0,0331389456813906
0,0340137241958877
0,0323936450495172
0,0353013148139522
0,0330780774794812
0,0337316348394374
0,0324220766059999
0,0298786345266812
0,0326390593931916
0,030571959964193
0,0332828534469007
0,031862130955623
0,03394834390986
0,0305508014593824
0,0296297478279769
0,0302283313440902
0,0346583124334281
0,0312942668467409
0,0321472651986571
0,0310065315915234
0,03070220068801
0,0293014139000425
0,0305963353529346
0,0308979814096053
0,0303394478399563
0,0288453577984424
0,0324146459463345
0,0266912700885301
0,0337426204709876
0,0302584604657012
0,0347400388341051
0,028109338046974
0,0396200634781266
0,0281015093374932
0,0309674865522708
0,0299085336942836
0,0312105579927402
0,0304443428453652
0,0302354054935181
0,0327925079715408
0,0305794689518642
0,0286985767346109
0,0323926115953741
0,0295034628363137
0,0289150596481524
0,0329024262083846
0,0296637228932146
0,0296879795491171
0,0299651581440309
0,0306898043898184
0,0300978975809871
0,0310051721343134
0,0278395281137782
0,0346418325983347
0,0314002601280583
0,0265642319436868
0,0338032482615261
0,0262783488985693
0,031794638962831
0,0344848366214357
0,0229468580063698
0,033455877853718
0,026106039137838
0,0313370329352568
0,0274008249108669
0,0315080496172417
0,0265750884580802
0,0341110346179639
0,0273011101908762
0,0338723179496917
0,0310227014204145
0,0326205039999992
0,0301363211930897
0,0325166954367461
0,0277069945604253
0,0325079202153474
0,0281343133317313
0,0297198117449363
0,0292506822738147
0,0288518492275142
0,0264920516624797
0,0321673603275667
0,0252331962584922
0,0346565153855262
0,0257416653471429
0,0324185936838296
0,0300541161772264
0,0325638357621359
0,025892942826278
0,0372702984691961
0,0289615181332954
0,0315072945593155
0,02938660109278
0,0285674312902617
0,0306800469353626
0,0276651964943018
0,0293450008723605
0,0279835494543031
0,0277545639456387
0,0292616749201918
0,029482314913993
0,0260528451940623
0,030117928807717
0,031248044431797
0,0335669886069539
0,0291955106227128
0,0289874617292989
0,0282479543344915
0,0291723798003015
0,0306265594675259
0,0299128923453348
0,0367126381412409
0,0300647822874271
0,0344353364388181
0,0279442232735325
0,0321059137167829
0,0272162006829476
0,0319206139383699
0,026639347485009
0,0316752304859913
0,0279532258964964
0,0314356239047073
0,0296363101484927
0,0311785571294777
0,0273751218336761
0,0300447747048374
0,0283638442801189
0,0328778046752702
0,0292801683357036
0,0319892127222018
0,028198635206825
0,0286806135718799
0,0301995728268603
0,0292149119368511
0,0322923969378204
0,0283529895315474
0,0329704599412264
0,0259020625658937
0,0574077756655337
0,020165359065818
0,0357919136545192
0,028509957063213
0,0318497188556538
0,0301112608819564
0,0293234542785165
0,0318504672537763
0,0325301034556317
0,03166089061971
0,0331453138954723
0,0290425831974827
0,0314173423085341
0,031399223001524
0,0317295660171971
0,0382998057549506
0,0342944333633908
0,0258092986703798
0,0323873661929313
0,0271005618687015
0,0412835575310253
0,029413695191126
0,0300723875488787
0,0367045800518561
0,0283949039259663
0,0321862483039287
0,0291316773538021
0,0335509513080545
0,0315494973745979
0,0354893811914588
0,031065966537807
0,0328290489498561
0,0309281636044796
0,0321824926089275
0,0346060163406282
0,0320747539438687
0,0364405081288339
0,0317163151177092
0,0324623007206707
0,0376873633897771
0,0247370898605908
0,0345893884654262
0,0320061784285456
0,0341538344599137
0,0323070740123556
0,0398752054892755
0,0341133236703537
0,033136219581438
0,0385625658851113
0,0338463493833556
0,0343339937942163
0,0353952746603665
0,0329732209308526
0,0387343033877779
0,0275529770218191
0,0553882790198399
0,0287606387784908
0,0380531785346448
0,0355631749769157
0,031998529212274
0,0382207199210576
0,0329642307886411
0,0379132597017939
0,0349320778660463
0,0418789345999401
0,0275351816910022
0,0439231134361891
0,0298637663672079
0,049208571502908
0,0302597567901286
0,0414471194465706
0,0355940544500702
0,0382065857508285
0,0335803031359676
0,0430411138495401
0,0311864656539876
0,0433735906713544
0,0469123174006794
0,0335302501821229
0,0402977554837573
0,032878427384337
0,0423248983701118
0,0522316453168593
0,0303401217778732
0,0444808338293144
0,0343946739921441
0,0437765482878792
0,0351475269439945
0,0453590953708787
0,0414126346022879
0,0394842333049621
0,043420430231845
0,0381507091306632
0,0367295779388631
0,0573199185565327
0,0351209291721855
0,0476321738722
0,0370710246676378
0,0513399991702974
0,0345824383476485
0,0748580500245474
0,027071790747253
0,0616036973475765
0,0365702988016239
0,0483407398330863
0,0442585061245249
0,0509638257719376
0,0459602986008126
0,0572765090012301
0,0506155293228005
0,0480279356539659
0,0472737119989912
0,0615241595194546
0,0488979882390589
0,0446977432562991
0,0548763460664259
0,0477661955609367
0,0617848346908975
0,0663989338038628
0,0692638747642999
0,0576650123032476
0,0585284573874006
0,0592214934173176
0,0713277473581728
0,0499673977322788
0,0620836659356006
0,056529997596353
0,0621946679930542
0,0590502838813231
0,0632822312545593
0,0690700645469088
0,0605749164599002
0,0654042451868635
0,0615852187534487
0,0691846355674724
0,0758569475076286
0,0781151012065544
0,0730892269876423
0,067238469772735
0,0920751521637025
0,0651650194085802
0,0731399630916717
0,0734533272543078
0,076092604486879
0,0780031159436693
0,0732352379834406
0,0760220900976682
0,0742089556164923
0,092745840793677
0,0772174076676134
0,0850371320257712
0,086716062381276
0,0874075289772937
0,100099033131496
0,0735920363731731
0,195098370201564
0,0761302984388096
0,110763892552951
0,0957127948387497
0,122644001050047
0,111632559876156
0,110831306526283
0,111574694482966
0,120888761290014
0,118815264527918
0,129148612730724
0,129270688829143
0,135143304382523
0,144261906239602
0,140087722684078
0,150525288576955
0,172976043145041
0,140973683769397
0,184435509003391
0,163733581286376
0,171780016125225
0,182866468352107
0,187569985089479
0,179583261243591
0,195762569984964
0,191258062543053
0,207230552749092
0,208044960437866
0,206854236047316
0,219214088014511
0,217020388384175
0,244553729822207
0,22136027536805
0,268430783969335
0,236026601674597
0,251536174514405
0,249418876119848
0,254029498224555
0,264682745379357
0,25888968701586
0,288459795588317
0,268125104831253
0,276919739632711
0,281142181569731
0,288994448949296
0,2910209065346
0,296019545269985
0,301856301957784
0,298183231447612
0,323716496777826
0,285461162323973
0,342783626224019
0,291295355189232
0,299082118450301
0,310217072224482
0,300579273241101
0,337850149897511
0,312141017526795
0,337081311336103
0,309446249020301
0,317021812791167
0,315412044803337
0,309470105060991
0,313985787504928
0,310914334754741
0,314120173325039
0,308938949960075
0,338666261238379
0,307923011097014
0,32477009302155
0,334317089563798
0,309353016735764
0,320160254710903
0,308019449997767
0,311804038641854
0,303532101069909
0,312723559398166
0,304732209866872
0,317396605650461
0,293569398426622
0,308912589191082
0,294650953339865
0,310628470077587
0,284203850560255
0,291945645077633
0,288974921509111
0,285016609691317
0,284895978979323
0,286968993063139
0,291007482334447
0,295872795245898
0,26631086348979
0,278173283674226
0,27300542584791
0,273743765558861
0,268096877342647
0,267027541481807
0,257437324014422
0,264958212195897
0,259331457722013
0,272185387012808
0,256569253650082
0,266271941625982
0,255077321157402
0,264017452288549
0,25684912564527
0,261131131410941
0,252275806107269
0,254371308063655
0,251958822451271
0,251930591625685
0,258126076894635
0,257096786549296
0,253862374332862
0,257023264700319
0,24550751139311
0,25520203314874
0,248631597627271
0,256881718625551
0,250110188235625
0,249134013062137
0,248447097491656
0,250498929677966
0,247257213586674
0,251734545525814
0,246631900086546
0,247663758173699
0,245520837074611
0,246762761438179
0,245243735859544
0,24494811678363
0,248378932171851
0,244541937067495
0,262176813446541
0,238796671107864
0,235401242476809
0,244766912577292
0,233043318774041
0,242433493021893
0,231091410046155
0,25147878893209
0,235811171018814
0,230532064591729
0,228306019770256
0,22760202986475
0,233587337363463
0,229077266396283
0,216073472758274
0,2299394418192
0,209884669156467
0,246177152710849
0,247042295380404
0,232062060096572
0,218281917819168
0,211897255003837
0,214752486695608
0,214151615033455
0,230368911626165
0,207607619950108
0,217039786992192
0,208690291790403
0,226331162309971
0,217998892612797
0,209953739254099
0,214761150712087
0,204199865311181
0,213462979028003
0,210618426038942
0,208483638743323
0,207639425694581
0,219588992231629
0,209021301653611
0,237831989919257
0,201192174965692
0,199889188918134
0,193805828522188
0,201619319303059
0,198857954330527
0,197192096982362
0,21276067992886
0,189222889617342
0,192763216127336
0,185062353696909
0,180718676758734
0,186429653509326
0,182403831271922
0,195838872987837
0,168474945432964
0,199652425298331
0,168922272637064
0,187954915912049
0,181306200563689
0,179412752335391
0,1747970971353
0,173020922804075
0,168911290762799
0,174739555385878
0,181384039569336
0,168524123312041
0,171106105628705
0,168945665914231
0,16095143271816
0,170845520406638
0,15747432413
0,162645003274585
0,157946525900347
0,170457665242123
0,177245386640382
0,147086214583221
0,153993202861068
0,148203762419205
0,148918987625797
0,156033106277662
0,148827489198451
0,152596156146183
0,151014203272867
0,15561830942927
0,157791962898111
0,145374280232572
0,167114739964695
0,152606133050758
0,157135543842813
0,1580638590687
0,158628196829454
0,165236557713913
0,169934871292906
0,16723196997356
0,169368045819744
0,162186840921546
0,17793995605494
0,162681679581847
0,17595102152547
0,169189227217246
0,181311653137339
0,176740736857682
0,188401396545087
0,185246768174359
0,19025100561168
0,194480387143187
0,203268297369357
0,197405466183698
0,225126788975509
0,204718503758436
0,232403150612338
0,22339310638597
0,237281739730354
0,235059448268858
0,233158929053088
0,243891327071862
0,240788009970015
0,245796451527214
0,255461373401893
0,246784350234741
0,26395714933205
0,25868723289658
0,26965500822922
0,264967342137204
0,272220636351432
0,269841725504443
0,288495264277719
0,294820566507883
0,270369467173499
0,296780498397164
0,283775418571743
0,293948822516709
0,29080051747498
0,293430473609177
0,293474830176467
0,290704888266094
0,299317979555864
0,296894961003027
0,30760975461662
0,30301139376279
0,300838389278074
0,306135027244318
0,311850564764296
0,3145027007287
0,313467557752383
0,313917288332184
0,319113762917398
0,318385450604728
0,32413575683036
0,31558622209674
0,334803949011442
0,332273480716626
0,33037555135853
0,335815474889559
0,330832465452694
0,342539205304374
0,337282129010002
0,347316106677284
0,350846490601415
0,348389305561611
0,353772151373403
0,350083371078804
0,362943637674691
0,360512344928225
0,370235709735984
0,360021137924997
0,365459779460859
0,374618319133186
0,365307698365194
0,392578597655381
0,36678349837586
0,381870557837202
0,376880801621273
0,386401738081687
0,382871082163624
0,384215332716303
0,382849962823723
0,387321799778242
0,385618527698044
0,386201009320403
0,385561191278354
0,383488055653756
0,390865514628341
0,390160824816635
0,391838384928464
0,381425546029375
0,385674828019348
0,388160815902243
0,383232504365606
0,387328393761745
0,38685880673137
0,391881569350785
0,380207740044281
0,385629302434979
0,386942430318688
0,397382409289539
0,388160139456517
0,3837437795516
0,383714392294388
0,386605064583005
0,383766532304396
0,396345670101989
0,381793103121741
0,397264719765049
0,38761187001306
0,391551820728301
0,393465268916893
0,396221601167459
0,392304062001633
0,400734917113202
0,401957469778659
0,402429462425762
0,400901824343474
0,404907801001339
0,407373882271975
0,411943610843883
0,410170458140593
0,404463380721602
0,404504020716976
0,405108795413842
0,401110647443556
0,409541281977489
0,40682935906589
0,403201706437417
0,39771298164557
0,393778508216222
0,384072421490629
0,391331642877054
0,381214503832325
0,388472853625518
0,381524350873396
0,368894571906121
0,374432356378563
0,366032533230784
0,368982312324188
0,357498261747788
0,358484125379295
0,353181758050281
0,358624262619407
0,35465360980055
0,350141456024612
0,353854203964967
0,354478192981056
0,348220169832306
0,348268168601369
0,346658499243809
0,347558888429712
0,347371887420061
0,343979530261592
0,346492795784525
0,344058553903982
0,342703630611494
0,346555849474643
0,346430735375662
0,348163120144067
0,339731026838502
0,349332270714043
0,338409371328299
0,34533013229742
0,340308440574366
0,344164649047114
0,341096298662598
0,339892821286201
0,339894362710588
0,341070450180471
0,341093049437401
0,341907642773209
0,338766043857096
0,339718748988527
0,339640921840195
0,339422395744787
0,339781661952441
0,339414321761707
0,338876532495871
0,337841975828845
0,338751313226425
0,331644253734368
0,339782169461841
0,336012747378596
0,339805326336076
0,339073991417503
0,341683696697436
0,3384025677842
0,337332283178305
0,340978318096985
0,337638797536638
0,336385104612922
0,339425411935199
0,338796288587017
0,336863302113851
0,332454644583791
0,331409413853178
0,331980436262355
0,329777323090739
0,329934463185363
0,329886661977281
0,324081945223969
0,323599209284885
0,321161621536061
0,322061179055498
0,316823927075253
0,312046645215514
0,3104014731711
0,306972350028853
0,306128100645904
0,304299002066382
0,298976800969263
0,295661664371293
0,29442329954245
0,296824931780078
0,291584280871537
0,292805138399131
0,290964568256865
0,290477302948543
0,288724187668207
0,286296810733454
0,286177225196822
0,287774847388853
0,285695811500885
0,285187707323508
0,284360974672972
0,286382300090051
0,286826711569434
0,289651870625358
0,289905679346916
0,291323600978393
0,2941776173844
0,292841681106449
0,293392478459413
0,2975248180178
0,298865774098545
0,298607814151341
0,300148262589691
0,298710858808195
0,300833185477653
0,303269777305302
0,304112311761849
0,304526007263793
0,307690633442507
0,307464084428775
0,306136088697099
0,307725030064824
0,308915351045842
0,307879488675389
0,304695487437625
0,308359507065574
0,307119457970843
0,306953166110819
0,304613549323217
0,303876506615773
0,306946014734951
0,302640376010993
0,300469961243939
0,30334008793635
0,301988637686411
0,303115813914453
0,300937262667715
0,297572594689668
0,297473226876641
0,296203778672787
0,297548660894094
0,295059157751024
0,292449874838695
0,295381665407806
0,293372268779488
0,292318163691056
0,291270315097473
0,287790164985268
0,290562854916987
0,288644162884342
0,286258955727175
0,285309836905759
0,287012251443222
0,283622924562488
0,283084893850362
0,284311408630425
0,278902102181637
0,278158617333608
0,277376048864239
0,280097917424669
0,27939143903826
0,277710609981119
0,274426720584893
0,275135316966232
0,271404426410691
0,270842303420695
0,268925359589726
0,269860715514833
0,26525961710572
0,26147411261665
0,260590492397075
0,259250171934515
0,256710757000949
0,255058487498003
0,255012456173764
0,253710503162442
0,248821403046352
0,24983964073528
0,249091115289158
0,248617492480223
0,247475360641358
0,245099247065128
0,246397914331076
0,246237760115966
0,245797957316789
0,24310835238867
0,241452639403123
0,24190564317157
0,240150251422469
0,238305779362104
0,236899655459008
0,231849728492813
0,230380585678504
0,227632838342891
0,224542505533389
0,222541707794666
0,219283435162179
0,218208606942074
0,218976255626673
0,217688228269828
0,216253960988481
0,220229183167556
0,222770857139849
0,226353918944457
0,231033104321053
0,234963484997552
0,241070207095721
0,24962943200011
0,261882495578887
0,270491179969982
0,280729104027561
0,289661462037392
0,303757353911814
0,314232252237355
0,326737981203656
0,338303452206326
0,346214873500673
0,35733315188371
0,37177639830821
0,381749129224716
0,390777626725679
0,401674526714122
0,415931366997912
0,428240559278483
0,43404109960238
0,442835353709285
0,451725104195001
0,458547486340158
0,469625398449627
0,476603168653972
0,481329679984706
0,485565796795
0,493115369085318
0,497513314655765
0,505185823069577
0,507383802290751
0,512998023602865
0,516000512388612
0,516649021726227
0,51603372464082
0,519662549382449
0,524367960572831
0,525049330807162
0,524438964355404
0,525649574374766
0,526065557861568
0,529128154773624
0,53104495618376
0,528307429290357
0,530790625898568
0,534199305048116
0,538066219647815
0,542868248026516
0,542087886863031
0,546951466601709
0,550907278940811
0,560187313055365
0,559409952056345
0,564849542366251
0,570425383111975
0,572727738211816
0,576224521625102
0,583788770222809
0,597575429318113
0,600785727146322
0,611886489222964
0,622365325706532
0,631603910422865
0,638037408869091
0,649009217079606
0,651037417034285
0,657358361579914
0,658829465718209
0,67165226431662
0,672588900230118
0,678699928925013
0,67795369996513
0,682025785516884
0,681622780706766
0,679246884218316
0,672702650337747
0,669905935364443
0,669487863357315
0,667150423587565
0,666414586204686
0,66775256538103
0,66791597805249
0,683442985940233
0,683718437551079
0,700108144951276
0,697799146382981
0,715012858264673
0,726270088026082
0,736200620001836
0,74412801776846
0,756493874584263
0,77363654905974
0,779222187075504
0,79159571458763
0,815848118933398
0,813579842547741
0,828678925495687
0,843392358122674
0,854028917824292
0,868837723567152
0,884428975647234
0,901405432271048
0,904423033599054
0,920553270011983
0,940540545581871
0,95832772618623
0,977632894265681
0,981618178057363
0,996244645261643
1,03159052145107
1,05139564097593
1,03675392076013
1,08925143487412
1,07331692584292
1,09715382887644
1,12315821193372
1,13526171569194
1,15734877218011
1,16369267928172
1,14757890617185
1,16818134642209
1,17732444211234
1,1709160069103
1,18515429267504
1,18755321479356
1,16952212090065
1,17497562237395
1,16108487198534
1,16445467753094
1,18034435595269
1,16316540053862
1,16523670862821
1,15232984612112
1,16200679592138
1,16998163199549
1,18033509226242
1,19632746960404
1,20511094950935
1,19475805128877
1,2090922170846
1,24476263585024
1,23989285290475
1,26852450607177
1,25366533643529
1,29623201298623
1,2843181772375
1,3246400431544
1,30849922900924
1,32035809826992
1,3268391723682
1,39485189083349
1,39655305916002
1,39018743084583
1,35162474143845
1,41322799769149
1,41402666491727
1,42097490038544
1,39911809958471
1,38894608732157
1,46208173850861
1,43591897824293
1,43083834100678
1,43551422968717
1,41998206087031
1,40928057086922
1,40780320179262
1,41378942129188
1,47876197355853
1,43334815537579
1,42851715745492
1,4157082401812
1,42875032383611
1,42389392948442
1,40224061117734
1,39009763452744
1,39404897901691
1,39686350510287
1,35973786755425
1,30883932526859
1,29458935030278
1,25029854941687
1,24496861284568
1,1945122089832
1,15844203516547
1,11468906224093
1,05215608120397
1,0207356254023
0,960351296516469
0,927408123226936
0,897006392778739
0,867307106802995
0,84899618294907
0,833180456969914
0,817658431697023
0,804069769917445
0,801183213460351
0,791585611371154
0,790173508016331
0,780753788312062
0,76917712288911
0,764425164953049
0,750924939144242
0,748954469828141
0,730291139099154
0,731045509646881
0,7073051229301
0,701926160964561
0,675460246896086
0,680041317756424
0,647139267601239
0,632917394978237
0,617714475312674
0,595394552363792
0,570456882647992
0,55900182448612
0,530945859409722
0,51420493581572
0,488257589627993
0,468437252962653
0,44029220116378
0,420645461670547
0,406467519442802
0,382809365755979
0,364258519761646
0,348070659445913
0,32461113915655
0,313196871881047
0,303103429227198
0,288080116216813
0,273192753359783
0,264577581547889
0,261345749001367
0,252432231795523
0,246294810376347
0,241104700536857
0,234646476619182
0,229040410141115
0,228503187727086
0,226439454430123
0,221744543825725
0,221702715747383
0,222997241243576
0,220673860222481
0,219711479272264
0,223863772211065
0,224139210478961
0,224955330172999
0,225356803884185
0,226125096032297
0,223597407461386
0,232143963051644
0,233580550711469
0,230725369427564
0,226453158072044
0,227165721553464
0,221694187585495
0,223859687464124
0,222166130124671
0,218687202330876
0,21878793070582
0,217143834669951
0,215547357053877
0,212481227627284
0,211563767287281
0,213019314599932
0,209585947268927
0,210385271773659
0,207766752629308
0,215263208605909
0,213259380673349
0,217394525324133
0,212830420672301
0,221587513392225
0,219669320470471
0,223995994521391
0,226925356027521
0,228060124602422
0,231606800259528
0,228384580770294
0,231266994981612
0,228148803546214
0,24033445484446
0,238152238626538
0,238114840916045
0,241598257303432
0,24152411994076
0,242457351868573
0,243020278616655
0,240862314392719
0,241751519983887
0,247596943893018
0,244239526337703
0,247713521362024
0,24987191715968
0,258100482111229
0,256629886164077
0,263150697848028
0,266375776780078
0,274074726373126
0,283689332542122
0,284725661274922
0,292192995511593
0,307043832260538
0,312475391742637
0,32407111139417
0,326850425912552
0,335781165640091
0,335533549930347
0,341620218118324
0,335284317497834
0,340974585702778
0,337844597386561
0,328450000305937
0,322178332374081
0,321793414772522
0,310182035819368
0,311792309023963
0,2965866447413
0,302123153121887
0,29681416842959
0,291955588343376
0,286217749881094
0,288675240054528
0,282785108495756
0,292183168493635
0,29195217137727
0,303488967738578
0,296196545784674
0,300044474632255
0,294815658729653
0,290728443528936
0,283318211190546
0,280822102991665
0,276277762863051
0,272997743746958
0,269397303307291
0,269029910621711
0,264101034485902
0,255132123861623
0,26122305902828
0,260109407281103
0,255736383309533
0,248667383879082
0,254796994203669
0,2441058153245
0,245260435172263
0,253655455920667
0,248611355433699
0,248480632268622
0,240664535464782
0,240307060772183
0,231051080402098
0,233798320147819
0,232968779194788
0,230427472539274
0,227412135051044
0,231071376580488
0,228361312031139
0,226613651271936
0,228160768321269
0,217740107149532
0,220299196687748
0,219089793173415
0,212136441205464
0,228676457117872
0,216649888277919
0,212020473348544
0,216300044613035
0,205758253242089
0,203211601612247
0,219689995114102
0,207539633190429
0,204560841531193
0,209920380197371
0,206628450074858
0,199040286744226
0,2054537680312
0,211675398357493
0,208438942172203
0,20227504218227
0,204253546233434
0,20840944232098
0,201868837795961
0,214520604742401
0,204216303136802
0,202443693587863
0,21835490144313
0,21048390955475
0,212672905965413
0,217381909646707
0,217378838454383
0,208859304177362
0,217607102808961
0,214007792382145
0,222799115693226
0,220292144338348
0,218095186593003
0,213309596999398
0,232245397842609
0,229378755034893
0,237769373424324
0,226392832317877
0,240582692150127
0,241240102966174
0,238141119034482
0,239066639013847
0,258879346923751
0,254193533692132
0,267942771300425
0,275409101541308
0,270020709168129
0,279030564241722
0,29301497913698
0,30470489650634
0,310894469141939
0,319291897789756
0,344325660643383
0,337946229744628
0,354635679955774
0,370287073904379
0,378780705094829
0,382052491601346
0,397455769495458
0,365159393710557
0,412987472283074
0,404261122592481
0,387325525950313
0,408616757816457
0,409474632427897
0,387742392896489
0,390188287159264
0,397048080029124
0,410575565364612
0,390860906531947
0,404860349880378
0,384134086807945
0,402286587926384
0,387839969841618
0,394104270770959
0,402285359369006
0,405883063995588
0,383880065063744
0,401112210689259
0,376049621073778
0,377194786882814
0,3697703561142
0,37674498987791
0,362954088510592
0,358589214157037
0,347296751877208
0,353604911633768
0,326324543606564
0,350899855086498
0,337950736828801
0,33634303545029
0,328287380908382
0,31794510445372
0,333314138337419
0,33430993906278
0,33063873962048
0,324485918130955
0,365567666084434
0,344275999822126
0,339748101649835
0,336469801576509
0,309539554755651
0,338915352910168
0,316264626410658
0,367524992373357
0,337316897658757
0,353272522873264
0,335000869057664
0,343730287708589
0,327854866889295
0,352904841924706
0,32290154414943
0,346478585219903
0,346394908804694
0,34318040994617
0,366282802850918
0,37807587343577
0,334329323049935
0,371385610932404
0,354892562726393
0,357123049402963
0,335382555466396
0,360678029305257
0,373305541698707
0,372735878050245
0,361083560167702
0,390183304166602
0,379814333039212
0,396098622018638
0,390355705417972
0,394751024366327
0,363517165061125
0,401688943304856
0,40393350315652
0,41199378683623
0,420069669041589
0,425546851540902
0,428437568983723
0,471353380458547
0,43677012224515
0,472921752737629
0,414140649272494
0,45625768804471
0,440229463391968
0,474468495300059
0,491741370816864
0,530156415039831
0,478916207786265
0,554882417527528
0,492454044602204
0,448061158150087
0,498954968504815
0,53154910609007
0,504590136046271
0,481707694681727
0,466458780408135
0,480770568803297
0,453102529619694
0,457911228501192
0,436619047130424
0,523056086884206
0,401396926527617
0,443349114415814
0,411299510146768
0,443830691191846
0,43707185290555
0,410302358318921
0,359319092695127
0,496820417666122
0,460537359082121
0,464217853613292
0,424556704608598
0,445802672673625
0,457598826109025
0,515556468517837
0,415597533895485
0,384488328161561
0,405157121785477
0,510520473346418
0,356718578168365
0,519053957927197
0,376568059037331
0,42760181422067
0,534072118213962
0,681407148799253
0,457630782272119
0,419716327219037
0,403258531019074
0,44410779793466
0,450965937602043
0,47685371412534
0,487488856206986
0,604688179217186
0,393255467943473
0,472431744557705
0,445127055805886
0,552996356060069
0,525934954441818
0,433962181110899
0,342498414030079
0,669371996220699
0,261639791478986
0,418690278715951
0,509926710616702
0,174382636890022
0,324197718295529
