3596
4000,36533379555
650,420452594757
1
2
2
0,044675083549727
0,0389112955139612
0,0440109103049813
0,0386603157724289
0,0324605595303097
0,0497594197084901
0,038856272386178
0,0397665631113167
0,0382797524415662
0,0463570018501718
0,0400226523266727
0,0417622302725619
0,0432025991765643
0,0412523144590532
0,0350569987640504
0,0472033478875797
0,0246543437278372
0,0509498723926095
0,0410815941709142
0,0400943240247006
0,0369139741991645
0,0347927157527741
0,0334846419782825
0,0443808604733046
0,0446782306197759
0,0397289601628089
0,0428603361676813
0,0437282129483451
0,034597328275919
0,0402186058569324
0,0524082235984401
0,0355962611524183
0,041616955051637
0,0425103339385604
0,0362534486268312
0,0468549243428578
0,0451196312677946
0,0432109801462809
0,0386345150691624
0,0360046693560303
0,0344472000706685
0,0402511783648673
0,0288179124783744
0,0390110786135197
0,0467065924055196
0,0402229931341313
0,0366649462340328
0,0314665578012201
0,0407103526440164
0,0394386671243794
0,0439431172575525
0,030433935689602
0,0419528962278257
0,029243510192072
0,0473218992450121
0,0474303993374546
0,0462957896747786
0,0443814474010883
0,0284019570874888
0,0399839683804426
0,0435743899054041
0,0276617621520419
0,0464941967757699
0,0319467300053627
0,0467749367820461
0,0272475844098099
0,0459337869005517
0,0293647396354992
0,0455530294259584
0,037569285577463
0,0371080973348206
0,045312613608706
0,0345205131095192
0,0461998056799219
0,0398243011706315
0,0331353337989101
0,0380020098159746
0,0353794897493068
0,0326182519666908
0,047057358919643
0,030206263599329
0,031386042519236
0,0320663870040116
0,0361812552231967
0,0474100959069897
0,0191521793249221
0,0290447993611819
0,039409392550416
0,03174497578293
0,0265177848627506
0,0199776693938014
0,0312348776450449
0,0367607929367895
0,0373869146408491
0,0392241984923797
0,0310722232550895
0,0345732304582451
0,0424337746634361
0,0331495137449138
0,0423641199068693
0,0186717462962557
0,0775469331839796
0,0131540913575209
0,0534673030123076
0,0412782439402303
0,0197395453082085
0,06197288886728
0,0117359184874247
0,0360934546060463
0,0237610195081401
0,0336244642532373
0,0247541399459916
0,0410393249103063
0,022939000439382
0,0379077589346432
0,0538544680913198
0,0282046461784788
0,0282811395487875
0,0260118380519744
0,0294120593520541
0,0317530659848313
0,0561672341225828
0,0118702056646298
0,0389382595980913
0,0232634324609036
0,023478855683685
0,0397515475165055
0,0320680886197296
0,0126502457073059
0,0327674736648306
0,0211650839275421
0,0357244128138785
0,0164837859960488
0,0450360842316401
0,0224891392931916
0,0318519461919352
0,0290717956325846
0,032770980696425
0,0522422039453505
0,0193935183500202
0,043688036657154
0,0256484661297507
0,0209007061422808
0,0381502103578867
0,0216242696435347
0,0321100009810006
0,0305695736213054
0,0260435417606778
0,0227539125834882
0,0497779119535348
0,020746273278873
0,0398020536775231
0,0431944049922262
0,0244440312760454
0,027900333900569
0,0586303556803216
-0,0124604330349006
0,0727002248929545
0,0111152268114224
0,0358754328977792
0,028810521209881
0,0309943743168287
0,029321137199719
0,0282814370461637
0,0361656495150602
0,0197229154030742
0,0526135292357629
0,0188304154637938
0,033905154865982
0,0308518898811388
0,0379716106692976
0,0202632689116779
0,0525060015961604
0,0428099692473354
0,0182424906012395
0,0498490404737619
0,0207514369977642
0,0263563091014706
0,0207420038319176
0,0478042494174293
0,0207594739006161
0,0290629233652552
0,0333040627271267
0,032176140145234
0,0290079827336545
0,0400888941984174
0,0304970709428961
0,0458371159806234
0,0224837855970131
0,0410256586566114
0,0309624189525722
0,0299131828311315
0,0098451388904351
0,0413861840302861
0,027083577735499
0,0313952271210453
0,0474567701777579
0,0226287446057022
0,0428599200026126
0,0295526144330876
0,0303128711916874
0,0340571337408598
0,0251850342261867
0,0434440732440436
0,0248011341504303
0,0470575153596608
0,0345307160981269
0,029691551038022
0,0364343723797539
0,0258350780326723
0,0321934727147953
0,0366144176094914
0,0775581875552117
0,00930287342378659
0,0354267117591299
0,0270345958881124
0,0387222461767522
0,0315205317948814
0,0272839289221207
0,029363202477683
0,029002565106841
0,0293936716905246
0,0327126544624365
0,0299648860243259
0,0378132098395914
0,0290934758276521
0,0422782395492031
0,0300360631748811
0,0323352699561752
0,0336015393071069
0,0290340717416343
0,0322499262364519
0,0359022901591058
0,0329782110154161
0,0304439833152422
0,0486645006484449
0,021192887017925
0,0342112338405447
0,0343027419084329
0,0364441650245617
0,0309382623304396
0,033267403816388
0,0269693204501614
0,0370034958338609
0,0360268581928405
0,041347682433212
0,0299950587984903
0,0273976435457616
0,043109611326153
0,0242801624485923
0,0562047650332656
0,0102278786165962
0,0466095006862587
0,0251312957113943
0,048919698792863
0,0252677718411753
0,0461621893082032
0,0303178560502686
0,0322288431925644
0,0298744996959881
0,0547935019606779
0,0224745519106106
0,0466393598554597
0,0330622530991016
0,0717732296833244
0,0230440091514985
0,0125501857122533
0,0352964904214699
0,0537547891850347
0,0261057131083401
0,0584900774864465
0,023743073214381
0,0712345620888481
0,0334446199419066
0,0414359833990451
0,0277869182516152
0,0473931589069198
0,0345165904755807
0,0369042857171289
0,0356571006766476
0,0181423915625379
0,0645167443748494
0,0292552038004822
0,0467899854066495
0,0573571849401914
0,0247246125697072
0,0831240539474014
0,0150416273565008
0,0488331667340626
0,0213035019406808
0,0584067209104947
0,0416405340306864
0,0722973086520485
0,0226956837696131
0,068102063072572
0,0214383543243455
0,0659542882857266
0,0324033596058289
0,0417513315585836
0,0323124985762553
0,0606316749331529
0,0398909792733462
0,0502436979774006
0,0400829351389795
0,0492174556266934
0,0501515262315325
0,0415687392459487
0,0492678248446812
0,0772839640107252
0,0344833629538383
0,0645739063528173
0,0386158518089596
0,0500573637991489
0,0463054178171874
0,0500025458881084
0,0413084233764607
0,0423914730619792
0,0384093282137529
0,0504424450769168
0,0528643816780627
0,0458352084465651
0,0546861965261904
0,0502989583657224
0,0463575478940532
0,048518982340958
0,0472179637856593
0,0502138151267671
0,0485555031640774
0,0538090705504485
0,0486122086470003
0,0711049804352062
0,0521454143845139
0,0500786998086871
0,0773826746068599
0,0357916901786629
0,0566328255117482
0,0527440107268057
0,0587616108118959
0,0535666073495486
0,0543769325289097
0,0646748969252661
0,0567020929694423
0,0629249683363243
0,0635552289582273
0,0641976134089817
0,0655139243692968
0,0808759960710417
0,06859152832172
0,085877460788499
0,0580478859812281
0,0724623468732545
0,0537442250425133
0,118426493222469
0,0459458550719846
0,101529939516058
0,0522589546904011
0,0643017447774368
0,073043141400435
0,0756681582178915
0,0721652432266894
0,0698427087994335
0,0716610157848963
0,0793979061229659
0,0842352993357842
0,0781196990639279
0,0819044124715995
0,079490672685464
0,110751327570896
0,110864095025795
0,0753253364927459
0,0944559175916407
0,0915016574893283
0,0923222344084082
0,128041183346985
0,108574865794758
0,137334406992107
0,080450987188967
0,117793491596869
0,105652512818048
0,084443174676817
0,11393730274325
0,102113250133545
0,118008834491948
0,10348616546546
0,114218628856479
0,113404185657961
0,118088618201814
0,110870105936829
0,132055421127863
0,11581245660088
0,124137828881484
0,119062408103694
0,141983202609315
0,11003118738749
0,149180288892293
0,132380637698807
0,179804864846757
0,146482713589509
0,153940191315043
0,105864519005329
0,151684611167366
0,131259907252974
0,15580775684405
0,143266118016394
0,166166752409396
0,14871822161044
0,167454200844198
0,182519738644818
0,167099704865517
0,16811387792399
0,17959919857084
0,146017195694768
0,19903676119709
0,160979273047669
0,20059356297518
0,156634450325828
0,176721479825944
0,168861342311257
0,209883267007607
0,176094909127532
0,204341564842344
0,177546870108969
0,190711382329136
0,195069564820396
0,190847847532338
0,211730322252534
0,204284072832348
0,204540243634914
0,215699862235919
0,204844904906832
0,219255287502178
0,212074566514894
0,224024158449408
0,236615408244047
0,230860297448214
0,225302564264646
0,235154317983054
0,203195799107515
0,259983488812378
0,218559024018769
0,266133932999101
0,231884722589609
0,288909350219877
0,236146321577361
0,245951481243169
0,242431163511489
0,266327440571218
0,259583882908256
0,276914197648912
0,267464692971945
0,27923671270261
0,267296738577276
0,281929584283883
0,276147075256668
0,302391596269194
0,298331995917406
0,318694624684817
0,287208729887638
0,313426248710503
0,288517458394971
0,327421699915097
0,304012221027812
0,359782227415308
0,311120940310113
0,339344255448145
0,303503702686605
0,336419117395897
0,326438742176955
0,331272576164323
0,314285274946404
0,343519936639259
0,334398915719876
0,354843341176356
0,342099475892701
0,35840410907089
0,354079866253556
0,378900953482326
0,357252959559824
0,385702692710095
0,368927750753906
0,386362211753895
0,371292390401061
0,390852298575299
0,384984364447277
0,423181926935896
0,389222422405363
0,411048258798401
0,402703065477195
0,414508414854255
0,402541235113149
0,42664821341719
0,404837503536767
0,443176585440726
0,412757833133111
0,435799825077483
0,431099290186641
0,470532421181713
0,431356946318898
0,47899465815152
0,446466133101054
0,479358017421096
0,449793180369467
0,478185953392865
0,466820204612188
0,505509363958229
0,469860806450503
0,515218693955098
0,458878807272863
0,495257554657962
0,479813661392385
0,51407670798685
0,480735660743261
0,507131729301807
0,496901152501416
0,530478617197791
0,497393936096208
0,536167481813064
0,503611971204797
0,542769577878479
0,501871796694264
0,548469503752265
0,50694779031656
0,568211048854776
0,552598043667031
0,559376538063858
0,521910246154604
0,601635623764326
0,553679732365591
0,630306231754341
0,56995243236358
0,61201896286833
0,577650509512592
0,617823575999332
0,557687078610061
0,619730931554433
0,55664808617572
0,593984628445277
0,59405906850276
0,627887212289289
0,615562653003043
0,645203302113112
0,612440286052338
0,654821156093106
0,611592853409009
0,700252553485407
0,655348243433743
0,666270742534065
0,65117001244262
0,66081887760829
0,651997154369598
0,72273976660465
0,681732468586379
0,717445935339496
0,667133559373556
0,73647077599271
0,70505155355161
0,682256079105096
0,648927656808116
0,731093330675991
0,70738225140554
0,738554823635657
0,699150493989744
0,729881155335505
0,692275269195823
0,741107724424581
0,732912907330254
0,718959272534641
0,690627795587824
0,739834687287699
0,688266391789726
0,745962564385603
0,749664243751874
0,822332364586269
0,738703463965722
0,779758505677012
0,785598506210424
0,781772029919436
0,739658158321571
0,78436669918685
0,751067865903914
0,863168879927976
0,800158923983843
0,833452693055561
0,790031346539391
0,824750054197301
0,83422214196649
0,847576429061902
0,82018117854566
0,857836326880038
0,821476845245037
0,858821175266733
0,8242612213939
0,890681864490262
0,841971406350489
0,87555114120289
0,840563072657224
0,885864274872101
0,836730344408051
0,886027035691327
0,82354363503117
0,879610800590501
0,844655593044695
0,855234324707402
0,822770974769981
0,935216520631054
0,878728958169245
0,938863950166043
0,933439665460431
0,985759888481908
0,853197590091037
0,897429723996424
0,90451427338379
0,942454018960615
0,90397034762386
0,953089594652225
0,912141858388356
0,977025997979382
0,917465543037619
0,967543829853475
0,956487964884549
0,93240193019065
0,915164713071763
1,06520292143977
0,982285718854448
0,981574468324516
0,890675740537875
0,93588177685596
0,946506176588841
0,996566526159165
0,904553295414467
0,998425631681205
0,969013351212761
0,964532675615733
1,00514201538467
1,0590148057608
0,992478840359076
0,984932988609285
0,982524966092116
1,04964104254483
1,03294767376172
1,05964601941894
1,03135552589401
1,05514765119422
1,00478511083158
1,09330152567291
1,02967509555841
1,0712696941433
1,0603619171803
1,07439918940286
1,02201509297278
1,09192625324263
1,02199331832105
1,04892550036531
1,02571211443318
1,15244224149344
1,06854333403476
1,07371395714232
1,07747606188752
1,06754049030922
1,05724419969251
1,11680985915189
1,05105805957502
1,07512802435938
1,07783011432619
1,12366218709883
1,0597494977608
1,11366974020392
1,0909976987674
1,07890975924281
1,10611650014916
1,18210393064171
1,1246274512379
1,1150798266237
1,09638369957858
1,13568317946815
1,05671806882809
1,1147186066371
1,14851436401619
1,13443185659426
1,08675188425545
1,1845064386812
1,17072431241364
1,16302938999394
1,13845972144265
1,13023351599146
1,18687813839507
1,22856358661952
1,10561458430593
1,1882834999856
1,18489275102972
1,16790935305992
1,09225553531566
1,14331052566676
1,11533446320248
1,15140812979741
1,18969981145656
1,18774098815248
1,14773547945495
1,17403301682405
1,18060282928254
1,20564136689495
1,18749980418246
1,14934864666527
1,08697077630547
1,20093454074725
1,17259096687811
1,15907650255574
1,13010830437326
1,15658391796613
1,22652915782687
1,18048484486563
1,19652706665661
1,20028815651886
1,17371941740631
1,26440056601756
1,18720589133485
1,17539087295862
1,12293399247434
1,20344132595386
1,15745006083332
1,22021154253305
1,20013006609363
1,19851913030923
1,23749137248985
1,29207840920529
1,1528602529401
1,15480554050392
1,19065348201569
1,16582644217103
1,18145689749148
1,16153086312572
1,18852449908841
1,19546328834213
1,20815921962081
1,24101322825656
1,16182808029545
1,24050307204864
1,14989521814639
1,16271192068387
1,2092839714368
1,21516128816924
1,2148551945758
1,18642039014126
1,18099559114836
1,1759383477287
1,14525032170067
1,16010095007765
1,21444550602838
1,20265271577316
1,19166618021948
1,26889125980155
1,1965746906749
1,1890219345437
1,16708302292686
1,2052338016986
1,27325008083543
1,19898693536138
1,19521781927379
1,24054635514087
1,23783784263772
1,21646294337342
1,20194791232341
1,15261423577361
1,18252002448575
1,27528050488041
1,23554754444915
1,21853562278361
1,21862958792589
1,17860975097562
1,11781107942186
1,16679782392008
1,20812452158267
1,21903705165487
1,27766229270104
1,26862121502905
1,16273311864812
1,14329819168067
1,14969557863489
1,15351667824642
1,15183565125336
1,22677143785628
1,25182200677259
1,12690300236266
1,13879404970813
1,20920746183095
1,19968311728955
1,17176005502072
1,19205155597789
1,21745229205709
1,18046337622522
1,18131168943272
1,19835059356429
1,15615463937031
1,17806434941149
1,17566052469062
1,1283926908395
1,17737444486058
1,17352888574796
1,15353553269188
1,20556980836772
1,15290708239441
1,11742015121586
1,15327904994392
1,19258142830265
1,20435715754892
1,12957921073613
1,14422400783455
1,19391174486039
1,17886251168669
1,22128293418735
1,16774087771595
1,1738432627186
1,16525523265387
1,14030262623819
1,15795350616549
1,15009916975319
1,1534251957078
1,17477731344316
1,09510887871332
1,11652075765805
1,12152201062571
1,11394789726155
1,11204283170927
1,10388092328084
1,10707964863783
1,12496696255858
1,13934664701817
1,10291001750061
1,10004636038359
1,13787992741543
1,17753499491129
1,13512754834435
1,05404182633524
1,13408747299876
1,12838758205882
1,1253367159305
1,09294482303653
1,08950417822296
1,09838766491694
1,10808028934966
1,09705314442689
1,11928057098487
1,0816259225209
1,03587610571471
1,02525199422397
1,07459984640626
1,07129406334345
1,06935671883631
1,04413863308488
1,04901972851903
1,05924587418291
1,06662436342247
1,04557586856439
1,06278461348505
1,00903644844556
1,0479396121915
1,09548756290652
1,04514026711176
0,994239410327227
1,0519312166294
1,0417478818342
1,03177600220723
1,00455666383714
1,00159420836525
1,0134976173717
1,03705689705285
0,978107067145677
1,01224158450289
0,997577546981188
0,997082276549581
0,989989160763413
1,0006853210504
1,01331236702483
0,984817168559401
0,971730002940475
1,00754773421112
0,99855754000381
0,97742329021659
0,976847135470375
1,00703035994362
0,961308144239209
0,962522243963925
0,961770891958097
0,956470138347844
0,909483311977581
0,953996689787983
0,925634502952587
0,935839605160487
0,933102609328208
0,913173648603639
0,933138941033153
0,937454428695878
0,894460000205628
0,916866625905713
0,897541252575013
0,912719040094133
0,876723429103263
0,911440190440925
0,896452836540003
0,897593412629954
0,868986362192442
0,862250770819154
0,865043486976608
0,864615504381125
0,841682249026547
0,874869159755226
0,854848133462504
0,836994837611941
0,847294542065191
0,84461644050945
0,816429458238994
0,843284349301408
0,83958078806757
0,844127782909508
0,831312327023953
0,838467392967182
0,809713525015781
0,826556090564655
0,798768991454894
0,838340191630546
0,810035696725182
0,792096271150367
0,807561527952351
0,815293478195321
0,784416629583257
0,797011072357312
0,766486345142356
0,801659308583353
0,777743928519388
0,753704900478815
0,760447074718114
0,783090167797986
0,758261092523723
0,751877471960946
0,758639839011556
0,748210958529657
0,740678549957159
0,743837151827485
0,717559092880692
0,748218638351322
0,722768528663168
0,733189417515979
0,711279975479295
0,739134902668955
0,70113551738248
0,704191462702882
0,706862918329348
0,699490021965723
0,697496742660071
0,702986129977868
0,670806103271702
0,682356068105415
0,700042020232697
0,687501302778526
0,683848006258391
0,689887039768766
0,678014781330298
0,691352261831046
0,657247378551868
0,661533204995456
0,672841567466664
0,682439011789017
0,666645909621404
0,659539500189987
0,650294433683032
0,646494750391534
0,639216429971217
0,650816534941952
0,633921301860906
0,631818611682841
0,617640683102317
0,62649025824588
0,622622566843692
0,616116518335866
0,614031603479608
0,616505842386651
0,602307335275158
0,618236043527255
0,617560435431466
0,607470579717246
0,608795475412761
0,609320420742794
0,594344467052592
0,614029333898268
0,589460110417802
0,605039782476068
0,589449555487062
0,592662790958564
0,576709942226617
0,573241032318932
0,563957841605933
0,584459088169302
0,565212992733153
0,579232160400285
0,558050669045759
0,56791921073251
0,555933382873455
0,552066178774696
0,551205549882689
0,556487545165439
0,549571679520784
0,550617314017106
0,542355750392954
0,538441097782017
0,529837546630144
0,543779627581984
0,539013476782841
0,537753373713254
0,526534904340234
0,52999490616927
0,519020746771432
0,530935557435192
0,514179268838298
0,516950601392972
0,498581107574153
0,507111547860252
0,506126484399604
0,513200146439464
0,509089354083931
0,499353185956594
0,498049601510439
0,49369102024351
0,49374052782998
0,489781430020963
0,487223321343724
0,488805055961951
0,480866924622747
0,496514242857444
0,460582037407959
0,474439361885641
0,475818291417927
0,476986610105841
0,464309645635624
0,467927452196438
0,454113895687784
0,46527468102954
0,457965811910278
0,465714277764983
0,459624934759585
0,469290005654665
0,447447796749494
0,453052392206404
0,450837372626093
0,449917485869602
0,444448810236628
0,447825968222298
0,434409376467778
0,440432222543765
0,437824020703596
0,447480717302117
0,433136869358585
0,432345621842473
0,424478351764483
0,423796326894168
0,418939817347797
0,425267869138346
0,424247228706018
0,424138379930977
0,413555662295413
0,411460609140375
0,417909787592723
0,412871229730339
0,419453590829616
0,418767974742707
0,415472134589437
0,409441549533943
0,404137593413722
0,41201387369336
0,406660605873948
0,417385125462674
0,404360327890864
0,402329137043426
0,405972523774125
0,405781633847571
0,400229866742201
0,404925261789732
0,394410080823418
0,397760573753213
0,398688469484522
0,400578154447784
0,397329037280135
0,400600616878249
0,397092596425165
0,412085018774739
0,392575443602505
0,403744028199864
0,400245285971013
0,404178913466175
0,393889709734382
0,404205428412479
0,405007189960489
0,403637649003218
0,406164910422812
0,409764545706541
0,401535375658375
0,414217545074985
0,414901582533245
0,415361883511404
0,41081715758387
0,41213410888198
0,418101974391092
0,423206849979339
0,416620098031528
0,424043437963976
0,417285591131878
0,41759860547534
0,423024678910616
0,432566465551256
0,426282159784807
0,437617865371864
0,422474036476052
0,433539024124376
0,433655730453636
0,441650895534892
0,439812089177205
0,430749380509275
0,433891022607046
0,438409147511328
0,448048696808081
0,455306869101811
0,449274731666262
0,454282194486654
0,456362263333859
0,458834453890016
0,461282681464877
0,465422528721334
0,471874520059569
0,472315969490162
0,464182772905913
0,480277596512204
0,485906368223909
0,484781335410137
0,47648793129546
0,497785441760194
0,484048088715778
0,5064816762836
0,494991290125365
0,504982649178759
0,504182059395499
0,518813021154067
0,506618305842771
0,515726402415521
0,509405897974676
0,52581287319154
0,516929487775201
0,517408625659549
0,516617499455747
0,540179745689047
0,527346772001267
0,544154208832823
0,523876694541515
0,529339902016083
0,523922391171932
0,534048523914723
0,519714625793715
0,535901155180003
0,527405142663681
0,528095937927963
0,518987301048132
0,538985914086858
0,528859406277965
0,52854834609083
0,530227095404474
0,530216861692824
0,527769947157254
0,543084382107803
0,530698165143925
0,535507315697282
0,525817367699573
0,528183214871982
0,524077303782702
0,530304811291568
0,522725419673194
0,535243528843943
0,520376716151324
0,526554851031703
0,530693305522757
0,53986080235665
0,527454381767404
0,529487826596872
0,532820443471148
0,540537828840471
0,522305984080431
0,535847909358746
0,540177033507304
0,543454619984612
0,521069100853823
0,538033602220686
0,527331463538707
0,533889114004883
0,527059792726158
0,545736531000807
0,526108048010676
0,547372509361871
0,528959609684338
0,537725146678235
0,522158567337039
0,531872248359882
0,522763494413454
0,542706804252085
0,511935604855038
0,535830567817441
0,516009231878951
0,538072517077093
0,520798734222812
0,532392150129169
0,522554614221027
0,523310072654516
0,518530782572918
0,520659327196421
0,513070738166655
0,524351041624244
0,494996489227393
0,513532910837738
0,495044461103795
0,519978177050641
0,49564014265594
0,500895897659236
0,491964311295601
0,501831692506773
0,48171185192403
0,4833158967134
0,476315917534105
0,485368579628659
0,478202454272164
0,470549207797501
0,463296247239128
0,476110167324173
0,458514125501697
0,473299673935126
0,44927536880173
0,454097055522309
0,448782586828248
0,456277277665175
0,440696786197247
0,44757647409299
0,441308961869968
0,437087168448741
0,439127090913811
0,436461688770917
0,42765643668721
0,430930920901184
0,415544368193959
0,432093021004925
0,422255283925183
0,420030362053025
0,41038502127226
0,409968264238793
0,403384925910501
0,409773972429559
0,401843846355076
0,404591107945676
0,398182699535647
0,396967460164369
0,395383836412917
0,403747987331831
0,386247552776859
0,395937649795135
0,38758730209636
0,394814077918626
0,379311552046301
0,383364488138731
0,382786105810488
0,383260646775601
0,371184983819783
0,379612242701351
0,372814389645323
0,376268291256426
0,360358089382789
0,378158523229774
0,371942039276767
0,371231635488367
0,363665246813109
0,368525319640503
0,366302257051072
0,366802305679059
0,359108675321466
0,363608983550427
0,357141151391205
0,359681186230774
0,350747055786133
0,360026569180296
0,35296187810475
0,349426887078631
0,348450226273441
0,358528841552318
0,350281948037146
0,350085883569626
0,334825723274418
0,345877954690051
0,34232320908093
0,347705593520673
0,341260316253341
0,350722700846723
0,339610625777694
0,345180990546333
0,337091242221467
0,34623383622938
0,336361874309851
0,337614232848346
0,32795488858655
0,338422527443785
0,334058308367049
0,341721479889867
0,329888033460992
0,340074590874385
0,328938499737803
0,328113619317642
0,327403538163281
0,328090229004305
0,323175063720558
0,325473586474365
0,329190298342899
0,330413413148029
0,32243718653146
0,321720748355269
0,317174019354532
0,319716768600597
0,314169867822118
0,324686979456458
0,313166866046566
0,3182450919319
0,315956372612011
0,322295571399893
0,307452182932291
0,318832798173681
0,313746175620972
0,31511729832736
0,310291736401742
0,317313179415627
0,307991211319087
0,311298477618664
0,309142049053978
0,313658065908925
0,313400117090582
0,309116552746204
0,30488660859343
0,305577574435966
0,303860921921817
0,306175255340617
0,308290758641769
0,309378735145074
0,298956714150444
0,306693399645025
0,301091220994283
0,308529091694865
0,297867687907457
0,307877974947108
0,299639566544355
0,30814084595496
0,301399823863624
0,306086588144467
0,300847589669142
0,301169461959445
0,303265185850469
0,303801193957878
0,300481916670227
0,302558277025597
0,294082377503988
0,299709621868499
0,293492292769369
0,299649241784394
0,297751774913419
0,297972362513789
0,295248592763758
0,296465580488021
0,291891828585097
0,300942858227766
0,293783404775234
0,295108232890258
0,291410908973423
0,295044481063261
0,287310371657507
0,297871476756183
0,287467386240063
0,293437716124513
0,287521439482192
0,297735289480464
0,293079936577779
0,294479211453569
0,284827771975784
0,297087897323443
0,285782667950922
0,285194154184843
0,286149176564858
0,28630719556987
0,278160502962356
0,287387120766416
0,282608485767755
0,295278167768135
0,277486302262021
0,282446623545732
0,280168523111289
0,285889746840592
0,276509559670686
0,287667893424388
0,279200881996926
0,283013231180668
0,274418888238282
0,28118204502806
0,277121131861332
0,281213184217455
0,269390233804972
0,281032770305616
0,274493587827352
0,273860437628163
0,272347544994055
0,279995782054343
0,276654815290262
0,276342316332166
0,275803554670231
0,274370180149028
0,270131719394092
0,276809889113799
0,270287040133625
0,27341012299914
0,268791206985765
0,275098116976596
0,265862273474531
0,272641401073485
0,26504356301486
0,267152939247987
0,259592240045326
0,26651653152147
0,260413306487006
0,261142167318408
0,257478712021484
0,261820463308613
0,258128029311668
0,262370782836183
0,255105836467829
0,261683852183985
0,255995589308883
0,266024207858481
0,252769357293988
0,260195049118864
0,253292832975676
0,259026168229469
0,247413177057958
0,258911641843841
0,249065003849618
0,25655735956341
0,244633051840692
0,250318251673658
0,243749867490861
0,249257428239982
0,244034652730691
0,246526799948559
0,245186125340141
0,245659718398318
0,242646661361062
0,246567370968704
0,238498584647732
0,244747065837125
0,238098637465926
0,242125496622265
0,239781800049256
0,240841446353678
0,233857045262236
0,237371994039763
0,237502295175687
0,242154147362268
0,229901055914655
0,235442737706548
0,233329110198247
0,230568007575289
0,231097973552186
0,234820581514857
0,228525042649601
0,232240235857153
0,224823588463804
0,229675080241072
0,224607743442033
0,226459377933843
0,223104612330768
0,226740904149626
0,222263370313805
0,224957625839056
0,220744727404468
0,224271292928648
0,220870191263574
0,225862666853265
0,216394766788288
0,220090257270013
0,219208790395562
0,218092984730716
0,215053273479978
0,222889628965951
0,21110755397255
0,216399047475398
0,213130316778141
0,213384602918592
0,210748059115061
0,217405902180368
0,211115457499239
0,213077180602815
0,211276558291962
0,208153602779035
0,209068839540065
0,216566017357767
0,210245757849218
0,212986613205286
0,204556546448518
0,210293440010244
0,206894278344145
0,207144540933972
0,203986381287867
0,20634968412635
0,200045327211386
0,20425086610297
0,201953519412901
0,201789752414662
0,201533929602467
0,20384099328943
0,198058345094207
0,203928738094733
0,196029654826879
0,203256897245877
0,197760136522799
0,200471273581832
0,194018734935854
0,194240649064418
0,194869258721359
0,196037936200807
0,193926105882798
0,19377963585559
0,191169786559583
0,199402199641496
0,193974807829578
0,19447303310347
0,197227100687318
0,192582790861272
0,188250946672712
0,196283411759977
0,19297195950722
0,190734022334508
0,188307791155416
0,194662691050545
0,1894263624548
0,193128968949001
0,191657419921691
0,190282916756469
0,185363196772112
0,190555049775028
0,187551209680302
0,190619852637567
0,18503719463107
0,186456970532586
0,18450936496506
0,187966114014242
0,183017754289379
0,187497016538637
0,187289214742363
0,189557889240845
0,18421360279645
0,188908220249148
0,18409301984036
0,184954248451729
0,181360903076507
0,185223316822889
0,181299332314106
0,183825054929831
0,180766190175364
0,182809986480284
0,176351083165025
0,178802084869343
0,178406653491278
0,182294288226105
0,17508589880601
0,184648295333723
0,178066599214176
0,181162989188579
0,173390957673021
0,179337553880787
0,177020061841085
0,180167096530467
0,176977083736126
0,179060959866341
0,175480451294506
0,177382352801071
0,173400690111916
0,178375990435759
0,172135511485521
0,174481866333293
0,173894865484432
0,175221060499184
0,170310750413064
0,176202743327106
0,171524345144468
0,174135267672905
0,169122805817466
0,175659691115596
0,169059305306126
0,170038535260228
0,170911120565242
0,17462512761729
0,169466257029855
0,171916239568853
0,167756086816662
0,168495123706955
0,166052083770569
0,170150994695245
0,165022297093142
0,171331297177115
0,167974320344898
0,169145985629716
0,167105096864691
0,170556164854101
0,166262849254466
0,166037126366883
0,164382632101628
0,16576707923229
0,162847447945596
0,167260247973531
0,163339409694924
0,162631440912779
0,158305601968112
0,163774091179904
0,160737438904668
0,163231657532082
0,158529895646741
0,163272088820387
0,159572858370637
0,162210438055669
0,160170748562983
0,160622825769145
0,159620401928833
0,159534508497035
0,156983944752418
0,159231854575802
0,153674157851166
0,156132350809149
0,15597070433157
0,156565250031778
0,153286649249351
0,157292928826189
0,153631863973509
0,153653343092791
0,152672837656554
0,154658225546049
0,147973104202122
0,151979143516091
0,149778640219596
0,150358506247361
0,147578836994823
0,150187659686493
0,148359537155768
0,149241542062469
0,147506858357193
0,148087323141105
0,145036454217944
0,148389246545833
0,14029568588767
0,148192661560765
0,144092000354988
0,144613786936592
0,14334525649545
0,14440344484139
0,141493194406036
0,143271528184886
0,140870999167051
0,143845473594089
0,138001312462081
0,138812416589303
0,136681738450496
0,138358013433023
0,137795405243936
0,140353334161626
0,141069763576735
0,141043416311132
0,134224632516508
0,137813130045667
0,130673708286326
0,13635108685801
0,13412749495412
0,135993345055268
0,130630761972811
0,133923032032877
0,131618176757985
0,13420102685173
0,131430684490671
0,132593039782612
0,130709392543823
0,132293043938979
0,131101918813943
0,130441947985894
0,124326422842842
0,130466099760038
0,128427713548385
0,128285258889091
0,124342081044611
0,127286187294966
0,122155455770078
0,12603825319987
0,12156332295378
0,126238648129814
0,123572755082915
0,124683304184278
0,124008776379457
0,128852164773982
0,124430757927757
0,125080784042014
0,121002684675178
0,122870396548316
0,119411186040992
0,12072676805558
0,118938169718268
0,122528787448152
0,117820882696271
0,119251147585618
0,117389658495403
0,119152318021746
0,114787106945662
0,114992861349994
0,11321247216334
0,119389835102777
0,115253203074487
0,115578211037837
0,11440539490555
0,115914279895026
0,113454395091013
0,115377344922175
0,11250877151409
0,116009141125534
0,114368740621639
0,116325017801927
0,11311923627878
0,113844783874396
0,111137981950018
0,114678223583073
0,111330981977469
0,113558410692961
0,111309614672088
0,113802764613015
0,108077443272833
0,109351373435719
0,108421419645508
0,114552597090184
0,113561595633021
0,114465986592346
0,109847884588449
0,110386798936555
0,10764963988713
0,11268797765724
0,106174471023949
0,111686960312408
0,107705449831062
0,107744848450602
0,108269609047579
0,111469243130448
0,1085204236878
0,115682411817331
0,10686094679761
0,108822221143508
0,106346237968201
0,112396877508044
0,106063673409504
0,109398769088363
0,106266783450049
0,108119166666569
0,106076154034935
0,108792758499503
0,104236810219413
0,113035220696034
0,109152618785026
0,111481514113354
0,104538444464872
0,1045742411283
0,103454145732431
0,106408774531732
0,0984466554441214
0,103075491578435
0,100834276884695
0,107359377253917
0,10255755903059
0,114736525768019
0,103180618534087
0,104923709821842
0,106775126717023
0,102476629042445
0,103681872716835
0,106265558809567
0,108172650168244
0,102300206727443
0,102498840576995
0,0979006883177423
0,102057729473906
0,097188006353324
0,108665703178883
0,10011037779126
0,105053896394291
0,0920201224091168
0,108396057660897
0,0927306134840547
0,119805686471156
0,0918153970773882
0,112959763789662
0,0806628763120023
0,117501137079664
0,0821799103395983
0,119106778763309
0,0746730474798228
0,119452195054044
0,0778740195705594
0,117051413115163
0,0789084697890701
0,110124278092652
0,0865398523448738
0,105973436786669
0,0934024309636091
0,100257090645164
0,0965917563933967
0,092953527045578
0,102574305690366
0,090771177461333
0,100896128856285
0,0894328921523191
0,100753885604626
0,0941405553019816
0,0950063906122101
0,0945542403778287
0,0904925443082997
0,094010149931282
0,0921518632368849
0,0950573768516935
0,0938669063432076
0,093919348994613
0,0939349968100836
0,0923999956781691
0,0931082483848113
0,0942039981545442
0,0934460663184605
0,0932911362089574
0,0939069015185842
0,0917015382954383
0,0935644388030874
0,0934442848609021
0,0920655911623975
0,0940208439624523
0,0909002549632815
0,089311745785975
0,0928540153443572
0,0930420822100544
0,0909435625333822
0,0898856942407901
0,0921397726313469
0,0918399507897032
0,0924501135446898
0,0910279868317145
0,0917165635750025
0,0913401488800476
0,0926119380438179
0,0899930269518633
0,0891404857872958
0,0900083797099143
0,0910780427101287
0,0912683025357128
0,0907321921050952
0,0921928453883565
0,092132154692929
0,0912995963536731
0,0901207776129982
0,0914343676375884
0,0918143223027489
0,0911060003641327
0,0913654358306827
0,0916540579629451
0,0908625638097473
0,0879686827675021
0,091952117294831
0,0903022173569506
0,0901425865578006
0,0913486658299212
0,0941779574163267
0,0904826125834032
0,0914582438351728
0,0926317287165261
0,0907813497954259
0,0895306495305103
0,0906976363503829
0,0899619724151825
0,0920002538692181
0,0908187565228672
0,0911989725248482
0,0867387331614056
0,0922369158869765
0,0909524908881703
0,0901095719824751
0,092286874638553
0,091875990955999
0,0885687496989621
0,0898008971687549
0,0899682476482299
0,0882085373724329
0,0904847328082692
0,0912217950861241
0,0873966832941561
0,0916259261962397
0,0906849558740665
0,0913336007138922
0,0891471709758691
0,0922248141683278
0,0876529375000743
0,0899892643908639
0,0892423844478748
0,0907195956615109
0,0910738252743077
0,0912326193897847
0,0909201334169265
0,092927358662277
0,0923100353274298
0,0918341304462291
0,0909958338147075
0,0905568332154206
0,0893779637072936
0,0935268788218711
0,0909958337639151
0,090176163336656
0,0887458374844109
0,0897261383387208
0,0912547091436113
0,0919975487352453
0,0927313281396878
0,0927950045229379
0,0913964555870546
0,0927446030423096
0,091349200043069
0,0913013421713912
0,0949179203100261
0,0920114259557935
0,0909399848561948
0,0926355169136475
0,0946943987814984
0,0927955333371743
0,0932232093419035
0,0948180243330981
0,0929171355556824
0,0936364392900206
0,0932256533794707
0,0941959991871305
0,0941822708050752
0,0940160960913286
0,0936841736132904
0,0925049793668661
0,09256345733278
0,0941462706380361
0,0929239255255967
0,0915310256662679
0,0932443034389722
0,0942474474865427
0,091524799185828
0,0924122396289797
0,0917075396626614
0,0919506085082337
0,0933402241092971
0,0955631846316737
0,0929308112880444
0,093305300679963
0,0940753600682382
0,0960901728025789
0,093911888741974
0,0947898325505933
0,0928271941532492
0,0935764245029957
0,0953296577829757
0,0951429965125856
0,0933477562789712
0,0951729523985445
0,0945220388719522
0,0951096613159892
0,0948062299212549
0,0972116675040067
0,0955262742709021
0,0954476826476514
0,0944946430913373
0,0962378213251879
0,0946204219268587
0,0958261886137839
0,0955289145104374
0,0937892153372006
0,0967117485977361
0,0985518086020399
0,0971995309259839
0,0960948444863894
0,0928571859443628
0,0972163460005759
0,0964789608808975
0,0974260690243997
0,0963944468005245
0,0954574483424034
0,0950941302924961
0,0953109769085128
0,0958046418956173
0,0944234145308654
0,0933775563809049
0,0949514558461031
0,0942401695043052
0,0955821183245376
0,0946280624999758
0,0931780622661696
0,0939231452089483
0,0950456701538877
0,0939428043388401
0,0954219534938169
0,093943551300309
0,0951041463235223
0,0929711447256833
0,0916927704805108
0,0912389307881688
0,091305385897242
0,093475452097891
0,0929995052826347
0,0905633703679692
0,0942284394540002
0,0889678851451852
0,0923734949955878
0,0913962763998829
0,0917464841817466
0,0901275959818767
0,0897691064437921
0,0897484049533215
0,0892147651285448
0,0890895472366124
0,0896353321960945
0,0880117474701211
0,0901545472187212
0,0887598282020439
0,0895681792334371
0,0902570385058793
0,089905012902325
0,0872828736425191
0,0901154521557464
0,0883395036595441
0,0903694114122024
0,0873055822878898
0,0909563813572128
0,087765464552213
0,0887474566272026
0,0884887106732847
0,0902169357095859
0,0893382770320458
0,0891766264034424
0,0865024789354159
0,0872033120736474
0,0847574440617658
0,0849885720544495
0,0883291464967382
0,0886090136088483
0,087076336920113
0,0851938466590202
0,0858441029023259
0,0888318210935745
0,0856123903050869
0,0847411904978988
0,0875476334555306
0,0862942577053751
0,0845280310403036
0,0853723519386572
0,0840352609666294
0,0865464750261858
0,08372344586459
0,0857348153183704
0,0849667770808384
0,0853851656308035
0,0853976636566695
0,0841271444335945
0,0829146387582884
0,0862391608512843
0,0859947423771097
0,0851285888839508
0,0850260695697108
0,084616055748686
0,0825255902209984
0,0863692892015106
0,0855393978931423
0,0868263900181436
0,0859504632238599
0,0838497083000532
0,0849528811763516
0,0842557589059799
0,0864219033793922
0,0841588352437618
0,0828908842727138
0,0827513019048961
0,0846945470160217
0,0847934717128145
0,0816509913018852
0,0835388035277168
0,0827720932190758
0,0820796900315557
0,0848637755872117
0,0844847317593016
0,0838801350684238
0,0836002828935471
0,0818770297205427
0,0817536065990858
0,0798502860973024
0,0811218105260189
0,0808856523676928
0,0825591364014618
0,0791853129765709
0,0819626221048688
0,0792846037061228
0,0820620326948598
0,0785536527002456
0,0824272062113671
0,0785465286423011
0,0794360888008875
0,0807526330036536
0,0793117598428241
0,0781342885343109
0,0790107765026104
0,0776168315842945
0,0815834604460798
0,0797068159862923
0,0780123692418965
0,0775784430392193
0,0783814048476808
0,0791132567923805
0,0791590713446197
0,0785001826754735
0,0760863714340759
0,0760386147530089
0,0756470264707175
0,0757176630880413
0,0761641093221329
0,072299707347606
0,0790204876068488
0,0774086822506499
0,0753857478726892
0,073197437303344
0,0731167800114706
0,0724623814310841
0,0720183024457483
0,0719072485785019
0,0714221669639383
0,0730697231737115
0,0715602292108757
0,0708044565058548
0,0717413106939856
0,0703122321278664
0,0685376926113095
0,0693696333874288
0,0711927022991537
0,0710082759031101
0,0697554499108135
0,0719178062620835
0,0726372944985592
0,0699515682945261
0,069015816184944
0,0699636385811719
0,0719930884239398
0,0677054356048913
0,0675166568298271
0,0726170160131702
0,0639520403128216
0,0703189356468795
0,0649226676912236
0,07043989697301
0,067229956922344
0,0690932878578555
0,066319550425908
0,0699262497180842
0,0656162639413059
0,0687208472037068
0,0676199856729136
0,0666056107848335
0,0662167423851335
0,0660051735609991
0,0656995057913714
0,0675207307749117
0,0663099152323704
0,0661680276425709
0,06624580327467
0,0677177273351061
0,0649115720856374
0,0683918950314478
0,0651711857259724
0,0681127736099927
0,0653123157673373
0,0668339017063756
0,0648460199773235
0,0665252492200809
0,0657051154941984
0,0650830801139062
0,0654564734453854
0,0653674347494085
0,0665922140973451
0,0648896692196734
0,0629633972379441
0,063797750201527
0,0653862837318538
0,0614921180290381
0,0628357849714995
0,0638520783625499
0,0627689811941371
0,0625497778606657
0,0628646724672162
0,0613024390326866
0,061342967140213
0,0599770848621528
0,0630281979397659
0,0606190545119827
0,0639490607855667
0,0594289708449884
0,0662008588456264
0,0568424425510704
0,0683727039307248
0,0615876622846881
0,0630600119766978
0,0604050570749842
0,0596636340493926
0,0621889675370656
0,0602274782957367
0,0608074349393155
0,0617261357981577
0,0584586498169437
0,0614199056991302
0,0613685790234688
0,05933675558496
0,063189481407385
0,0600405074771734
0,062508013126582
0,0608074707253071
0,0611167495973508
0,0610469507460134
0,0582270712454347
0,060350156114251
0,0653311492880774
0,0661608037421173
0,0569856922185273
0,0664395999151213
0,0568117250156988
0,0641512327195452
0,0650123117209649
0,0551897963850662
0,0626426439044349
0,0559348502402812
0,0629547086006361
0,0559527759297989
0,0637073514562255
0,0558894067391856
0,0650800153559904
0,0570409109700857
0,0645786331684218
0,0614900844225401
0,0606834297213965
0,0603511253011738
0,0628127595572516
0,0587052241988911
0,0637302145367856
0,0570135525855213
0,0614809047255407
0,0577391373147592
0,0593744827818516
0,0589767445284138
0,0626035489003883
0,0561097110120003
0,0621926177029396
0,0574817063762287
0,0635875699770125
0,0574449813758818
0,0618859298436005
0,0565528304332287
0,067582425013075
0,0578073900440012
0,0602414857988456
0,0589803750784738
0,0577734229775611
0,0594617737674051
0,0579848728093555
0,0612711529278831
0,0581584560496874
0,0584708465010188
0,0555478508977892
0,0607391592689547
0,0567924461219034
0,0583051236731966
0,0605328970747734
0,0604705390184315
0,0601464020232434
0,0590855439711002
0,0579313510830566
0,0593908238705359
0,0597297281210109
0,0584417348203446
0,065762331566324
0,0584750966254944
0,0633002391287121
0,0594769219817902
0,062485755360333
0,0559381966064624
0,061368830067459
0,0553546698756601
0,0613882747420712
0,0576315876536829
0,062794718036952
0,0604830706491372
0,0618771183285767
0,0585523356025073
0,0600131616808547
0,0590788734245142
0,0632891691609232
0,0604211178549978
0,0614049719999997
0,0590195182191722
0,0598255884365752
0,060736772180442
0,0567282263875206
0,0609373592851966
0,0567254716138652
0,0640392657979144
0,05394472433691
0,0858046528873422
0,0481657633737839
0,0680334668325147
0,0577453560018715
0,0618951667628588
0,0603960721121961
0,0590252109992419
0,0638480837651097
0,0628698537414191
0,0610183673426752
0,0643451042901698
0,0570461889482716
0,0617555993951971
0,0619129420354981
0,0618543632455532
0,0682907559145935
0,0668036295497956
0,0597542747840457
0,0662093408841716
0,0572099894049052
0,0739283883256784
0,061438085069579
0,0637684722320823
0,0696399731270687
0,0598874514980625
0,0638568236829041
0,0624828343192178
0,0637188372160319
0,0628884792350835
0,0658099839395778
0,0622832026024749
0,065666264231136
0,0643513695901583
0,0629552772919616
0,0682329506869686
0,063371072012908
0,0696297680203061
0,0666821383945923
0,0647226221954135
0,0729644798215977
0,0612878284637878
0,06745514474212
0,0650348395963836
0,0668266250035937
0,0666650782093652
0,0727621362777177
0,0679704894865944
0,0681753513605524
0,0735950359259664
0,0658496697695986
0,0681677361104003
0,0732569647114629
0,0686639755883368
0,072819209691809
0,0602971038241951
0,088779312656823
0,0635328275553471
0,0776571964885854
0,0714598845631182
0,0696862039970693
0,0727200320049113
0,070556209714091
0,0755229089759436
0,0665922147700383
0,0792271385143939
0,0644191445525063
0,079616030704241
0,0688879116468487
0,0876616994224441
0,0680764126703018
0,0785519818240592
0,0744858366987332
0,0788457436150119
0,0705455067924567
0,081089185941454
0,0700192855266602
0,0846797059501568
0,0910989041735209
0,0758890288074261
0,0841191845069353
0,0726449995997046
0,0808077463945896
0,0946710323234224
0,0683540610645607
0,0845029620873997
0,0749828399960486
0,0875239308615885
0,0751559563288704
0,0878160616211697
0,0847551782937603
0,0796201545085751
0,0833152518314735
0,0810848187492999
0,078337954739918
0,0963200381249845
0,0799418398398652
0,0901424757235123
0,0842345285559368
0,0966265895751156
0,0761984850517778
0,123972806843196
0,0736791564949504
0,10593224360916
0,0832424433660477
0,0988995100981974
0,0929149228528813
0,0966063795710257
0,0952346826962819
0,105925063713902
0,0991821393201689
0,0977598723720644
0,0944737860948403
0,115813955246616
0,10644667112994
0,0999353858139568
0,108993916817636
0,0997083302399636
0,114444890825678
0,131495161428445
0,125036923509181
0,112642372394041
0,113365711227641
0,111903694834301
0,130996582796015
0,109368529617578
0,120019417953801
0,113009343745448
0,122679393335845
0,119775058937345
0,122729083525718
0,132466769830468
0,122094673762036
0,129269383478837
0,127471102785648
0,132644071072037
0,1344955646284
0,1466979471497
0,143574058129762
0,130402020543489
0,161745312375278
0,133505885295464
0,143446829696485
0,139862648568249
0,143684171427989
0,15040744014691
0,142456114782109
0,14917260616275
0,147087575202116
0,170385830817693
0,153012561957638
0,162521878977909
0,159060383215645
0,16036688774774
0,175868987865549
0,152719269969658
0,307066259306954
0,154343061244778
0,194795972684193
0,172752500535297
0,214160394823635
0,212980436809043
0,195220305733034
0,202681308933514
0,211063510668639
0,206442514796431
0,222654879649931
0,223965293585697
0,232732808007523
0,237582927188223
0,236748376643879
0,241136536522668
0,273403127082308
0,246284622264763
0,28860248860526
0,274186665678045
0,278011792785618
0,298141006719611
0,30171087125416
0,29387104954873
0,315228337878444
0,307092980935357
0,33141575822368
0,34654141018266
0,332357402493648
0,345524064612357
0,351200235085996
0,376589818128125
0,348678045163471
0,401025519830462
0,384369135783
0,396129103999807
0,391872947749747
0,39958534984109
0,407338269306208
0,401807190588441
0,442957987311674
0,420524471959654
0,439951710414694
0,441881242191441
0,447306649646124
0,447954284318134
0,463421036691368
0,459198556521345
0,458482547074347
0,481340335427051
0,490025241443623
0,558008776868907
0,476606074685445
0,469284672761363
0,4770328374947
0,470566722851207
0,53612562169141
0,487787255407354
0,522140704329596
0,499213432248001
0,496810777592432
0,494449049997871
0,492619617455846
0,49649334629837
0,49679248639117
0,496854582278538
0,487833647252292
0,520936414346154
0,500167321774283
0,506256077089508
0,56095877238524
0,499032242825646
0,495536353439505
0,497794031057153
0,505069700576625
0,497130419506897
0,489188342622572
0,488366195758066
0,508624447622359
0,475849930754943
0,499689885677477
0,481695781082503
0,498826770617798
0,485256880198429
0,463508820657383
0,468177833473457
0,466481026547092
0,465769755479631
0,457343985038047
0,459452787894479
0,494463544730896
0,442803725806328
0,456334278035658
0,443647304354023
0,44452238429401
0,433733463477684
0,434797075444918
0,430192134846296
0,441432798191838
0,423836340365925
0,432965956235878
0,425048748781455
0,431501088812829
0,414665584985036
0,425384030096689
0,41789019814374
0,426372808966215
0,410548865359989
0,412932847006205
0,4158492418906
0,416067374885435
0,41442279990017
0,42417152188714
0,414638502849227
0,422934557841961
0,409830420894628
0,416545351221319
0,410340741307541
0,414666917640933
0,408979634479631
0,410916521993068
0,409336794155629
0,408202603543993
0,411412607651276
0,409806677352785
0,407330614290137
0,407918608122879
0,404811678811934
0,403178821650729
0,399132905246763
0,395495995423287
0,395068147426576
0,398268787310128
0,431037202960336
0,400962639940972
0,385847374345296
0,398283030555314
0,386075639826451
0,389420763117675
0,374363666130608
0,409828724401073
0,388017198229989
0,37522213041613
0,369411058653582
0,369464330780114
0,373500220658345
0,375649589893131
0,359736614357601
0,376541555735224
0,345010340839977
0,398916597566418
0,417150353856717
0,357399901795992
0,384401814242333
0,353674877123666
0,343113913569019
0,352507621926174
0,375047226940473
0,339804814618319
0,347790304671597
0,336824019927
0,357933517525918
0,346103994757566
0,333252586851168
0,342874319176727
0,329634511780836
0,340486233302385
0,348498520742149
0,336505522744517
0,332690288901849
0,345102592082656
0,325240749336885
0,360203127656177
0,33453201158351
0,330268365415678
0,315964592198618
0,322564261526517
0,318776509989056
0,312682749124963
0,3495537062117
0,308943837373389
0,309008325960736
0,304206387141829
0,299495584773119
0,304455920542527
0,294885140327919
0,314323835162421
0,283181702363322
0,318262874473832
0,276706862613435
0,297712087403219
0,295748432838859
0,291373483953205
0,29500399085268
0,288934449459191
0,277833978372364
0,288874351602578
0,303354596519689
0,273391990269462
0,284213045629484
0,278112605888564
0,26275139880968
0,281659724164039
0,260948597958718
0,270230236317946
0,259260223176572
0,271402610882736
0,274334593902933
0,27048166263612
0,273112862143933
0,258806237875982
0,255946092806028
0,259613640244654
0,251374125007656
0,25910512882352
0,254978235846402
0,267324265529379
0,271769842891951
0,249511517659121
0,276495190664377
0,259732199060041
0,264066319366454
0,26502061130655
0,265399975328492
0,276493873541871
0,280134246985996
0,28116945200378
0,283062531406403
0,268881809202743
0,296256187752889
0,279295997034323
0,292240825610936
0,287915016852266
0,297921364125275
0,296649037002451
0,312649248711312
0,308820267598424
0,314535076934976
0,321368079365377
0,333595230894725
0,329071279751937
0,362181996186357
0,334883105684277
0,368950563791962
0,36126368768677
0,37555816071748
0,379333735229721
0,375275311544627
0,388283047580185
0,38837205719923
0,394827945757915
0,402774818717855
0,406776426318815
0,433632208296522
0,411298160168974
0,42370327353031
0,422453184379043
0,429359787426186
0,426062269591044
0,446584534193919
0,455705149546814
0,431641834945678
0,467620504753401
0,451172279986047
0,461637920999782
0,455942779872565
0,464209922082201
0,466384091575853
0,46092311251657
0,474171976616198
0,47047061170628
0,486007052528662
0,473579777085183
0,476063183726133
0,482528709516735
0,483482204094828
0,488053730768536
0,486210842374667
0,493985401372694
0,49826497752151
0,499469557343348
0,504890310742991
0,487339547466172
0,528783060553632
0,519807958050682
0,515772863913659
0,524822419757385
0,522322944411549
0,533197772745347
0,527307027165808
0,54598218722511
0,546348208067153
0,544546122679803
0,553593212819381
0,549771724341315
0,567432135217829
0,557734393481103
0,56862133090747
0,562569523783004
0,562114977950712
0,569412397555549
0,574630710683945
0,59788838672857
0,570270280756286
0,596555372645152
0,585750867046591
0,596007969050032
0,584428388408233
0,586772718794117
0,595085892388456
0,604845231039165
0,599162986368088
0,597059835104648
0,604555969656292
0,598440607731201
0,600389281239096
0,598671072969009
0,610183194575816
0,59531813211516
0,588636235144404
0,5969198971209
0,593589071875767
0,593115526407068
0,603840713815134
0,617979010919796
0,602359153086026
0,601431095256386
0,596572220794715
0,614379805997073
0,610684772561214
0,604142633123671
0,597719771587676
0,603219037888215
0,606036994214158
0,614235168895894
0,595859182742839
0,611107906989021
0,61188732775556
0,616996363461837
0,614554551585541
0,620517871127734
0,619672980580456
0,626964678182271
0,624903441841809
0,629935641562044
0,630016104348045
0,637018759943929
0,634606030116966
0,638617173751729
0,640186252039815
0,649549182098853
0,652595307641548
0,639875795544376
0,634301053329275
0,641859254198833
0,635026383169543
0,639309780835386
0,634872816248603
0,633520995530006
0,622792825749834
0,625740375801384
0,612920793641738
0,625542848005443
0,609364091546254
0,598768962933682
0,603353538597859
0,590963366811316
0,59496960161471
0,583640826710261
0,583521010559037
0,578466140944671
0,57978226528821
0,575829331259488
0,574761286096323
0,570785129901887
0,568769452953177
0,565805617967029
0,56962020427545
0,568602040436098
0,565435379401458
0,560349328709141
0,560694112408416
0,56332600143593
0,561931773072433
0,561401925772432
0,55468075525033
0,560327592127738
0,568434747546423
0,558442370314332
0,569564556419012
0,558539508062008
0,564833194113993
0,554451434071163
0,554881093755027
0,555886168475026
0,555560560478039
0,551906058418196
0,558829766729248
0,55423778350045
0,551024015858558
0,551908130759239
0,554713286510278
0,555046317604927
0,554225229115352
0,55074083296239
0,552272474351254
0,553962201492793
0,552323964089101
0,552389317100521
0,552009707216528
0,555127214775142
0,552418462762641
0,554780764595245
0,553896805035898
0,553650228178933
0,555872072247357
0,556147512726023
0,553753588711049
0,54933824652112
0,553718790773776
0,552258918461095
0,550682445646336
0,553006072638131
0,554604795020172
0,546429105072875
0,549845366761018
0,548531736347052
0,545591765123081
0,539048906953165
0,532858862740176
0,529754526386809
0,524055904311184
0,527919182593818
0,522876019495641
0,521003880937763
0,51943764985655
0,511417631378687
0,506208852300781
0,499776592547254
0,498559736733683
0,497663417060666
0,49383332231743
0,495428834145945
0,487564242774828
0,486179839684184
0,488231140938365
0,485492138005562
0,485312335817971
0,481755382194653
0,479055305639638
0,479520665795495
0,480205918575025
0,480015941234165
0,479941760526066
0,478665338580148
0,479811711191761
0,481902460485697
0,485960762237172
0,48760209816226
0,482924119007001
0,484660551173135
0,488705113286668
0,492573156917333
0,495038399339476
0,493633763090831
0,500249032625158
0,496429164694002
0,497653223546388
0,504851232823281
0,502038095748719
0,502332565390356
0,509910030217562
0,510657683764039
0,506203216875074
0,509595723229792
0,51030888464784
0,507615342760107
0,511103826703264
0,507662397819976
0,510871467829195
0,509829031593858
0,504856574700193
0,504290625593383
0,507341854393589
0,502103187664282
0,503091878579323
0,501896277720425
0,497933955324485
0,503053643766796
0,497961989415505
0,492827531998973
0,49434691502705
0,493011885870718
0,491265004491955
0,486969532177973
0,488502674298022
0,489205779003927
0,488916839869851
0,486570234476306
0,484861539266969
0,479914034424776
0,48135896928028
0,482963903027846
0,476779062384596
0,476240676962566
0,478293400838892
0,472303589863734
0,470389658750511
0,469180758262701
0,467056664736662
0,469596367333976
0,469091292776946
0,468269956507184
0,466015465532857
0,463521738226228
0,461607002268398
0,459862188877321
0,454449442355659
0,452505852296662
0,451513651685428
0,449195146081636
0,448538684864346
0,443241066796154
0,44084247855175
0,434770552949223
0,431579990355873
0,428494721116265
0,426060150075912
0,426983749712263
0,42193716257106
0,41930688602019
0,414332192401267
0,41393408652059
0,412852362821819
0,412330513407679
0,412839098112996
0,413369640771661
0,409127018624768
0,407371088405057
0,405889322619013
0,402458802397461
0,40128697894893
0,396134347132759
0,395602611867634
0,390507603385179
0,384566378681395
0,380235138472959
0,373112072023043
0,368772516088428
0,366031177022437
0,36508488348524
0,36189916340388
0,359076126423923
0,357325782779973
0,360036980263517
0,361387263814402
0,36734357325745
0,370624302879494
0,380558460248675
0,390240084270898
0,401574394393813
0,413874853614398
0,424744074825508
0,440511041930542
0,450479912239272
0,469214146378474
0,486097918517311
0,502512060387269
0,517572322948791
0,533633368707782
0,552247753967443
0,569793785253171
0,58556418352048
0,599041480748079
0,609464374700743
0,629001445607163
0,645681864477266
0,658041924310879
0,666888250698977
0,683666634527982
0,694930361811111
0,708115404722333
0,711288828650144
0,734111131638559
0,741611180595165
0,74835143393644
0,752609843880029
0,759770642561162
0,768425709926995
0,770328694126151
0,776907512579857
0,781981734372818
0,777379657623378
0,785168689674788
0,78297754269469
0,786525819384881
0,790526149122347
0,786731071727084
0,793661414868751
0,797221577817165
0,795008997370951
0,799180924334521
0,790731121277404
0,798225391119165
0,799341544945991
0,803654989033437
0,805575492579936
0,819571601698854
0,830492366680656
0,832201269384873
0,838113646272368
0,844142150937152
0,850010977205304
0,858550017102688
0,861564703258119
0,875356022749758
0,87861834957934
0,891380133692149
0,903603469294033
0,914571530441294
0,928570070450718
0,939071795968815
0,954667048328366
0,957730517928557
0,971966645737374
0,979103471433679
0,973312649685196
0,978820310109567
1,01130194665772
1,0058605059143
1,00007265998065
1,00501258683524
1,00470935085778
0,994701076278528
0,981115549862067
0,981715445759761
0,976475933236995
0,976654342334674
0,969782017043976
0,986104047573666
0,989356286976898
0,990296369138881
1,00596722428283
1,02418460685714
1,0495014539108
1,04061795659645
1,06224400544766
1,06834470593177
1,09840476058129
1,11345938017738
1,12249955308911
1,12428492850914
1,15110570660232
1,15502187813504
1,17346614497229
1,19317372599096
1,20946752430009
1,21921541971089
1,25608009124457
1,27660231126056
1,30288499420491
1,28377341435945
1,33299902583927
1,33742921648782
1,37899561719422
1,40968621613752
1,42308252900975
1,42408670053084
1,49052280512256
1,45255999549907
1,4923154712956
1,54509342901416
1,54573277777316
1,61343402085373
1,52946958792327
1,59533756829178
1,64038708606589
1,64010836802189
1,62570343045874
1,66607498179919
1,60092878533413
1,68769798531449
1,64472696359256
1,72122024147698
1,70426137485648
1,61813028328829
1,63927999775796
1,73188962385438
1,63250621312923
1,69334008210794
1,63494126381565
1,67748192357141
1,62702934308643
1,7049590786815
1,68240773984916
1,66002647196054
1,75406967942969
1,67708800126333
1,74857500506697
1,7500967725528
1,77199603917057
1,76000155707917
1,83560640378321
1,73677055622228
1,85985167892982
1,76103225307202
1,94890198475762
1,82530181430693
2,0000150149528
1,79287425945812
2,14063005247886
1,87428713655032
1,98601081028138
1,93288364606287
1,97959926818665
1,91328065636081
2,15618623780469
1,97553433016513
2,07789327199809
2,01621980563258
2,27515985002028
2,07020880425128
2,25618723773694
2,0676081437247
2,18356902256288
2,36574700052148
2,15616077104521
2,1041029418106
2,1106819426661
2,24485928792084
2,19661267096628
2,06056565701924
2,09081415195114
2,02998250937866
2,34047309951968
2,02068979405662
2,03203090668938
1,99688118609948
2,35591339571346
2,00593479290378
2,20693408744295
1,84516285774229
2,17947431224593
1,85344561451991
1,95017873135548
1,85289194413676
1,79703596549507
1,81853508966537
1,75770238634048
1,71962848965813
1,74018481964934
1,69225209622307
1,63258160791396
1,59962888965933
1,70667071919238
1,5536734995982
1,57547187613423
1,55519197931889
1,52979990569517
1,5333420571995
1,59286097848848
1,5725979424789
1,59313306729455
1,53011090947179
1,52239641949647
1,48359208708168
1,49470560105719
1,44425899532911
1,37824797696249
1,40304985888084
1,38383507716829
1,31252124276404
1,31672599453488
1,26701623514651
1,22999617686309
1,23392139786113
1,16075361398232
1,11933791295277
1,06446030260559
1,04237876326705
1,00132772351897
0,941275155174575
0,913011648763947
0,874462102144787
0,830892296097038
0,797618884062649
0,770568819317619
0,750603263021456
0,721006863408477
0,699653755362313
0,67614583724186
0,657393929161079
0,645302071856817
0,618288860884399
0,608080921414945
0,601879994964996
0,591395753281626
0,577690729830752
0,585306158320934
0,574886050678885
0,584324324125437
0,567935026162357
0,569529988327096
0,562377259785696
0,564794301743775
0,568612489394106
0,569326185180284
0,569352759462302
0,570240205006646
0,568632432857024
0,573817404609128
0,558292472169438
0,562380538061649
0,561380429373564
0,5585420854234
0,550363385450895
0,54650278076645
0,54133970189941
0,534241989870486
0,53393918772564
0,521225538731351
0,517551523093449
0,523282519837381
0,519820822549569
0,510405559021402
0,513016332030053
0,512020855077511
0,513132824470815
0,522833595151403
0,517447289304643
0,534381294126002
0,5289952068496
0,530232767581132
0,523892237709249
0,536579032049233
0,541360672215105
0,54179994009136
0,544853333855917
0,547150342190116
0,552945732212604
0,550684349396944
0,551423759594673
0,552589032367458
0,549781099176179
0,552544019104796
0,548254837553918
0,55435617107428
0,556258137247333
0,560070297764866
0,547576050801544
0,5678913761788
0,566971611267199
0,578499519078827
0,573813212176957
0,5672898746515
0,587790045710893
0,593263533310544
0,610886212030708
0,628360337673515
0,636854469996847
0,658910445353896
0,66552674669066
0,67972271963067
0,695161874066434
0,718133093313764
0,70891758042251
0,715105125596851
0,727640009679042
0,732162505872275
0,722342303880349
0,722930941842901
0,715735733404973
0,721116277703719
0,685053235856699
0,695553677602925
0,670023673246234
0,67457956249683
0,648749491618016
0,665080899980589
0,653907041311107
0,66936156665154
0,651640287136239
0,660373625398241
0,653495847457771
0,661129312206685
0,656983393971024
0,670390652347963
0,669804088977757
0,658782478369295
0,660322485134663
0,646038946524526
0,644444310556183
0,624481440688525
0,621554612296544
0,617435195255511
0,619939805291001
0,606656758928971
0,60200296861497
0,599945231422648
0,591402857528335
0,597676585129321
0,585438770790886
0,586269059320336
0,577572090996506
0,595323978093511
0,579043234333758
0,576062705583899
0,579879482918354
0,5749235146701
0,553852659583976
0,566192645063582
0,553337465146013
0,557835466440185
0,529779016980156
0,554168086062665
0,547529862929553
0,549423007565826
0,540596840135435
0,538297004528391
0,536702965175861
0,527977975671384
0,527405322748592
0,522487543254212
0,507388651108366
0,525640865560617
0,516387987392754
0,512563097254356
0,496240913495483
0,51314467295398
0,503976930396227
0,50915360456824
0,512399365343976
0,511440130455955
0,497745590013057
0,507330712052319
0,499003312368553
0,502301176335729
0,505231366260551
0,513674593088543
0,486930311230334
0,493749916566031
0,504991568844561
0,512866897986205
0,496225459723374
0,488867488477
0,503236136750876
0,514466285719687
0,501437524949136
0,508636964112806
0,506783027247696
0,531910345575653
0,504233963317229
0,514363946477478
0,515216157511412
0,531036682098058
0,513883708812837
0,534904128004681
0,537739282082608
0,553424243043125
0,529482540358491
0,53358438803818
0,553898965795814
0,565435605852912
0,557749990341481
0,574628278547516
0,577378999514291
0,599830757699719
0,576619562624954
0,632152325314112
0,612703490265099
0,608399461857363
0,662579903844945
0,651613655354743
0,691135585311562
0,719407265576363
0,740463321553438
0,748355984423211
0,725405904058342
0,761149596113333
0,739190426851945
0,81679934416929
0,791601653738495
0,871090199046206
0,846898983460056
0,912518233739682
0,796006711032671
0,927356364266698
0,8409547114269
0,854014337561279
0,861396263227107
0,889827638235612
0,864694624196546
0,856216623025976
0,828583491528166
0,916555299496115
0,784980833204234
0,851861282086319
0,768799465101253
0,831920078795231
0,832956205607142
0,890478054430727
0,778404158539325
0,790351055310297
0,805233531962848
0,854700663299771
0,810505573843031
0,848012666523136
0,781160769994175
0,74336866261812
0,731015907338701
0,755309386815992
0,78077951347467
0,827986864710457
0,774378653986874
0,765740644877767
0,717534580092122
0,751359818108618
0,727146383053727
0,780195912011665
0,771884899659673
0,748397290600025
0,714016469242648
0,768474124846253
0,76102332266062
0,814120805384811
0,763705207040478
0,773552894308998
0,706391315743944
0,821162762311715
0,759286753429632
0,775859354985513
0,786857878369142
0,84380268306711
0,756219200106021
0,778213084513368
0,742511424942465
0,768023675275624
0,736231206973724
0,791873687538819
0,726780048428302
0,742277040292017
0,705299770292165
0,815368470185918
0,764793085372874
0,808030593217116
0,771628363066265
0,908095252961755
0,806931324282693
0,827642247941748
0,791959593953328
0,872366380842219
0,799901151626001
0,999523123026064
0,8623517093693
0,906007140165448
0,796491333290304
1,02378571557351
0,823850137870251
0,916317952215483
0,844361185421338
0,924553193659513
0,85674700317769
1,08588009383595
1,019481345768
1,03304236423612
0,899409477554125
1,08022097504528
1,09390035945988
0,992488262177529
1,04043839912124
1,25377715271414
0,94190450254817
1,46716250522951
0,975110494529885
1,11720564870285
1,01079945784931
1,18787457937101
0,955155767282112
0,977283318505547
0,957926100941128
1,19866425283804
1,0302207503456
1,33226569911077
0,912217899112007
0,848292264634131
0,84126506524812
0,949754037358086
1,14366105770023
1,34103157175538
0,863808857024559
1,21208029938779
0,679802107211528
1,07315275069581
0,889545647484911
0,808829433513864
0,814523780156786
1,06132506472848
1,16239836084646
1,26937699128615
0,748614602914521
0,83059842965518
0,800081717479342
0,936017083995375
1,17910134461523
1,06305278082176
0,876997208014144
0,979997789021699
0,678342623859741
5
0,998161218749573
0,963561165895656
0,880585968279469
1,91140926997625
0,93548664608606
1,55058371053821
0,756915175693856
1,6432876400919
0,88660863498184
5
0,676353464627995
5
0,591354424417841
5
0,693116101231905
0,755812724999514
5
5
1,00462400552085
