3596
4000,36533379555
650,420452594757
1
2
2
0,0575729231718773
0,0459380048396938
0,0490547324863314
0,0392916659302899
0,036066979684307
0,0528313830819787
0,0527651354424719
0,0469425436811998
0,0533297420110033
0,0541914589704368
0,043176013262362
0,0464087673460252
0,0473953447627206
0,0479181169871193
0,0368910806337402
0,0548454223272922
0,0348223206467789
0,0549549814722476
0,0488308094288104
0,0505169165873677
0,0451653792901834
0,0466604091467787
0,0422523824811394
0,0569475995295373
0,0511247622028155
0,0489113280642994
0,0478564634034593
0,0559464008736302
0,0446036170050691
0,0487023761287449
0,0539199111586381
0,0536402885875658
0,0411589221296771
0,038329460409356
0,0406749325096757
0,0607827707780702
0,0532836838546388
0,054436611686208
0,0525249680093078
0,0435493481989241
0,0378780480073584
0,0483525924395078
0,0448362003568087
0,0477885508671406
0,0482833944835979
0,0486065263447112
0,0406343554425598
0,0425644986978399
0,0484630594986884
0,0467507186497658
0,0493779699379639
0,048564087829594
0,0522981748916533
0,0447716982827271
0,0532011063842279
0,0498559415495403
0,0521613949581995
0,0492835156136973
0,0402072927730651
0,0474492356696733
0,0556394465193146
0,0394441156640201
0,0438962515534038
0,0402039810105667
0,0505474961718999
0,036591198075404
0,05387747952476
0,0389787915828548
0,0667163847132224
0,0434563177300089
0,0558549218916217
0,061295725034403
0,0383242090943702
0,0531019207397758
0,0459553146562892
0,0461198013627918
0,0467456475575201
0,0377658077120185
0,048284603582646
0,0469285491635783
0,0369425295275881
0,0412432428495363
0,0347516789083479
0,0427981083955396
0,064556942130862
0,0234937678199703
0,0519489759358779
0,0447802477511924
0,0290357631329079
0,0312201477800596
0,0337690976007839
0,0367434569063261
0,0403099036033397
0,0427298079656867
0,0480588821042711
0,0342088533992272
0,034181271797524
0,0494161912299556
0,0421863237965531
0,048914372181089
0,0260564051824363
0,0899617816835112
0,0149884888381962
0,0762566523554211
0,0443735417506331
0,0244861844646399
0,0703553336829562
0,0130172008564335
0,0443201320099131
0,0285222743380692
0,045822473500494
0,0342021919898845
0,0557803881254315
0,0293299477297088
0,0472218599917223
0,0436301136583262
0,0338971157805939
0,0365563291896933
0,0337371589371913
0,0344453582036623
0,0395464751264073
0,0870398480026521
0,0100993234810408
0,047843666891331
0,03296519599192
0,0323859788855172
0,0568086732807757
0,0435329183980593
0,0194362829026543
0,0416668796130752
0,0291065537331553
0,0415966127494147
0,0302497063616168
0,0698948880494385
0,0330538566757991
0,0378497196497017
0,0499328779279281
0,0399806610145319
0,0679630423226545
0,0186125544287668
0,0401553723969196
0,0378661800875534
0,0347759510845705
0,046516639796079
0,027413642460299
0,0397096466535424
0,0483834391234405
0,0379119621239137
0,0242993011949872
0,0458649894842868
0,0284113873142135
0,0487341057697328
0,0481930574088527
0,0352177518588869
0,044906950490066
0,0906871218893905
-0,0151299157342317
0,0905717442503211
0,0161514354281938
0,0418053056590295
0,034469884674921
0,0294174808942147
0,0392810832376668
0,0452375622263506
0,0436393197821131
0,032822117952064
0,0525359846681417
0,0294790089325074
0,0444467646860206
0,0414971540365024
0,038139960577212
0,0265877657048728
0,072977428497125
0,0306230055579671
0,0244392045283505
0,056948179030596
0,0224051557687883
0,0342709892544564
0,0349260950365962
0,0638723031849084
0,0222700355911753
0,0347887635273107
0,0320386214932128
0,0417022821907962
0,0476007618033834
0,0489018361625953
0,0335439511467899
0,0413738919007794
0,0270044254020301
0,0510288625387066
0,0503305189984818
0,0413584887264856
0,0176967197567005
0,0415128712913609
0,0346191256653846
0,0456389507223631
0,0512010127532544
0,0260087952202969
0,0506959786222621
0,0391530855701735
0,0405780107483307
0,0308508828200885
0,0354025467705676
0,0493662323296359
0,0264326843894228
0,0534811279217558
0,0534986640616177
0,0306042705914096
0,0401641696198396
0,0342718557501899
0,0444155385606646
0,0576506188752319
0,0755297367594755
0,00285111737373058
0,0457931922949655
0,0308075232904722
0,0493284078072013
0,0425899766899638
0,0246109036117004
0,0369418822874625
0,0362481598818528
0,0400103521546799
0,0362725254741031
0,0329883320589987
0,0356330457072983
0,0333785431434769
0,0375416914672716
0,0355561773956446
0,0374049291169216
0,0369306570050994
0,0444710032439663
0,0291075088805057
0,0406573911992408
0,0423571800216513
0,0312532897994318
0,0599367079139233
0,029965906222948
0,0374525636627864
0,0354368253566954
0,0379037102799173
0,0337943714519776
0,0426613009625921
0,0377787529031273
0,0472385694283569
0,0383635903050474
0,0573198603775962
0,0394874368130905
0,0293210889610187
0,0457818960631707
0,0280663115832869
0,0648069131819064
0,0161417452143141
0,0496279301844131
0,0316591059553525
0,0506605116239346
0,0230176287117347
0,0639505201105471
0,0220889226534122
0,0360487241506438
0,0329341279936762
0,0561382182226889
0,025560076336976
0,0519342563405467
0,0317529993831876
0,0804137238239388
0,043011840041898
0,0285727008273462
0,036632848064928
0,0420623266948205
0,0180056189328429
0,0590950196811868
0,0351040838320224
0,088359128431078
0,0297212725318496
0,0267249250291868
0,0185046048606801
0,0598385671587733
0,0407191588558442
0,0353770257011572
0,0493498912831686
0,0303535163227999
0,0628295078013788
0,0286332518533614
0,043733287088215
0,0526562762341268
0,0336040181679796
0,0795933301976267
0,0083009283505875
0,0451545759040579
0,021671114765417
0,0539075489851351
0,0434734278345194
0,0707789571861564
0,0219892632431663
0,0800306754149095
0,0182343806521054
0,0783798120508366
0,0334253324663481
0,0394681895054542
0,0318009976966709
0,0609006777937672
0,0337725962050481
0,0481201059791685
0,0423007568193167
0,0525286873249646
0,0460550770410934
0,0468108934487802
0,0636568051405033
0,0590347133932072
0,0369822429127888
0,0691576040977457
0,0395887454129695
0,0505359348066489
0,0542105592107097
0,052924800654436
0,0370575564468696
0,0516614819070775
0,0425257012643674
0,0620043801998232
0,0502208964780355
0,0398824192340265
0,054335142445928
0,0431199129909926
0,050629772952763
0,0567618929275986
0,0469026564218537
0,0540347160936251
0,0568637699522007
0,0587960315960226
0,0523292691333786
0,0856002331078465
0,0490210232963399
0,0544595153879161
0,0726229447030419
0,0335752393471808
0,0501300364263967
0,0545159054920469
0,0619991523206432
0,0550032872199462
0,0583708299051112
0,0660522687338451
0,0622552536622008
0,0679449553181806
0,0590649409521527
0,0623390079160512
0,0692278040831782
0,0759316228800846
0,104960933572213
0,0721866398143824
0,0456517704753395
0,0716344653852081
0,0560848857786524
0,12868815626535
0,0476471238351679
0,0956643710828954
0,0551846776483083
0,0749504731832364
0,0745778136534787
0,0732744377613618
0,0775949303163638
0,073896663789066
0,0863910176095603
0,0845283538927458
0,0856123353535205
0,0895663490876909
0,0880868736110354
0,0848378199241553
0,111813815892019
0,09504909803329
0,0755912824668964
0,103402590666777
0,0946019962202168
0,102371038686242
0,127850873027215
0,102434301249624
0,136699017543154
0,0627588731904838
0,126839274101845
0,109265958560647
0,0895682274610231
0,110964347539692
0,106710100854683
0,123216924688804
0,117699528069835
0,116353189201335
0,114337891331698
0,12182329250597
0,124317868518985
0,133388932481785
0,120607095475147
0,143273988950576
0,127354427408432
0,148469740110187
0,123264544972913
0,152600244270125
0,138893504822917
0,191167775971805
0,143976012506954
0,162162357279647
0,119843659049702
0,1600813550507
0,135073197481986
0,166819170296161
0,145382642183727
0,17176864032917
0,165431904716038
0,189057137273086
0,181856943580315
0,167523794483738
0,165024006903932
0,175049075610739
0,162359296838971
0,202778734092949
0,169334535941373
0,226343714491741
0,169262600738556
0,197573477973587
0,18011962882652
0,22997831662153
0,175154888658201
0,215829297625693
0,192512577343412
0,207159524121204
0,202779863242288
0,20751636126627
0,220725967148005
0,216296977157965
0,208380917318164
0,230672518497027
0,215625499462803
0,231142519922979
0,236535885876284
0,244919739046165
0,23718808759518
0,238714030918893
0,239541406453115
0,25793178967272
0,232978257577407
0,274176964390481
0,237661509925109
0,289864876410281
0,232387605044285
0,277713152274587
0,233678298018632
0,263846166683982
0,264335245971885
0,274231795799295
0,277075186625942
0,303448899997603
0,309007477181564
0,292596066270946
0,298460571654459
0,310714707997077
0,286212592073754
0,324421280867375
0,294653439051521
0,323553922329301
0,316158829646805
0,343103441327924
0,30774745555341
0,33344178063239
0,320540791365967
0,390299014259836
0,350345637876068
0,390918292820743
0,320931825100896
0,33595770848502
0,339811919505788
0,355562175727919
0,345991641057398
0,37915087753362
0,374624926189208
0,377602300781052
0,399411999131781
0,406875939416641
0,382654775855701
0,407138819668614
0,400200381091132
0,417047335067884
0,411406290100251
0,420396990136439
0,37417605754668
0,41921585580173
0,423680179031139
0,464327039884412
0,412480213693298
0,428221420555653
0,435844953377051
0,460251277511077
0,438743173124179
0,466288747795434
0,449709163055716
0,469217362502836
0,454368356421082
0,499667216195085
0,470193023369705
0,485841143169621
0,453754264116994
0,481165914491206
0,479874965158619
0,523393955329917
0,502642343489717
0,527650050960164
0,477355513417208
0,534197064394362
0,521052662276633
0,554254106909877
0,529420097458183
0,543137710445876
0,503650161262057
0,538368325008551
0,494849203059878
0,547356290540855
0,552392199467353
0,562339367320243
0,542262828197176
0,564572466307697
0,561206059183972
0,582541019542303
0,540724637022063
0,566955399261389
0,577017307521648
0,606440611449692
0,591087680577043
0,663384846288184
0,614916964625697
0,655651579678021
0,588211698811927
0,615048302119139
0,60039787040033
0,680848921701374
0,639795569266639
0,629855931907586
0,620473187358099
0,720694462564831
0,621384425263791
0,678857244274311
0,627267125629208
0,647806934469453
0,691626144243296
0,701318206680106
0,68082555008742
0,727230482310087
0,622790838375625
0,709510208652002
0,690998752905678
0,737974225105642
0,690825929656592
0,714800691712712
0,69228751988844
0,783404108262592
0,736652247551488
0,790231433145015
0,737555261280998
0,795681399012776
0,719168742784551
0,739518716759986
0,727104729753905
0,777595763773542
0,760961928818965
0,828695870016726
0,762200111381906
0,790239529321805
0,809507842592027
0,822793809611343
0,745541891397652
0,773230470057638
0,773696316604575
0,812481544555137
0,760581110536128
0,841818476607169
0,826482442689322
0,865092228409962
0,863003840475456
0,847395781733226
0,833046896240554
0,939363791142515
0,838429647082451
0,849542565274668
0,821675688599485
0,919879647682014
0,884869137722455
0,929436897537328
0,852045167005905
0,881071227847206
0,885572978022669
0,946793379848315
0,859740728757862
0,938288040354514
0,885986718713967
0,969505916327574
0,886992361133828
1,03899222110197
0,910940277760207
0,912773373781002
0,919504843637534
0,984576284530842
0,931847122491218
0,940844907373063
0,936697365548505
1,00521324089961
0,921702330911998
0,949064366595536
0,945962287475979
1,00256530905488
0,921565410024667
1,06780134440822
1,01657576446755
0,995978367847207
0,958511102002024
1,06647080159102
1,0392748027033
1,00812689986474
0,94844621768076
1,09088182668483
1,04598633624262
1,00411737494784
1,01959832995745
1,08991043763157
1,05693216332641
1,08973841522148
1,01051324334856
1,12021283137555
1,07710359057202
1,11902396566738
1,05436937114837
1,06270294265473
0,986807864520659
1,05029996335611
1,02374438009848
1,18093275632692
1,08155032483955
1,06204895792048
1,03686160061577
1,1139886842
1,14445605497598
1,10249855610063
1,10321181091882
1,11302564575816
1,07174430170083
1,04679380920723
1,02289434652499
1,14754589619286
1,11905609770973
1,22585778280926
1,14834940530853
1,15176880164885
1,19332903044859
1,21374104041071
1,12495002824101
1,14697007258098
1,09622715984075
1,18921481617184
1,18270005198565
1,23745374126186
1,15448233111239
1,28677258404647
1,22970995538803
1,24309144073773
1,20840489933405
1,1518023432013
1,16332502641917
1,19162078409323
1,11681973927266
1,20223288468546
1,1574554620978
1,20928673099759
1,15915221297644
1,17947373106941
1,2067070992507
1,26736001973175
1,12167120896472
1,1495152398347
1,26601822488181
1,2991193412069
1,1945814450609
1,27524405950372
1,24349627553444
1,25149559096678
1,21767693239567
1,22656124414672
1,29512831249211
1,21100807650906
1,19380425129168
1,24433107245913
1,19410503336007
1,27805298105124
1,25421174015703
1,25286139022609
1,28849971576194
1,34380261685452
1,22843464310211
1,24378700098124
1,29371636879647
1,29061805541939
1,19341555657105
1,22583765641792
1,25845499429758
1,27653356286479
1,26527646461255
1,2792821962185
1,20264896606319
1,2618597645297
1,23212520396264
1,21613391507881
1,31603082644026
1,31167475765027
1,23034635549666
1,2878174512768
1,27943431724164
1,26576635641585
1,2746102629542
1,34947480838798
1,31236320466016
1,3621529535648
1,2549250927977
1,23417278793007
1,25723723151137
1,26367480987828
1,25860310199724
1,30317188350517
1,40347507299022
1,36958311704733
1,25692637214325
1,36193320194099
1,29527454145644
1,25293330729741
1,23825779666126
1,23841653639784
1,32752994998139
1,42270394250173
1,35455328081474
1,36025070552343
1,39211063090733
1,34776129813228
1,29761461841253
1,26677086049307
1,25409822535678
1,27769795425374
1,31422527955179
1,28546365356723
1,29266297385455
1,31564759805364
1,24672079277624
1,31327874564663
1,32819562660242
1,3798872072845
1,29523398475974
1,2312191530306
1,28294780693652
1,30839623836703
1,25646673898187
1,30322250817996
1,31418867573927
1,2935694750558
1,33911956136321
1,35478007117286
1,39432661579574
1,34532123533974
1,33619609546435
1,29091376145004
1,30530356187214
1,34203927363876
1,26633806143439
1,23641304617433
1,28654515510063
1,37331465550086
1,29146101264786
1,32550456187185
1,33600134329056
1,27935911291043
1,29237460201032
1,38825520216201
1,31322582468641
1,25362909409857
1,28308199882474
1,25590292498155
1,30645535424898
1,32566679390679
1,219643656471
1,31456408859958
1,35353807795645
1,25123590351987
1,28178612592055
1,31313930873331
1,25999654175999
1,36066366716337
1,37625503982522
1,27999469583879
1,2662812061893
1,25529086481451
1,30864835561976
1,27731929764491
1,25212364578928
1,23300335745027
1,22579416712767
1,26747277649662
1,31429084048115
1,25910222385381
1,32902516096318
1,34557296035667
1,28236892623692
1,27772057029807
1,19053704294425
1,25376947775523
1,33268642050481
1,25652095433639
1,25111774065896
1,23329034260483
1,22510346474008
1,21240773162287
1,20761465494972
1,21551377616331
1,21976969273432
1,33333845661665
1,29295333892695
1,1813697909991
1,27327206853148
1,25531025343482
1,24188423845674
1,16845790795854
1,15105668386531
1,20899111440086
1,20836090732988
1,2419124304554
1,29222371740906
1,25727526131806
1,24157711762269
1,17544156663154
1,11673383264637
1,14485083131978
1,23350314985933
1,21127541736359
1,17929342821602
1,19576447377408
1,21380121726893
1,19668562902456
1,20565823743001
1,11234528180226
1,14382906680276
1,16377748160556
1,13424591659319
1,1188293582772
1,1574483390461
1,15626045535175
1,14782292409842
1,15680614653294
1,1932616976688
1,1230754357184
1,09615996383696
1,11267391219851
1,16992527647112
1,16961847847529
1,15824181784799
1,07541844018824
1,11880373819344
1,15165947136662
1,12699558228254
1,11835799143845
1,1105981575248
1,06941855157654
1,10483419903572
1,10804586268109
1,10092406192688
1,06876426215377
1,08335465330782
1,07092993541311
1,05010689828986
1,07304298595439
1,09052542148507
1,07211806166629
1,06843153575374
1,02712196121181
1,04587412650606
1,06131036395392
1,05014095609423
1,03296575391977
1,04554749608223
1,0478256841649
0,99406197789465
1,00820088131846
1,03181663475729
1,01923700639449
1,03041737362901
1,01196952608461
0,977034309309187
0,998699622004384
1,02432639326345
0,965848868175866
0,973385480494123
0,99393015553211
0,977435749754186
0,951466482534607
0,968539238343105
0,932282698521475
0,94184466530686
0,953737640348234
0,935489405972804
0,935235542885582
0,963538118428258
0,957021309574647
0,981617325300574
0,917003226046414
0,918945498780163
0,907888391179698
0,923217468276319
0,927312891349471
0,918770428030786
0,892037092450984
0,886029893393331
0,876836764126851
0,918490362210211
0,893548045073856
0,902344383818769
0,875265802142896
0,875121662621587
0,854948323026546
0,886221026106023
0,874232080222254
0,858920342027931
0,876637862064796
0,856305202031637
0,854689056710857
0,856510586611309
0,839197893928288
0,846032641368591
0,850268582802669
0,825923517146728
0,817426510715132
0,835424127144245
0,807579386230335
0,804194153392702
0,807882680054843
0,800650308496404
0,792638498204955
0,799196632303936
0,77860773051891
0,794887635435848
0,778108816877561
0,784096942430781
0,784559229235212
0,788878898955024
0,78057158986618
0,776306365097162
0,772382720289851
0,753960453141634
0,733357309415735
0,758616484431902
0,747247279652462
0,758590935081653
0,751633681866285
0,748837548079196
0,741094399899153
0,737815253879743
0,736764868734465
0,721385241630535
0,731105846978942
0,732045959136655
0,715925909145322
0,706582716240583
0,706537591767653
0,714798045742404
0,705426482897284
0,709514164143979
0,69321172081815
0,706935829034103
0,695703624740059
0,679705986498965
0,677229245130692
0,678671839022213
0,681035423782922
0,672182246146431
0,655221568918515
0,659579340422745
0,671390655992533
0,663487425275064
0,64911233675148
0,65088212041807
0,656942305713897
0,669881948149007
0,641827178268002
0,658593947281287
0,634219834388154
0,642589465267591
0,629969280397112
0,635977595289373
0,646281150354114
0,656994571727811
0,634867948432039
0,621971269598122
0,603819259636514
0,625795471765479
0,613533316612296
0,618757977683567
0,606042143736929
0,615258932917871
0,608658399143651
0,596081094249314
0,580813774792574
0,594400301204313
0,586063543992417
0,589150650134594
0,590762501718966
0,601366064495011
0,564323815183772
0,576117680378913
0,56843539508254
0,57512023812351
0,573832184836406
0,570858654488021
0,553395760639184
0,555380905284845
0,551886932038675
0,567412472005944
0,550008895928519
0,55102046649659
0,55536499094121
0,560160650320931
0,538908505190409
0,543712278337418
0,541852671567891
0,529235573820758
0,529278385717373
0,535218742573509
0,531005143016279
0,541959245425657
0,515096758725093
0,528637795843029
0,510900029437144
0,522549597868943
0,510509911710597
0,513358688840374
0,496097534846224
0,509655663043627
0,494578203071198
0,50968935518341
0,502392085857361
0,498990030278287
0,488285990363251
0,492246756019679
0,493598927477103
0,489905044464378
0,479315326722778
0,486474876647868
0,471860990793121
0,489540912853345
0,477750433341691
0,472104657216746
0,463741792800977
0,478027792030384
0,464530139599903
0,47245581014536
0,465624078827606
0,45960475745846
0,461821209257331
0,464627314980336
0,455604814749676
0,461374574275165
0,451133069615347
0,45542015551303
0,452410775046468
0,450465891821941
0,441534826994968
0,451172629268038
0,441537659100744
0,442371931548945
0,44200799282929
0,439798300758977
0,442647310089883
0,440658709291719
0,434204577095866
0,433590275134252
0,429362988093767
0,434575981035341
0,429592442880047
0,438783763896385
0,433609166346294
0,433933001477385
0,425155056451106
0,43679956201198
0,424613848389903
0,431899854785549
0,426384228537324
0,437277483484144
0,435519902789099
0,428383021065777
0,432023286794329
0,432221452375022
0,425941557260991
0,440189687592886
0,435338430495888
0,437997084524446
0,443426716574824
0,446686413605066
0,437354741348374
0,442792275344876
0,453077037616893
0,463637931802734
0,453230270932181
0,447935419781545
0,454224330948479
0,461413763462674
0,461442620889199
0,465119731391377
0,460017983772901
0,466705805827937
0,460867269427977
0,472127215362588
0,472943484999251
0,472119172995821
0,46540957980282
0,478477240376369
0,476915068633918
0,485508395841401
0,481938617977417
0,485907979422469
0,481168497911229
0,494982409092155
0,489264974166331
0,511699340414755
0,490761252969983
0,504187567319217
0,495471358767357
0,500465529366044
0,501262427761274
0,512494595940246
0,505045967102748
0,513677459781586
0,508976435489226
0,518793628236467
0,528241184540858
0,526219147997358
0,511731889377636
0,535901002309818
0,529817474100543
0,544834406869431
0,539226957080644
0,552727200003921
0,541801542717726
0,552732129343201
0,559384767414945
0,563492056778423
0,559787389181107
0,581839405720447
0,564232937695134
0,575676287456508
0,560785821453517
0,572602777486977
0,573194555777426
0,5936662147448
0,561892698422431
0,58535415867694
0,57422646878801
0,5781442726757
0,570859013326744
0,58510411640388
0,56925693548549
0,581365209125345
0,585580887939019
0,591815559439109
0,568555668697878
0,574872881538976
0,573033813967976
0,57585848352243
0,555574272176
0,578139691895155
0,568305602689794
0,572567888886143
0,56481958724756
0,580690288743212
0,579551685296796
0,584026399759026
0,566415036214637
0,577565368139169
0,556222105394096
0,575977965249376
0,580592846091282
0,582641241680782
0,567449194275874
0,571435521595961
0,568647541287554
0,564833873220632
0,567354504824427
0,586120642151101
0,570334865028926
0,583991687584477
0,57441574072874
0,592179953725166
0,572278841999239
0,574391777678735
0,5784305693125
0,590050111527806
0,582114821628112
0,59241589440959
0,574028963277397
0,578856711150858
0,578793135217367
0,578781558911906
0,557021876026837
0,575443296614312
0,566091635756267
0,581504667057271
0,546137840426116
0,584013817152895
0,565829242339841
0,570478473770248
0,555164541560199
0,562303097286393
0,550254170862105
0,564335953329489
0,550945885577837
0,5642989263877
0,534401706441122
0,558098310448593
0,535866741129682
0,55277979700043
0,535156950916676
0,543821115052198
0,523084265849831
0,537938226969225
0,524655766439988
0,522668320055668
0,52190738292947
0,518379853178206
0,51569609683983
0,508759546725731
0,502005358691889
0,503981121388062
0,489950425992964
0,50076462999027
0,485485119223278
0,494893922433449
0,481730177238601
0,489826942989039
0,472198734366225
0,482279691780503
0,460887461320302
0,473362768865875
0,463113526998949
0,460178369089361
0,446971715896059
0,466407033060811
0,44454333052318
0,446011886908919
0,450792662495768
0,440521544430678
0,4327104261949
0,440014792827769
0,437427900555462
0,444888505717942
0,428164105966159
0,432814923327056
0,432469180924041
0,422965963015195
0,418608493310953
0,427804409298303
0,413464527085603
0,422339521253227
0,415532855046623
0,415665535547278
0,408851745711296
0,411453071210831
0,400977047460383
0,408986081457158
0,397152409869603
0,406539182602454
0,400156196556241
0,404215558424276
0,397075287334754
0,399972327420757
0,395729930431925
0,40146165036712
0,390061865580493
0,391735080793474
0,384356899485334
0,395543737049462
0,383437079026122
0,383613201380713
0,377821592924812
0,38420067573337
0,375622989590805
0,385669334207362
0,367025407519447
0,386486111598175
0,371011323734782
0,378894363911789
0,36052728898029
0,368628059971094
0,369928955180672
0,370636259735086
0,369003018969416
0,362975262450565
0,363399519676652
0,371206493747752
0,357133880600539
0,366410761279159
0,362222456377807
0,360783531862184
0,35665264663425
0,363525840569512
0,356418078190096
0,36109819214214
0,354581266736227
0,354073128147188
0,351783289356047
0,356092864967543
0,352469968404785
0,355960903432008
0,348994982393903
0,353621656073711
0,347832733094989
0,354652800403733
0,343725433811931
0,350725639763061
0,334706704532209
0,33801237963619
0,33996591769642
0,346170379699494
0,344281301260695
0,344889489055516
0,332788940346943
0,338424601092017
0,334036229068605
0,335192999840086
0,337587541501496
0,339167531095523
0,329060321173489
0,333224308184925
0,325989113933078
0,333921687971036
0,32716778741653
0,327058065659492
0,331920871444925
0,334382508006318
0,325682373202397
0,330212476827406
0,328303350791997
0,329092276944533
0,318031521398903
0,328361623585652
0,325245956888721
0,332583941187675
0,325861238822758
0,329523874065897
0,31959895796054
0,329233140755848
0,318716457217244
0,321716291078713
0,317833791394123
0,322942330982577
0,318490065252462
0,326912902036405
0,321369489217997
0,32111380945141
0,313124694794145
0,321909294980689
0,315133267114556
0,315826052883482
0,31474295761674
0,3232546232834
0,313838153991927
0,318727846823261
0,311697451582074
0,323639584128863
0,313858447067015
0,316496855922271
0,311402528271864
0,315875049745953
0,313566374838614
0,316770920814359
0,311812853023067
0,312276891504115
0,304083957217284
0,311591070292913
0,30651709692779
0,308809690501478
0,305894685658578
0,309695539127905
0,308926393211987
0,313717561239668
0,303630672762585
0,303710502323247
0,303219426549686
0,307250756774443
0,306484498735098
0,306137384499831
0,299816697163566
0,302521329292664
0,29831798301143
0,310934404236001
0,298624371605815
0,29969070871174
0,295483865579105
0,300180642182897
0,294126499899052
0,300879352268998
0,300479335328308
0,300572766063599
0,298408932201309
0,300195048390725
0,296070860256283
0,298632608258273
0,291322660530831
0,29936252105267
0,290475423645628
0,293280656718531
0,290696918866778
0,295907096848254
0,291766404524968
0,295519826914669
0,288671658931899
0,300695426064074
0,290352287398092
0,290581147379315
0,280245389240702
0,286374869981519
0,283130705684097
0,285520595491422
0,283483745378356
0,287784174984238
0,278988880671106
0,287848416540741
0,282031198482694
0,282824600840867
0,27696276903489
0,283067788571465
0,281019755550395
0,282061646140025
0,274377533722963
0,277412151612681
0,274396128649162
0,277831933123936
0,272034775319734
0,278880445917593
0,272329197287204
0,27068238208461
0,270452517966941
0,274782940200868
0,267854546032235
0,271914108733986
0,267949030258162
0,27676438310923
0,268532316320053
0,264955069798157
0,263395505213556
0,263766593067502
0,257227103782535
0,270858639167599
0,260621614806474
0,263156701193623
0,259009725964827
0,25756858150466
0,253403711301329
0,265512261117512
0,252923492543839
0,259583993818917
0,257360045759387
0,255603581004563
0,247934909509824
0,254072465058358
0,247954415687283
0,255785628898125
0,246133088781364
0,248627099606656
0,247262833501456
0,2493775860765
0,243640153820646
0,248738523944238
0,24306272745563
0,245949146122004
0,24273114481463
0,246049775260898
0,240348224330235
0,247330563662268
0,240114241294846
0,241665684958273
0,235952525137254
0,242080214153308
0,239600075429624
0,24382644551048
0,235950780767156
0,239085619150204
0,234599424151
0,235396838524724
0,232121576749462
0,235053573251322
0,23127804208119
0,23397727630899
0,22946249431603
0,233172542433557
0,228842459164153
0,229425241826535
0,226848511725905
0,233036661915078
0,225437646895532
0,226693401762284
0,223464289907028
0,228700748043966
0,227480431343042
0,230807982964053
0,226122131330053
0,226722615711775
0,223004674416162
0,22385374661225
0,222485943802593
0,226241035430901
0,221999083715818
0,225348394635891
0,217340824927318
0,219984778601499
0,217857677671538
0,223352585969757
0,217915725434328
0,220561321849425
0,217440758937194
0,217025912963078
0,212095687937409
0,218772060080684
0,213054941162974
0,217846056096088
0,211394014640513
0,212940505721265
0,210336248066293
0,213663276532981
0,205876226422425
0,211524347444906
0,208915423449028
0,215450818065376
0,211175409725286
0,209236695950956
0,210124758854582
0,211359954997988
0,207308666381238
0,211683908339394
0,207018574542274
0,205690987928462
0,207914397886444
0,214087887063375
0,207207158751874
0,211739753063867
0,208945613933796
0,211969709239276
0,204089129726028
0,207404632027746
0,203019404354708
0,207739537437431
0,206036496495203
0,207952429802367
0,202399036865265
0,206435194922608
0,201056733353218
0,207242419626616
0,203892836828376
0,205824903995498
0,199839323470815
0,203300446752825
0,199832694382196
0,204881451657717
0,195943659965117
0,203504798404394
0,197417003137923
0,198914220742842
0,197616948243434
0,200001241633373
0,193971653971151
0,198356278008145
0,198704367873841
0,198893273691247
0,194459680982736
0,196443023940693
0,197417370323603
0,200658046914653
0,195688749029519
0,196072086065519
0,192488900344859
0,199866469225268
0,192278305739554
0,193989075152072
0,19009018715098
0,195196729228842
0,192560056878435
0,197657974187714
0,189580864935223
0,192623935481234
0,187451619720726
0,192684559931731
0,192840451759756
0,191923978510438
0,186038337227321
0,191743898414883
0,188133883734641
0,190779889495294
0,185284994972969
0,18961548801106
0,185244462356382
0,188510981059462
0,186517619955287
0,189893679570302
0,189542679812027
0,189420882411327
0,183920166585036
0,188386862770066
0,183785390852044
0,186530840622958
0,18622879239748
0,188418702142949
0,183991268772366
0,18728982886507
0,181697954668371
0,18603910700462
0,18236150661638
0,184579608110539
0,179310361053577
0,181665167023438
0,179938951817694
0,184957763604314
0,178847072353456
0,182097647223665
0,177643129998982
0,177591669960582
0,177223117370292
0,179871532595277
0,17692971305518
0,181531186214569
0,177531885836484
0,178244240998558
0,17644229475782
0,17551059462568
0,173345186507767
0,178432613936364
0,170696771938184
0,175352781570438
0,169906214900824
0,173213925182051
0,172302508432771
0,171152475840664
0,167047569499914
0,169890288152125
0,168071988493638
0,171486755589406
0,167519651497436
0,169740034292015
0,167445400381164
0,16787591019234
0,161642770921646
0,169348220114413
0,166292780534027
0,166792803358679
0,162013164025831
0,164934478787853
0,161762924197056
0,163773810377529
0,161284060947867
0,165368891776017
0,159637461557803
0,162508535221858
0,159793295901926
0,16233641073527
0,156774962190229
0,16040620929932
0,161765505672027
0,159692672198385
0,153418675842895
0,157166510509847
0,153155193557375
0,156786297273203
0,153814285600882
0,156887382704623
0,158686725944226
0,158081445509353
0,150266713927399
0,155345745126795
0,150538367712404
0,153605569155679
0,15055055980095
0,151587535445637
0,148376648354725
0,151435893108355
0,14905654196722
0,150311098426051
0,145294544066663
0,152315383737495
0,149632887160745
0,14839004142435
0,148158709153295
0,147603464338812
0,146719638024634
0,148491366144173
0,143615961523684
0,145470168355244
0,142409353242779
0,14516259720191
0,140295833960715
0,143341908596324
0,141047233007144
0,143079685716185
0,140519630843392
0,140969094792831
0,13792916533908
0,14281579733222
0,136495313758792
0,139922362658357
0,138289735978535
0,139061362786166
0,135124754759778
0,138358167963749
0,13831204934115
0,140268298199704
0,13494235795788
0,138226376892218
0,134442467639798
0,136209634324139
0,131930596047074
0,133622104299753
0,132021336777382
0,134676005461154
0,130781842075839
0,131886876145677
0,130159599812201
0,133268675646606
0,129287745075786
0,131659576971294
0,1302453518815
0,131099019174447
0,12861748284668
0,133191746705656
0,130076462036608
0,128662361917662
0,127984822013532
0,132527239970212
0,127975483040394
0,130317942951609
0,128654663378198
0,132980296449689
0,126939303621947
0,127071795105118
0,125490066323917
0,128793357568715
0,127630616090591
0,129678839536442
0,126754892922928
0,131361549293986
0,125317113156572
0,128784378324377
0,124500616091088
0,130186536407832
0,127839654555713
0,130646746845645
0,127812199964842
0,126369626280647
0,12621433993746
0,129045264809718
0,122604081482401
0,133633952997648
0,124845413299411
0,132009512410511
0,128216593516898
0,130110078227046
0,129442144390122
0,127309633478859
0,122812826537557
0,127185478530211
0,120428998935144
0,128811894785993
0,126577045775079
0,1269837877942
0,119449294528184
0,122656939917722
0,123064755484426
0,123024969562258
0,11422892560959
0,122239683455329
0,120538016933377
0,124370402626761
0,118823227511735
0,127618235946393
0,117565457464107
0,120835048038058
0,12417082640306
0,123421169076616
0,119656885252096
0,118981501008277
0,121752451932463
0,118468870674635
0,117401586507273
0,116691512115675
0,117369827614258
0,112153080851201
0,128462120834036
0,115873393664325
0,120790650255607
0,105417905396099
0,124451868241974
0,108847475647929
0,131931460472922
0,105151974141035
0,128085150427136
0,0941265105209888
0,134574702566769
0,0977144116211303
0,136896564358743
0,0928798329925059
0,136736195893832
0,0943720673979266
0,132045285717908
0,0948833587241893
0,127697365813229
0,102235514550106
0,120917926127548
0,110158613991248
0,116460198243042
0,114774681597699
0,107313246307241
0,115764362554086
0,104707790683723
0,115578596237218
0,104027062093938
0,113487237056022
0,107100915475658
0,111034245866513
0,111923032930849
0,108970542312695
0,110070591272341
0,10673384455424
0,10894773528397
0,107155126175468
0,111428891703911
0,110807719955734
0,105143421551961
0,107816478945541
0,108333238557525
0,106082217945408
0,107027319002095
0,107197361399492
0,105821330626649
0,106509691178864
0,108882017022619
0,106940880700849
0,105279384587101
0,106033658288895
0,105962909951267
0,106070820790091
0,105752919519577
0,10654655497205
0,106916885316027
0,107873208568067
0,106352973243154
0,104893919530824
0,102998199686435
0,105763853950411
0,107700381980443
0,105980185490996
0,102833655027556
0,107293511640638
0,108138153022733
0,105049417670811
0,105792613784515
0,105603694755194
0,103784305710515
0,104128964902643
0,103542263347831
0,104472654208546
0,105847319523681
0,10576362779796
0,107318189360011
0,107433529225218
0,104879024147356
0,104721900221643
0,103472385556491
0,107096046477006
0,103520465392478
0,105776232905648
0,104835315920076
0,106655916499339
0,106865846161754
0,108025876704717
0,10572307421531
0,105099000044496
0,103417524572435
0,103629891979751
0,104506737817292
0,107044974809442
0,104023534961045
0,106040545784697
0,101560282013212
0,107052000839584
0,1072631205414
0,104157417385558
0,103991405121275
0,10551609140931
0,103962323402604
0,102635387632653
0,104362948063825
0,104439949480509
0,104486650144951
0,107707461977174
0,104901820384242
0,103816103619049
0,106848978810377
0,105654270626318
0,102393260476281
0,105511332447737
0,102068031356579
0,105360359486496
0,105323803697279
0,108249730785882
0,106505520489699
0,105854213036297
0,105675311190432
0,108172970546644
0,10636382317678
0,10832187872249
0,107737446841653
0,107091515504504
0,10399556607429
0,109281510061736
0,107157054260236
0,10627227575436
0,104260806277882
0,105197606354999
0,106513006811668
0,110381919547784
0,108854892295709
0,105187244278265
0,106252678883796
0,108267604807759
0,106834279505714
0,106944808247073
0,11162180520752
0,108117741056723
0,106789343488834
0,107277137996372
0,108312722245892
0,107761451891027
0,107758982961637
0,109722391108318
0,109990066715844
0,110038601759118
0,107595941634352
0,110733032328694
0,109386560749042
0,10710914509961
0,108429081310079
0,108178813148622
0,109302978261403
0,109909091815734
0,110393768867891
0,105868893284354
0,105574745841451
0,109692154124851
0,107369867550259
0,108246355720882
0,108975145966349
0,112236100565208
0,109172098011216
0,110324308717895
0,107264790245885
0,109955775967538
0,110876957956865
0,11047897371495
0,112094527709613
0,112919635744539
0,110323735062626
0,109580849711333
0,111522063471702
0,110350060348926
0,110484112232731
0,110790705407643
0,111300075936617
0,11362748484
0,110751817138051
0,111579860499392
0,111983046212738
0,112262100047545
0,110757402529811
0,114729111119676
0,109598267802184
0,113172679588013
0,113623271755659
0,110891033892968
0,113377534909003
0,114563025477145
0,110815306297176
0,113386129272696
0,109137820797908
0,112672385467861
0,112345879984309
0,113570231863748
0,115365199664006
0,112780927956513
0,112394948310309
0,112371087638522
0,112435756092295
0,110830973210566
0,109613428108122
0,110671462339123
0,110597919990706
0,112162285859832
0,108733294747293
0,108680391646637
0,10935788610072
0,108245146869089
0,110176296288661
0,111806314384558
0,111372125336094
0,110059588662664
0,109106911471042
0,107700877648858
0,107437620457707
0,111385493339539
0,110213944818007
0,11155931858897
0,107411534254244
0,108808048598618
0,108831050886609
0,109678107925779
0,105487950303419
0,107288504511336
0,105184491615358
0,107803121840372
0,108726336257323
0,109180442724882
0,105872056703413
0,107002289734343
0,109515228514635
0,107135271107645
0,107402841968807
0,106147423999386
0,105714288545985
0,106820367273634
0,10672536322903
0,105941095187193
0,104524093043302
0,108405300121777
0,104747238350163
0,104710635352699
0,103884774480775
0,106293386662639
0,105118159649577
0,104829669973992
0,105720369174649
0,105237990461014
0,103029358597396
0,10331513641584
0,101548898554294
0,103555242157351
0,102309222275404
0,102924112221875
0,104885253761016
0,103575906224126
0,0997882038329489
0,10561831793335
0,102245320463124
0,103489162322093
0,103438933928132
0,101475479928906
0,102289550541152
0,102533785740957
0,10135642006105
0,101183250866609
0,101500194942213
0,102196315649768
0,103922435657818
0,101013427451134
0,102639428444967
0,102332872354344
0,0999393657095099
0,101433367425376
0,100245792116723
0,101391369036225
0,103210249853195
0,102674229172261
0,0998688845431352
0,102709953924563
0,102317746507031
0,103536299741522
0,102318413067099
0,0995318594158675
0,101518507029153
0,101899609036022
0,10448255637524
0,0988547044492683
0,100034687971442
0,0989654527447346
0,101843614518895
0,101571749781335
0,0979786661850622
0,0966322304895879
0,0998540243557954
0,0997413527215555
0,0995716429377461
0,0997675344824826
0,0986151269423512
0,0971568441632332
0,0981814264296563
0,0980450131090215
0,0950463532176046
0,0962659661208195
0,095824320561205
0,097388480016875
0,0977771395983897
0,097193195713277
0,0949577934381622
0,0980250348782324
0,0934152021401852
0,0997835201494597
0,0956637353944986
0,094980345355392
0,0944633828702373
0,0961065094273934
0,0964966397730827
0,0980731092020583
0,0923499644179041
0,0942773508043017
0,0933471585160079
0,094296415366525
0,0931494412211477
0,0903300520051352
0,0960295356684364
0,0927698664516032
0,0928455786488261
0,0916364767314874
0,0901401640447468
0,0920379388628551
0,0888871589531148
0,093114206174841
0,0885988992527012
0,0931662122866011
0,0933982434568104
0,0879909808460922
0,0885539402980567
0,0860516195316665
0,0893846663183186
0,0866596335578804
0,0873382631075557
0,0874412732131866
0,0883807339607628
0,0872241235925548
0,0873425998484823
0,0866791770960018
0,087011547152459
0,0853849484099908
0,0845295508183779
0,084996440818297
0,0836439503871622
0,0828761318856153
0,0856837705268394
0,0857403316248388
0,0830377308594317
0,0842114121662187
0,0858157448900494
0,0839509149364073
0,0832092662287823
0,0829481884580639
0,0865745352303889
0,0774552988472107
0,0819921812625828
0,0798327884721607
0,0842685679904757
0,0794022936954681
0,0827965123738929
0,0792865851739252
0,081725470139734
0,0801570307577145
0,0811332919691953
0,080379964220061
0,0818887626447057
0,0780835660444392
0,0806925229131807
0,0789158257027188
0,0836808253347276
0,0772514611761748
0,0818169840040159
0,0774963486035507
0,0824299160949887
0,0792261969658773
0,0796835247843352
0,0792532017277208
0,0818656329378089
0,0776658168547003
0,0800292756734819
0,0780535303972971
0,0734840486923323
0,077863644198597
0,0784333767394219
0,0782031997054764
0,0769808289877183
0,0766610053492245
0,0756601673239743
0,0771581464516189
0,0776128193154226
0,0771496381018881
0,0755564092781441
0,074659792535368
0,0788148482483911
0,0730807061367199
0,0754064145078144
0,0743120076081578
0,0760140140320795
0,07579825691129
0,0731471512620757
0,0754710421739352
0,0719121680554797
0,0733020806010606
0,0741819043690266
0,0754722707872429
0,0708609015324173
0,0828798033359158
0,0683570038715878
0,0730570562412175
0,0726758424497804
0,0722195950011125
0,0738391422882617
0,0706500008661081
0,0736561337260581
0,0732535239261815
0,0711687361069254
0,0749881110378361
0,0716243754992875
0,0709499705550918
0,0739850226345326
0,0693955921516491
0,0710017754789377
0,072657160401978
0,0726861430688162
0,0716771319614645
0,0692154810438606
0,0723909886329598
0,0748821841146501
0,0750767632175055
0,0656019191025697
0,075024487029171
0,0670523912567113
0,0747962633448464
0,0775133892794885
0,0650343468344617
0,0759537302880473
0,0657999101492094
0,0746904781845827
0,0681398561496523
0,0745615611005919
0,067887140162141
0,0773779806280627
0,069069894576958
0,0764904184132501
0,0732167359852434
0,0716773559482645
0,0710133908028004
0,0697022503241433
0,0686780809210458
0,073606089218676
0,0682608520393131
0,0707134878922713
0,070416415989037
0,0678961006307188
0,070296340614319
0,071744728114156
0,0664550541806498
0,0758195983489389
0,0659805974785274
0,0732785723000974
0,0681408288225641
0,0748052546900225
0,0661017848913769
0,0791760634469367
0,0695233315984205
0,0716780072311611
0,0704305908881971
0,0695100105125568
0,0696192516902223
0,0700085900335221
0,0680469710540563
0,0693074530553132
0,0687764931210775
0,0679768369530231
0,0713405488595564
0,0670614665099684
0,069854870025205
0,0712198225544307
0,0713283387606987
0,0666260799160694
0,0705121898879889
0,0666405511301252
0,0724367834112628
0,0695785526683983
0,0682585879359284
0,0776282946270647
0,0715490552065613
0,0733005229654845
0,0652389192752605
0,0723521081067158
0,0643774666884974
0,0729183582573703
0,066140724327856
0,0724198079969447
0,0668153594447881
0,0709300252029417
0,0696040565736602
0,0699908158512951
0,0684268682470702
0,0699944399252028
0,0660224984171399
0,0715410901218107
0,0698779118152827
0,0705189253554425
0,0677968452016399
0,0694988555918951
0,0692115573254364
0,0676228748254841
0,0745183609457196
0,0673364647166447
0,0733984514056117
0,0695550791238242
0,0991475910908262
0,0537965079110089
0,0756342141149568
0,0668372766216984
0,0714783873729305
0,0686740442142389
0,0691045027297964
0,0729045282362524
0,0715517018789761
0,0697626499049725
0,0725927994385927
0,0705516359423825
0,0707578846246498
0,0707834632172341
0,0709586722036064
0,0781135083718823
0,0787414444105645
0,0679381565579331
0,0738120226457875
0,0674724556927489
0,0823840306303653
0,0652486592520762
0,0686003105270807
0,0803717323221617
0,0700378299395724
0,0749068728389884
0,0718347210196185
0,0765121139525667
0,0714966240215612
0,0749928387896654
0,0695969150532052
0,0774722330771923
0,0734155656287758
0,073475606403522
0,0757193535852733
0,0722068904778039
0,0790530065061997
0,0727982073781
0,0721714144018423
0,0817810343507604
0,0683927652087188
0,0757146730169612
0,0731691437224902
0,0763852725701202
0,0745977272433684
0,0793946931255503
0,0738216544760079
0,0772873902919588
0,0800976482579162
0,072705383125323
0,075705013254671
0,0825368528581008
0,0755179938565763
0,0798686855594401
0,0685125519064187
0,103692674425743
0,0701556328373488
0,0867149760471791
0,0798712508408862
0,076763541873922
0,0834777934086849
0,0769536584160509
0,0823528246184029
0,0778722224158394
0,0867981745378144
0,0683204009861084
0,0885820277679078
0,0727012463347046
0,0988991769645416
0,073885077472817
0,0859522916235345
0,0807652773072797
0,085469592711159
0,0777692982822587
0,0887942044758262
0,0763517573671767
0,0940823149006761
0,0967674566517452
0,0831324633626643
0,0901026498405896
0,0804067958939926
0,088794607177556
0,103347060333329
0,0784836016431143
0,0929470970269353
0,0840610190574704
0,0947283248735059
0,0837309774139133
0,0988039328110426
0,0922022678457962
0,0856458574386512
0,0942163484524758
0,0887251676714096
0,0894166073819489
0,107213771089604
0,085275650849223
0,0999173710666313
0,0913275940475638
0,102013687334434
0,0916514203071488
0,134126705639723
0,0842674547205809
0,124222226821391
0,0908453883976862
0,108707706830486
0,103690588016178
0,108200434080457
0,105069490415934
0,113634161983796
0,107510285840173
0,10749571953642
0,107615259476946
0,127007360337255
0,110321397190544
0,108191466717911
0,118621188604875
0,109848449075544
0,126340100117388
0,132915219258349
0,125802739795342
0,123253460506449
0,12197848666128
0,122227741724645
0,137255788727407
0,116842289166966
0,13087097198396
0,124437215507993
0,132773389472777
0,128891870374842
0,135388189497793
0,142173257572476
0,12992130195772
0,13879057058502
0,135068290206563
0,142759827672252
0,147172483359551
0,154744360767014
0,15042722981881
0,141602510777576
0,172296027872512
0,140776629416649
0,15631318678243
0,148426090977535
0,157765881339229
0,164924329587644
0,15620312912926
0,160119009362703
0,16148353787575
0,178030649994212
0,162884790782598
0,171954121497343
0,171603811007875
0,173211152313473
0,189554961221719
0,166583540805158
0,266919126589468
0,168371569107739
0,215335483240892
0,198385737224598
0,227302847052434
0,227461543164842
0,221984238002531
0,230215906032733
0,242650783784112
0,241734875327287
0,252747253991901
0,259363870020714
0,269051184957458
0,273541754480955
0,280025637600189
0,289097272688036
0,31453015856323
0,28660425064936
0,326650848471306
0,320388838058291
0,328335448508346
0,33902672859296
0,352024839687943
0,344242955798957
0,365872610613976
0,365278098141315
0,392435780704604
0,399242736687608
0,390416958815428
0,404337563790094
0,410768965670942
0,446842512545671
0,407766435398283
0,464901271464945
0,452916319735714
0,454974751365117
0,46034569349762
0,468059572422984
0,490686297423363
0,487750743749462
0,517962203025769
0,506446608806339
0,523881532428452
0,517222935288322
0,538910282088059
0,542635940460975
0,552005143306473
0,557061252400998
0,559895557397899
0,558823802007798
0,54948955451704
0,639913775323888
0,5821081292089
0,567850634865962
0,583848157501237
0,575642384179372
0,616149121340903
0,582389427848119
0,650416764869632
0,597535359168273
0,584304639953686
0,591023659997934
0,602149443414013
0,598287888335872
0,589986401957732
0,608174568839249
0,589902735101994
0,618256635836689
0,607712500312357
0,619013079749766
0,64646294732429
0,600145512849494
0,600515533688076
0,592898386421529
0,610356944476059
0,595146172636175
0,59415281661198
0,582839855967304
0,603882942538258
0,568770611842844
0,577925733746929
0,555726181572714
0,583375301210775
0,569261664439543
0,549377414028097
0,538227308847347
0,535039731930763
0,530893457082816
0,517246188899448
0,532089802402343
0,567349795325141
0,502524032351541
0,515521103949818
0,498345902713243
0,497036945163311
0,494466587964473
0,487285949398426
0,484773235114516
0,48717399036503
0,476637436090493
0,496035506757181
0,470477237861817
0,477806142954093
0,476688446772603
0,476163268962313
0,463622816695915
0,473282561575634
0,459931748260155
0,458280133114718
0,462520110519692
0,459927019441569
0,454557234702187
0,465523362169157
0,460149809033446
0,466011504082636
0,450733133298578
0,460967594170694
0,448853417855774
0,462664368517456
0,453932266042214
0,461446730018779
0,456036161883497
0,458971293367057
0,457557271053166
0,45851585389908
0,456495083249674
0,463260649500958
0,458950562295183
0,455960523798193
0,461008173730695
0,454357275088883
0,451786549900794
0,444726937286073
0,456582598724105
0,458824075864712
0,448108686397686
0,45342813669958
0,441973807864555
0,449365108217702
0,440954961168358
0,472575271264713
0,448034386775251
0,44221833857246
0,439800657487824
0,432291131631292
0,436545026616217
0,447512530639122
0,423847040342154
0,441154003539259
0,418594788634492
0,450095938811
0,456702765294322
0,44380810165101
0,438351250225621
0,436265960684776
0,429783997753224
0,423412130573918
0,451362743004129
0,424626193791359
0,429391440474479
0,423448134685072
0,444606486347231
0,436314628586471
0,426814045160187
0,437886024108819
0,418809418901018
0,430192850268292
0,430890736144925
0,426323883947624
0,409821616377691
0,416681482811835
0,426552512854942
0,451976517041406
0,396090785810669
0,415879489590895
0,402548044620807
0,40879377297936
0,406368472657285
0,399857831190365
0,425958425364685
0,392211281696582
0,398673824350478
0,39034153808816
0,380928066183511
0,390934292593636
0,377847322852197
0,392928252301591
0,358225727863167
0,390683350705845
0,358716122896555
0,374331503555305
0,36185559822118
0,366952113598449
0,372346863573049
0,363441345170711
0,354984573670443
0,362215484510237
0,367548915384756
0,347411159225489
0,351410422595752
0,345238727175177
0,336573270814129
0,349666760913052
0,325954461142656
0,331491587504855
0,325372726959095
0,332389097475615
0,331931304995975
0,310365638286076
0,324694026031434
0,315741272501067
0,311968923700167
0,312245197489824
0,302734990108917
0,306303530120272
0,301820484524446
0,307999430740469
0,311836912075422
0,299022098088129
0,322373200280449
0,297363888980902
0,307098711398188
0,304726421560564
0,307810941191549
0,312739308343226
0,311316374903248
0,315877879111648
0,317606779788187
0,305280612731893
0,326872526245503
0,315152093528316
0,325391431994334
0,3207782546017
0,333726581344933
0,327166041932262
0,338372856272067
0,340560587535938
0,352639299792752
0,359183336710358
0,368925913421092
0,360577702988671
0,39600082788295
0,37414877328764
0,413340379901972
0,399941980517219
0,410904759365886
0,416391389898149
0,416875352271386
0,432681767530363
0,431520384543009
0,439023895889188
0,443952847929131
0,442469415901778
0,472218497674774
0,451886871040831
0,467737531646382
0,467182901770721
0,478963293018215
0,481124947710786
0,489072255850696
0,499615693457134
0,503415730877034
0,491626845326429
0,489535796655423
0,514259274368148
0,504801713607521
0,514357585071133
0,511077621730602
0,510003235744607
0,526137395234628
0,513409327651173
0,530239629158402
0,526412629817255
0,520779436830538
0,52869882807249
0,532642388605939
0,537952116999132
0,535539829412947
0,539926179621514
0,543148857394595
0,548540033251563
0,557357754847733
0,539859426454588
0,578367317157151
0,56890166496988
0,557500855264606
0,568165779980117
0,5665722481019
0,577581567100623
0,570429958919948
0,590266522801865
0,593404628399173
0,586575373269163
0,596648778669985
0,601002195070661
0,611914989160254
0,596873856635127
0,618035659382721
0,608783982659662
0,622484596846653
0,619592345535198
0,601194494392574
0,654661412110433
0,617569330116559
0,64734567094912
0,638199108915144
0,645798404094245
0,644929094240178
0,650023002767405
0,644014373763019
0,650033458147728
0,654363582685774
0,653884175036606
0,650636889238297
0,649565437265436
0,6575815139429
0,651507708376912
0,665728634776261
0,657710023474656
0,650732867977356
0,644009527005252
0,646733261244853
0,657425560019183
0,654546913363896
0,660039391434292
0,647583799759564
0,64634629469192
0,65007218382707
0,656486018899751
0,652248259128278
0,655943535808332
0,65488528866131
0,649816645402876
0,645571659177018
0,660636640649145
0,64060701294137
0,671515413592776
0,663545695005694
0,668729199546475
0,669055836882681
0,676015811261882
0,67320793173038
0,677803333942902
0,675160015476546
0,684075812240783
0,681863555037413
0,687827094604797
0,698353235143896
0,688597123950456
0,682280084204248
0,680677130408316
0,685183166295198
0,681909518466551
0,679969971216351
0,68894000729501
0,685330143257217
0,691466398746206
0,66671675163283
0,662973119223791
0,667874815995312
0,665109672177533
0,645364167243407
0,671255558125508
0,655668812968096
0,644192816867048
0,654656942327947
0,63461498474421
0,638744163916183
0,623677197412321
0,628937302109511
0,629317159532845
0,624023477045955
0,612923946997791
0,609408162692043
0,608673144152022
0,611030701497525
0,604073011110325
0,608382797363685
0,610847100291148
0,60179028423995
0,599373845652061
0,598601406995319
0,602904127423689
0,604990658302553
0,602062743779274
0,602830025662864
0,602673860972031
0,607087848553973
0,608316908314187
0,611139659067499
0,594363698554435
0,60531010031084
0,596595044231563
0,600710314071943
0,597840352122937
0,595949304721206
0,592909721133208
0,599491638611983
0,590595718618621
0,594611175436393
0,596293990910132
0,592652865363184
0,596062715041631
0,599435439995295
0,593700098694231
0,597378628586143
0,594342535591661
0,589515795393273
0,592615949675684
0,594975790938897
0,601150055142226
0,593372801390194
0,602742440415874
0,597319991602559
0,597939217062922
0,599413491462008
0,5982560770775
0,594049899363169
0,5931430166768
0,598290479726308
0,599046837428991
0,59677172581417
0,594464150294294
0,597658389431767
0,592896743703117
0,588875824914878
0,588932312903482
0,585698199372964
0,586612355252337
0,579666171300231
0,57793347059545
0,569918419496819
0,562077424386181
0,561200330141383
0,560910430541432
0,553496196296521
0,553124148775926
0,549885704069116
0,545377851012881
0,541178233409953
0,533972417365863
0,527981110751243
0,533488919581842
0,531671237943288
0,525239733642084
0,523018582750264
0,521784033845593
0,520597822908413
0,52001611632027
0,519462092329044
0,51853863794124
0,517679608673557
0,516740932117885
0,515462169367508
0,514806835012738
0,520846878752884
0,522855677306451
0,51888217312881
0,523503844597901
0,525626431446822
0,528333045770697
0,530351652680013
0,525318435039915
0,533816747830672
0,533309162382027
0,53581612977316
0,536851468584269
0,53914646978648
0,541580949513181
0,539312113026691
0,545007947811782
0,548826185075468
0,544155844480483
0,548190817109707
0,547377975256431
0,548452552905854
0,54686267860511
0,548382388053385
0,548193001732059
0,553005790617428
0,552245169215399
0,548387752347025
0,544761272657278
0,543072911326625
0,541446795729089
0,543981281823702
0,539134657033486
0,535485977368083
0,536753528952544
0,543067104578644
0,537300748477868
0,535525690456765
0,533616705198667
0,5306685389652
0,528997111435663
0,527941978329129
0,528717920154098
0,525327371440467
0,527535834935386
0,523505942174682
0,520989201981526
0,520972503072064
0,521162304719281
0,518886641663302
0,513721783558649
0,513682282765247
0,510703183965741
0,506703751733845
0,51253520717509
0,506885493737018
0,506701314503343
0,507065588906911
0,501907072940686
0,502078149850524
0,497914102681381
0,496274135890518
0,495794593311133
0,4922175505288
0,490448250332478
0,486269410712192
0,485093592734055
0,482268165999177
0,479948677054047
0,474986837648659
0,46874715130583
0,465741054257877
0,460502313078457
0,460057558883044
0,452600554911756
0,450105367248405
0,45259164223009
0,449375143069445
0,447624866723215
0,446330155571268
0,442308234582951
0,440683084051276
0,441738774394697
0,441474246916484
0,440310186020142
0,438461162171896
0,432677101645017
0,428234666692507
0,428259299504373
0,424881672902104
0,416399499596507
0,412710826115431
0,407153219391534
0,401136864829073
0,396487033329965
0,392267080610921
0,392805512590514
0,387614162009356
0,387725197029602
0,386935896606538
0,388898924485085
0,393767016742529
0,399364452311173
0,403161252688399
0,410824776793086
0,42198187118188
0,431608323773496
0,449806837859409
0,46059020226513
0,476972197452852
0,490751773712596
0,508680792834831
0,529616790943434
0,544658319599969
0,558345469329822
0,576287223137881
0,594688741359329
0,613875838909915
0,632151115732589
0,641161372849218
0,661531656590621
0,677259089188773
0,691608673102264
0,702987676260952
0,719745730485662
0,728631245462824
0,748324260668406
0,758839371464803
0,762256163480944
0,783613906063949
0,788994240776025
0,798577025252904
0,809364959622209
0,818049654557156
0,825241406010065
0,829272280300321
0,829883742269518
0,83523726865074
0,83501066916028
0,841758271320748
0,836422698402796
0,839904533054064
0,845327965265387
0,844405775976756
0,848855556364807
0,84872333840816
0,844607697410255
0,84942609479961
0,851294003389049
0,855406298693117
0,851166273731329
0,869635104850452
0,870510812513184
0,869515945884208
0,882359225318759
0,894607747440241
0,903170313771464
0,897667048393497
0,899631077616196
0,916384217810441
0,920519224755435
0,932468803399076
0,953494296467506
0,959735083670421
0,972165167482608
0,981609494836899
0,996913797475263
1,01724505047171
1,02165763610808
1,02172071301182
1,04665025117047
1,04399473254181
1,06412949502552
1,05196218882943
1,07233053071209
1,07217337677217
1,07871599639972
1,05929413819172
1,07057290149047
1,05554380508758
1,0594014925456
1,05560361506031
1,05129676036563
1,04141418546593
1,04430770909331
1,05181387336106
1,06275869053969
1,06429792878973
1,07408078193147
1,10093448782472
1,10860516421387
1,11572469816408
1,14459808546872
1,15864875111677
1,1786604230387
1,18259835442083
1,19325200720515
1,21037435023204
1,24091274093064
1,24685950837707
1,25883375014079
1,28382266927976
1,29888249130342
1,31620126435497
1,34001808645671
1,33572268313358
1,36966328490998
1,37690571009996
1,41907412334764
1,45558204450115
1,51617732313917
1,48850977456423
1,55329214831025
1,56672115861039
1,53431074972791
1,5551708185574
1,58889189308043
1,6818998598427
1,73280841144007
1,65323441405427
1,70649852812179
1,6719423821299
1,72877984284332
1,68528594987562
1,72663160904715
1,71326350036218
1,78871001016177
1,70812298364655
1,81050551951451
1,72246844990485
1,72104768826527
1,76735069202204
1,80508726433534
1,80103535941465
1,77837448509317
1,64040971773667
1,70796067545933
1,73142029699293
1,69823769288887
1,82513782517094
1,77835064480223
1,83525157909952
1,82542764577012
1,74109652028039
1,73723293700284
1,89862273512314
1,87707788890425
1,86145796196497
2,01458127908814
1,86406804873881
1,8638370624388
1,88234602104749
1,90881567355288
1,94134075915771
1,97425511844763
1,90709174940151
2,09908883628065
1,9482375624093
2,02969422266372
2,13851665290165
2,16612341265403
1,96833023513977
2,24216560329343
1,96986622439503
2,21936069729781
1,95286271989471
2,31570200619375
1,98789715905729
2,07990472171956
1,89372409169313
2,29920595294428
2,16483602994698
2,17636941643265
2,20636368647956
2,29557435709707
2,00965353666797
2,36269377272761
2,06416110013643
2,44923665537698
2,20055908582748
2,25704054331399
2,21595781457925
2,13548009444098
1,94802727325179
2,00475583166768
2,11557249700773
1,9148453256397
1,84722144865516
1,96421671736108
1,92128123292582
1,73618654701173
1,80798632142365
1,79704680729173
1,69247208884055
1,68125868916498
1,64872364734132
1,61491475539691
1,62092330343696
1,67405532415296
1,56251104249424
1,57155346431265
1,51614071103899
1,58324190637375
1,49356320756455
1,49542044995337
1,46909981044588
1,50397686269449
1,49269294322792
1,48549615767895
1,4467511784657
1,45666535913105
1,43890680530032
1,43521096858574
1,40905143625742
1,38777201213595
1,30981958467384
1,32659101423347
1,28661580551855
1,28231259618993
1,22299238950662
1,19970880407225
1,16620134382805
1,11845530793631
1,08016121409614
1,05335227742987
1,00944262072713
0,985326723232876
0,924641877966352
0,909432528281875
0,879769279604077
0,832758952635679
0,801292642634859
0,779578596697865
0,746171298002376
0,72482116846439
0,694569564593228
0,675174411399748
0,656522915058008
0,645262408244837
0,636016638075653
0,624301019804247
0,614303175145075
0,602921620517573
0,5930412044315
0,599862594870973
0,5862870204024
0,581404387293147
0,577691382677399
0,584403803608957
0,582102887421239
0,589186196311453
0,57724298364274
0,584876806770634
0,57806533879674
0,589923437409602
0,578863009741427
0,584498308071502
0,58076745559619
0,580514827783106
0,567711403774325
0,568396862411199
0,563657497891387
0,562687746151278
0,55449484673585
0,546392602792331
0,538555481152829
0,546159273801841
0,535169770138644
0,53366015268644
0,533569778496235
0,525370527464403
0,532858677918596
0,535908541151415
0,522222016920059
0,542045855366771
0,527977940408713
0,544860440288827
0,536069718590816
0,538543865807523
0,534178209521231
0,548192646838722
0,548605539882199
0,550671400805594
0,558268839637272
0,552196490103845
0,557459402197326
0,569320109409356
0,571911005833988
0,574218963161211
0,566115558785956
0,565480644632035
0,564921861104934
0,56794892891539
0,559956996267778
0,572414470161557
0,567646317581379
0,573800660860444
0,573520893346341
0,572850965820127
0,582291159293974
0,594261496864402
0,59094557949758
0,615067500639649
0,623400223909073
0,642219026286466
0,643652648088124
0,662848604808716
0,680724351033721
0,702538798262954
0,700448817126231
0,719194248904875
0,725824617435915
0,735472455049968
0,728274064915237
0,738443172764321
0,725486808958477
0,747914800650614
0,719495614821118
0,702479124311587
0,694311006295497
0,685792855553811
0,670848084618363
0,683314489152184
0,661670777894942
0,680095969350101
0,662200256703442
0,660669047670865
0,673476258800767
0,67384440160883
0,661686532534153
0,689742225290997
0,67103458299534
0,676933091698117
0,660830924408565
0,662470257676551
0,653639900898539
0,650957760261115
0,646787340575659
0,651443683407955
0,625157027776486
0,625493021287445
0,623981103651594
0,622086666433406
0,616251348463899
0,608929663816448
0,607416875445555
0,608207740068626
0,60321807933829
0,605494724165743
0,588018451857624
0,59391433496607
0,575021414688761
0,589833169940855
0,587674040217559
0,582598086398255
0,564311633492284
0,578163286739628
0,557758093702779
0,565394938884266
0,543121550049079
0,560030041109004
0,554185479903168
0,566173151051506
0,559552923634253
0,547070039455587
0,545287098796386
0,55749707739177
0,544284054501013
0,541328664168586
0,541469447584556
0,54117730059967
0,541247867163473
0,522684317749313
0,523902382437926
0,528296667504606
0,51072906173348
0,530667193064318
0,524980452389878
0,536051195797768
0,50899605734649
0,522999061135801
0,519876385388571
0,504355943323817
0,51972916749651
0,526699862022772
0,512467683591023
0,504648301074825
0,505067822023934
0,531845924463511
0,496600424380728
0,543264773980956
0,506736326559282
0,526124566107026
0,526811894290132
0,529294797652031
0,520832340685126
0,524870797487234
0,527696195765251
0,543258917296499
0,536611460348608
0,537973076458362
0,523519497396656
0,565660393053193
0,550388470271348
0,56940853921419
0,558858588286318
0,55909628539438
0,544428994875974
0,597817777093226
0,583520008750297
0,591233911728523
0,561506842333733
0,616488413911045
0,615302173132588
0,613784359983971
0,628909849942092
0,65692733029172
0,662160260187307
0,677812768882191
0,701380842096323
0,726172818049788
0,717933458218621
0,735713898835341
0,734659538516181
0,833506770574468
0,783531662897675
0,816125589361091
0,836357095426838
0,888845973366013
0,879012210447193
0,885612844798137
0,861819497893202
0,876003914402654
0,830563697182472
0,91610367048964
0,820067516564419
0,855506035671028
0,860302488089533
0,940842654653985
0,880377990287727
0,881678349651202
0,814924797983326
0,830911053405597
0,877017129110002
0,876928568184834
0,903461156469433
0,848451956823877
0,841052447357206
0,875674235318768
0,77014711025568
0,904290471254161
0,828272458933384
0,806167349457342
0,772113585467374
0,83231189813693
0,801214720806174
0,827979536817127
0,78716362433361
0,772949920814827
0,779903745101321
0,784295966617324
0,733463510056508
0,828916914263434
0,750369125590558
0,76792472362216
0,761240155297183
0,789501073550879
0,771826108738876
0,80872929502214
0,725435384819715
0,765245010117255
0,760510621877809
0,798016048124965
0,743033336645783
0,822474082305453
0,756650539294845
0,797652771510297
0,756108889859517
0,802085882030866
0,749376481675919
0,815179433076914
0,754361244118277
0,906236473506958
0,749853902207918
0,769701605159384
0,806973162441555
0,81577080530475
0,76281464432724
0,85165271259065
0,747578636375256
0,810054435300587
0,86837760513241
0,875108578056933
0,853338822569661
0,827566831666159
0,877146877571283
1,06786116260527
0,831923805571314
0,877649243794199
0,881571324226992
0,958273640555138
0,898040064470356
0,985832149695056
0,856814044330708
0,964338610428579
0,937849844633961
1,12860531995399
1,01075525833737
1,09649397715609
0,897992552159988
1,05754434370877
0,994060076557789
1,00679589164903
0,901046881731968
1,21200484354604
1,02627894161015
1,11577447475063
0,855399651879886
1,01622356127086
0,964824730677134
1,06532625424859
1,07261379034647
1,12450094503868
0,939113783209884
1,01462464991172
0,937959950907075
1,21719927079858
0,88001343462116
1,27738116071224
0,998251093178798
0,991655907416617
1,08004809192084
1,26107136661975
0,839119258418131
1,31121575084486
1,03541143102725
1,1572144603179
1,16245005648333
1,72420678749769
0,998883768707751
1,051469865966
0,800839885275355
1,3768505116493
0,762980460484158
0,770285220401234
0,708770793584568
1,0052233094397
0,998769644074574
0,779351281963405
0,904634426956096
1,29782089340599
0,702932336515081
0,955365632153519
0,765002119615703
5
1,14059864980927
5
0,685491055326428
2,06738281964749
1,01574169629143
1,12034186799998
0,779594371450785
0,716200436400622
0,81633425959587
0,831239684414394
0,897182285116645
5
0,98926271530333
0,628790184301053
0,656152353687766
5
5
5
0,549472416966066
