3596
4000,36533379555
650,420452594757
1
2
2
0,0653363539074398
0,0536962676979405
0,064621518050769
0,0654479238554417
0,0495523271986229
0,0608152359455284
0,0668761471713801
0,0605576358943254
0,0591702035761084
0,0546284328070819
0,0526403465968691
0,0583384962113146
0,0559301130945016
0,0639700538383546
0,0538899868855388
0,0627603579667159
0,0485346951079809
0,0728850276204807
0,0649022420921121
0,0601648905251108
0,0573341990580672
0,0682434225576779
0,0557962516789661
0,0665876072865441
0,0654393967326894
0,058940375231486
0,060745096834859
0,0651290436297794
0,0619255117616033
0,0538751932895266
0,0616713132673637
0,0592423598000478
0,0625496129331528
0,0639112488390601
0,0506089457948033
0,0671394643343155
0,0590299805434878
0,0583591736638017
0,0685202789382964
0,0613225668439604
0,0608994211277664
0,0643456179615003
0,0599420852468394
0,0637275100068276
0,058002248646309
0,0625203717004696
0,0568367651272196
0,0553480531365367
0,0578793272054318
0,0607437962635275
0,0599262126132333
0,0575260372444365
0,0833083961596357
0,0474680198429956
0,0809402459271705
0,0652021083344745
0,0638368755659308
0,0596515488645887
0,0485086186844063
0,0596502230630074
0,0693018793886113
0,0457219096966635
0,061881792318158
0,0466711823630474
0,063494404042465
0,0512344624328946
0,0653671894558332
0,0491074154664063
0,0742089286440052
0,0481712878236158
0,0583525903416355
0,0619640527363801
0,0451821653228816
0,0636139108562262
0,0547702388267364
0,0605912480550126
0,060275646167653
0,0433970585757381
0,0721961238718916
0,0584148426638033
0,0456081268894739
0,0471480116376362
0,0480966858414266
0,0551015241676622
0,0813264549060412
0,0392638526004165
0,0665910505718813
0,0660722474371566
0,050364323221233
0,0438498172513106
0,0469336569253903
0,0487333479954819
0,0536945891608947
0,0612171230500145
0,0566188079680544
0,0482548475464675
0,0481562476392239
0,0639837632008824
0,0550498118501103
0,0631423065146918
0,0387549932339842
0,104775163919865
0,0205004532021626
0,0873326888453797
0,0560262075310993
0,0351140023152916
0,0894695135262944
0,0216598614466952
0,0598060137617284
0,0397375328935655
0,0511837094712754
0,0503005741042231
0,0701854545021403
0,0386968066016509
0,0568973598865446
0,0627967316454049
0,042390733294411
0,0481643679409648
0,0487723007040941
0,0409687865035785
0,062118858211625
0,0832438265913076
0,0146613487879862
0,0659770125098107
0,0435357801371844
0,0449461057472243
0,0653276450541548
0,049791078933474
0,0289199057900985
0,0499898415176351
0,0400484410552111
0,0480351537392496
0,037163701355862
0,0828481036701492
0,0226155860958315
0,0503469961623673
0,0561851537962328
0,0701273233016423
0,074010798544025
0,0300556813782149
0,0609317189945049
0,0467595423157216
0,0545427899065243
0,0636454441771943
0,0404759572794353
0,0400186942701776
0,0596816235481448
0,0525901777616658
0,0316383628677545
0,0597068657333035
0,0412519426196847
0,0630806537148149
0,0603875215870541
0,046109913582233
0,0640995366065445
0,086182384406251
-0,00286461505890815
0,114427555277756
0,00823428891107342
0,058243920059507
0,0358014387944479
0,0434639860866275
0,0493539226690515
0,0493771775375803
0,0433964782871732
0,040154422616372
0,0702652360837033
0,0333342739583649
0,0585636230348823
0,0541193211188007
0,0604820933087633
0,0336770975185896
0,0699805695214991
0,046686303161798
0,0324171823131611
0,0702556685339778
0,0364810280015388
0,0468577977269516
0,0373997638415997
0,0739197509996329
0,0370550424813242
0,0455418836398337
0,0487530102164687
0,0522261993560241
0,0569443932179008
0,0510358343564149
0,0404688207286842
0,0583903674520934
0,0408492036810657
0,0621349429120379
0,0702205117250727
0,0696694053183666
0,0223992150023877
0,0559452696228521
0,0361660273069747
0,0659230108130522
0,0632528687396649
0,0291413521324525
0,0564299988275435
0,0481047138573083
0,0497388261568489
0,0499120029835671
0,0446013160779452
0,0546321153412567
0,0377112540876857
0,0759701052014795
0,0472447868775223
0,0432594078953901
0,0558817194869422
0,0499456906669229
0,0658497978291413
0,0669093502138473
0,0904557142228183
0,0136665965432348
0,0494604716651826
0,0440010735133542
0,0607814073905199
0,0533829959416631
0,0357340637943048
0,0378901707586936
0,05227794839926
0,0470794703826749
0,0521058012125327
0,0467867611788002
0,0491562476278921
0,046527390762857
0,0523682347397535
0,0487739674909089
0,0509024474801872
0,0600420727120526
0,0538873542237766
0,0377320263800675
0,059234894180152
0,0477678810329353
0,0458214313180448
0,0757615154037331
0,0400247220487574
0,0484579883688216
0,0521749278148111
0,0484834888456427
0,050054034112156
0,0516907524792103
0,0523458472463013
0,0611815110458363
0,0536852371698813
0,0747639536750072
0,0498757416579671
0,0395840503591756
0,0533934827777245
0,0452712617617931
0,0817503461216859
0,0250829785457207
0,0645396480768003
0,0475160155094474
0,0633974160157254
0,0391318042400079
0,0764477931795491
0,0406131909053899
0,0482747716426706
0,0582140141966823
0,0759422241331871
0,0394509408984752
0,0676727292550853
0,0490012385627303
0,10238407358963
0,0610690343226074
0,039410974870756
0,0764059685953001
0,0391219788022746
0,0360911045744663
0,0742561724296973
0,0405939399602794
0,110446608509777
0,0461389823867993
0,039629012088779
0,0346594906906585
0,0712515203544564
0,0483348814062739
0,0613632767214682
0,067341864357147
0,0421478642694796
0,0782832631270456
0,0465698509289876
0,0764835916053602
0,0656065500457502
0,052218641733966
0,107222357158752
0,0261210676281194
0,0650575688872308
0,0342508425783704
0,0652083058592762
0,0538061165927614
0,0996743613285625
0,0387662461151351
0,0916360227338401
0,0379903289295349
0,104139879496436
0,0500171512294571
0,0529521147101595
0,050400937023639
0,0806878188622893
0,0519837395752888
0,0693451999149009
0,05223690374637
0,0735743963964465
0,0671831025129733
0,0620090005915453
0,0853443480204754
0,0813638101542402
0,0426564840009812
0,0919184731510928
0,0471575071726398
0,0621410856831565
0,0646326887633007
0,0663576027624081
0,058001687919916
0,067414053160261
0,0651838856690045
0,0782368432790242
0,0654953550220343
0,0529964255487858
0,0691309808049862
0,0621568109685122
0,06117410271074
0,0671528449353121
0,0639366343036666
0,0735195472958907
0,0673042702475779
0,080315842796766
0,0713825001162136
0,103462138603121
0,0656825717650941
0,0773710909247805
0,0909387817923109
0,0557293041264886
0,0728694372220293
0,0709803961159853
0,0701817686003678
0,0782754141382593
0,0693959873889503
0,0823657510441921
0,0779133795833195
0,0827560726590469
0,0773993444838677
0,08428426827682
0,0912108334448851
0,105332040696315
0,097745020953329
0,0900152462200817
0,0634613869110782
0,0889189676359962
0,0809795737411454
0,142277664280457
0,0668375613599673
0,121853423302901
0,0608705539699513
0,0931850492367976
0,0984951113254502
0,094653533422086
0,0961927509530252
0,0944467209393399
0,100275120231124
0,100364162287913
0,104923757608233
0,105849421315537
0,110184874720036
0,105088730159845
0,128591526624129
0,111542659351912
0,0996597525677644
0,118089098471266
0,120810117563635
0,127151550934829
0,148441471163402
0,125265170507512
0,150888110107355
0,109030719783221
0,138680108190568
0,101785340974297
0,105035411435865
0,13720036491179
0,126611559245063
0,149513291812982
0,139595367509247
0,140292615051416
0,13641216197937
0,154666960025243
0,146066716590299
0,150375798193969
0,148574816883527
0,164231232977602
0,156022535715781
0,178205656586706
0,149611955889612
0,183325743859933
0,173117002219624
0,241561541085001
0,176637773281891
0,191165971535504
0,14314524016982
0,190358647020812
0,170572383693954
0,201669127238409
0,179309505008612
0,203623992058163
0,196325000468549
0,213890152540544
0,210612920715088
0,211475465394115
0,203058009667352
0,20553714188725
0,200182370905247
0,247380513812583
0,205984220945676
0,248488362794642
0,213234568317945
0,245407310441392
0,223294683571862
0,257825887261842
0,210413654926428
0,26079752038546
0,224017768305653
0,245055616745082
0,243405679238876
0,255338080143204
0,257599127914649
0,261890037523142
0,270446335978899
0,265546368327403
0,26556023867764
0,277165725406836
0,277295568491822
0,279662459014758
0,302583873756851
0,289267699372238
0,299980238251896
0,309499160253925
0,283935315169414
0,31182234276412
0,279935312424905
0,357753769565283
0,297487410908576
0,344948620512768
0,284140968888262
0,319825495877147
0,30611806439854
0,331462016903153
0,332873804354157
0,344318192438978
0,330023307781787
0,359972038212541
0,342921711208591
0,374122375455178
0,340215589735066
0,379538517854512
0,360701372280308
0,391513051151026
0,372088706846942
0,388108194328362
0,369399621444627
0,403946339703978
0,358862094769375
0,443368862889509
0,397213443917978
0,436617410905015
0,374882050132262
0,42935487273872
0,420447469190008
0,406071695382711
0,398245126703541
0,420649625490885
0,438286444204057
0,444080970504739
0,423366246502034
0,460018176506582
0,457711012435417
0,459297778591585
0,44027254685149
0,49061196102568
0,468076047403842
0,489160478096048
0,446555537597332
0,494732653231627
0,481859680967535
0,511204378832137
0,472482620657104
0,4984487473681
0,504661450379087
0,535369219046241
0,493902018954994
0,52943931078234
0,502874534723807
0,54411588512282
0,509492639994388
0,555614959325053
0,519451575655218
0,572677202560525
0,528256173462931
0,543026316617564
0,556907570881381
0,5945934889449
0,561089943493004
0,599657610579734
0,560132556715455
0,568610613111563
0,570258888847522
0,652565462049433
0,560891659259925
0,612698093180484
0,582460285360161
0,63556276210116
0,581278761163764
0,64687266683525
0,624020792438413
0,633766427156676
0,583199662726365
0,641175181507163
0,650159048642281
0,639709506848773
0,624454897018964
0,660727369613255
0,613846928112551
0,659112782508578
0,666811851053945
0,710509101596328
0,651584608077484
0,698151933299208
0,66146408669059
0,66226471323762
0,671477119859746
0,714795468934229
0,698597891642522
0,719082720554268
0,710894630947044
0,77402208683138
0,691646645082554
0,742594753473354
0,707256683499534
0,751118675493987
0,723722887149898
0,806822671658225
0,754453293155238
0,792497463568388
0,755997182371796
0,80414004803733
0,725101640885617
0,777132966754755
0,758919097768635
0,802646352170692
0,734198939653617
0,798800044912776
0,849297490673583
0,828726141187063
0,791538095756425
0,848338635696843
0,776554615720807
0,857900541567605
0,822337409170773
0,893123505725843
0,857187323389151
0,893693281606344
0,827054952429204
0,917436223281285
0,810859268071702
0,868557030108621
0,88091486299039
0,896578538952644
0,856410834725652
0,877045156173086
0,841081164703394
0,894827987525818
0,899345690039317
0,955598785945147
0,859694346597797
0,93505762892718
0,880111653770247
0,927071898252181
0,931030770817181
0,957090553457093
0,934982252453767
1,00377835123103
0,931039011996345
0,989557307606033
0,970770720096824
0,998354453972267
0,970530842301815
1,00704277292203
0,932713402488368
0,978136569939965
0,942198476485362
1,03080890460555
0,97415613832766
1,04214488443519
0,96733666111733
1,07886714111332
0,958823003876962
1,09305799604147
1,05621417619498
1,00757652727912
0,935788194148666
1,08522867527214
0,960002082079778
1,05047113738197
0,998587166205872
1,05033860905619
1,01228356150937
1,0797132542856
1,02711219392771
1,0943755091822
1,05047110922996
1,0780735534386
1,05573531744871
1,16237994019869
1,09086206961821
1,15136417351265
1,10914949239642
1,15538612699831
1,04626508959408
1,08911973622882
1,07102555206045
1,14721401667294
1,05479624408181
1,23162277421561
1,12256377550813
1,09694264136265
1,1191865946538
1,18992190154237
1,1099220302682
1,22973026784925
1,13731400894903
1,18774628105329
1,13063829910004
1,17750721426401
1,14652062342317
1,21303237682244
1,19798754994824
1,23260306934096
1,11443839301938
1,27423985846991
1,24401778127599
1,17693151443166
1,11027392033223
1,16451216373975
1,17816366223778
1,27420380088234
1,17020328723429
1,23905887653099
1,15981700092917
1,13073001756928
1,21755867255339
1,36751889109142
1,16230651864998
1,26928662800153
1,23181734447614
1,2476009482542
1,34917573398582
1,49714483012254
1,21893790937719
1,31305170547403
1,35450833702975
1,37394757961036
1,2569264675707
1,27760482948098
1,18666126160554
1,27212329708313
1,33124700301317
1,29675978170901
1,21034738178573
1,29373416084329
1,38086091517257
1,41445006655376
1,26212906049674
1,22464958672458
1,24482857744936
1,2448698166733
1,22705141353041
1,36536704509934
1,31851355993764
1,22825088125589
1,2293843849306
1,34909922538017
1,32675257516953
1,35979410133884
1,26705400153636
1,29663117294268
1,2582183927059
1,37063349470587
1,37750497767328
1,25438584761711
1,23870823345601
1,36393117032152
1,24721447326905
1,19858005293361
1,22698888840285
1,37380105801315
1,26846760034371
1,29774214601434
1,35321690502
1,48983433114989
1,29009073147244
1,37482435099022
1,4126206186904
1,31248512246577
1,36827123522763
1,30358923710521
1,33174540856263
1,37435405231139
1,28934090072831
1,4958129607613
1,37452093978963
1,29306654044232
1,34890606623698
1,31970597119244
1,40674831434366
1,37819567958302
1,30966062615747
1,32744505022424
1,32819151596852
1,46611011043127
1,39717901163433
1,40314236780151
1,278767595322
1,29502717524644
1,32172992648956
1,38099762760024
1,41921243629204
1,41988696365143
1,32739931260535
1,41224493229571
1,39690013403708
1,34583080435845
1,34515775553534
1,2849931562211
1,39324061026921
1,43553143115812
1,34860787927459
1,35545377221973
1,37172271161034
1,40301010551894
1,34460605874714
1,41382526157132
1,33435449801759
1,27438224526872
1,23237098438648
1,29242589296316
1,41321461070907
1,37053020531622
1,40900247879874
1,37979080170018
1,34422082108749
1,453736972657
1,4014334516479
1,34977303984858
1,33018582781098
1,41022701868008
1,46565509554155
1,4506409911374
1,43809393942599
1,4032904597404
1,3364084907785
1,34579795574283
1,38563202636242
1,40917153709427
1,37470002121643
1,42179706497104
1,39552013861227
1,3150664892936
1,30077853579172
1,43824514704013
1,44864623301906
1,33472676772147
1,30975116753566
1,33025466684577
1,37486804753255
1,32748529846439
1,36944637565589
1,45517242903798
1,37003097369594
1,37805709651326
1,42121914150317
1,36470214466626
1,29914665600471
1,31840739588742
1,43369116156535
1,36496369458491
1,41541883810974
1,41474623347845
1,36359381209084
1,44428266496473
1,34823149355111
1,34839573162383
1,38107440755217
1,36898098674542
1,45653128739747
1,37254654406032
1,4056049743934
1,33996018642534
1,33829853655463
1,4018128931164
1,33434379995174
1,32670336211377
1,40045032617155
1,34117033118006
1,24936088152665
1,31098292739365
1,33242395452676
1,30951322452946
1,42610763014179
1,37400951964404
1,33361042149234
1,27634352228021
1,30868132939722
1,34134939699044
1,3470818524424
1,28355694897403
1,24715002798709
1,27156941989024
1,27895786250653
1,2694850194101
1,24598378177842
1,2368550099636
1,3145873065949
1,29307057304665
1,28765523082208
1,30692041297429
1,27102131307523
1,20125479031567
1,28333598894746
1,35968314470206
1,24923376305919
1,29243856260321
1,29625958190039
1,25033668840011
1,27897368741765
1,23536512941352
1,35989058128463
1,27558235524935
1,27364700931726
1,28444457467336
1,21924749889957
1,19751188848922
1,24272114597819
1,26005160028375
1,21709620107019
1,19088981459073
1,2323099867906
1,23892065452716
1,22374199640219
1,19167814076886
1,23725914889014
1,2194662557304
1,18495792764907
1,16990397586416
1,13970983549139
1,22500372942175
1,22052348224427
1,16976348038436
1,18336449879853
1,11168816007427
1,22497317576353
1,20456124923853
1,19652121547376
1,14959411730582
1,14954424188602
1,16049232485172
1,23342061470678
1,18228981823811
1,14230868514824
1,13578338747127
1,16004280857837
1,09268397349017
1,12093187832038
1,15713931934003
1,18083121843778
1,13877400017539
1,1262022617743
1,09890370537419
1,15318066397401
1,13700455614025
1,1155548537557
1,04801153607855
1,09302878136245
1,10374869787489
1,12671922846143
1,09109086172902
1,05983196761604
1,04006763694186
1,03889021559985
1,07229698636219
1,09220477247852
1,07274594393218
1,06113996674178
1,04931165068902
1,04681681593776
1,02079927130982
1,05301792841193
1,02763614816568
1,02318111078057
1,00441878114572
1,01693009721814
1,01352411017387
0,992424845875936
0,990061353342457
0,988940411478827
0,990669078824423
0,985180606030805
0,992088052250794
1,0008021958338
0,950693376346613
0,969514231230826
0,953645719415957
0,951511363970022
0,974007686999248
0,965647999831107
0,926004623626176
0,95040140456089
0,973230607486797
0,945609741167911
0,910170514209016
0,966222582888551
0,939985488245422
0,906867642152289
0,925102749702902
0,932147135356343
0,916909931572328
0,929009368870115
0,886676993806187
0,886675846092206
0,880314635187637
0,893472047006122
0,859025098986701
0,896915338110448
0,857402965591103
0,863864673120455
0,859384203849069
0,83933104065676
0,832573927882661
0,863821048301689
0,832797783941819
0,848906017700516
0,843764079675829
0,860220083510532
0,847589422720489
0,825725213992131
0,803633886475039
0,834090620998148
0,822369097586501
0,80403991235339
0,797561503394937
0,806055048793148
0,814591435099717
0,819511378567997
0,796418825421199
0,795718274381442
0,788691606020048
0,797398013631415
0,758745581944721
0,760372077599082
0,781418185259924
0,76384033132695
0,762493773035828
0,777423567922665
0,760656948148199
0,769747184564292
0,766628921829137
0,754914490065726
0,734934735885002
0,740535178021242
0,72975076476709
0,758964428744672
0,735511207876853
0,720166780862766
0,718554092753804
0,729926971342645
0,72168486826781
0,733216830074655
0,727962492873614
0,714173140074327
0,683643444615466
0,722829946463155
0,69277609221304
0,711184498301285
0,690885536981477
0,703418364524042
0,688588590053582
0,683399349617
0,690696601590724
0,67023531808717
0,661186109377223
0,66652203340844
0,660696064993307
0,654204084719087
0,65853415516424
0,67594800850143
0,649261967589919
0,664088393481866
0,658311717470834
0,640270448264894
0,636344481927485
0,645527796290062
0,639245871234872
0,648972845603041
0,639841953534306
0,642445799426955
0,63858334354946
0,628828514748419
0,613790728798518
0,628909771664303
0,619370501180147
0,607158985082091
0,602084641007844
0,621857058115171
0,60441304799175
0,604676028351846
0,579215132118973
0,596765796426178
0,58592294518015
0,589551866506961
0,592314831140038
0,596012517531194
0,581848694829234
0,575282464948744
0,579444001187871
0,574838194140033
0,553736226081248
0,566416164424861
0,559718177286163
0,572666622212059
0,535601961546534
0,548996921686166
0,544378795030418
0,551822080312465
0,53835303494215
0,551681133873711
0,542339990745675
0,54244244474753
0,53245567765777
0,542429004118538
0,530095919220365
0,541957254167099
0,52008570604639
0,528383198536789
0,514730614722619
0,515734864402748
0,515028192158593
0,525485773389382
0,512569206825251
0,522958557193553
0,509861065615607
0,517028761409449
0,497009083017758
0,496639993359865
0,490590859957194
0,495005064496809
0,501775020803741
0,49903009838991
0,496287728075031
0,487409684849621
0,489193530855751
0,499669304890723
0,483731389704542
0,492091729896021
0,480502423320664
0,479083949270122
0,47096849632804
0,483605173614651
0,471248190319959
0,477085456355802
0,474255566220739
0,472531401434493
0,466813493583346
0,476311454560958
0,46691779857572
0,47059730053383
0,462592120371161
0,470327811329566
0,462360548096421
0,459718220452559
0,459356788368636
0,464123546874402
0,454821354442184
0,46659242703099
0,459372056278704
0,474630389433378
0,472528554759783
0,473769241449607
0,468002008561122
0,467991859045658
0,460830307184106
0,46961625168136
0,465676574049823
0,465637339791551
0,469465566778607
0,478748234235752
0,465016044493374
0,482199710547659
0,474268047806655
0,490642059678452
0,478738605412347
0,484296628652233
0,484902384317856
0,501119627130919
0,476002600481501
0,494066158707952
0,49259686009325
0,497346889247066
0,490986477312538
0,497390028499501
0,490680523884506
0,494212897959557
0,503532241847932
0,514614250949768
0,501129103316421
0,509957189209073
0,503973607315316
0,524121642507771
0,512855763245546
0,52275801674509
0,526853217689463
0,527422010918198
0,515494986696039
0,534999142131025
0,518582901230108
0,532024862438837
0,531445869068054
0,531628042850917
0,523772344645026
0,54462048617433
0,53478699603299
0,562664046940465
0,544823591840359
0,553402471099359
0,540724709196696
0,566406534973314
0,564316687630212
0,567773184531597
0,557418300785072
0,567807263952057
0,572392161545489
0,593863212848478
0,588928096666824
0,576032070307786
0,577015236898812
0,586222813917644
0,583451219740407
0,601854166265023
0,590898263082207
0,596480753661339
0,607205718994047
0,606123257428935
0,601987216924056
0,597222112265005
0,596376238409059
0,602954941269767
0,597218896759631
0,602578251865958
0,590318926488893
0,60135549950683
0,595322321557544
0,598113240719655
0,597259481448983
0,603294841860983
0,583102721654286
0,612015870891873
0,596742827383077
0,599595072559319
0,591352024134026
0,602654260961753
0,581305673795115
0,593537950779384
0,592431015482829
0,590749510027706
0,592745571918238
0,612123985968526
0,583931406378023
0,608762570055306
0,592409675699625
0,603193833274227
0,576441178049755
0,599568874976307
0,586659976261329
0,594372992012695
0,594351832564006
0,593752019324369
0,600706599363652
0,601516706595551
0,589608676192541
0,603687492355471
0,592144620756539
0,602628149998112
0,58989688632675
0,600863034274892
0,594349760905781
0,60295720581275
0,589760798221112
0,608137205940152
0,584574182850697
0,593306707646853
0,58227058639815
0,590541847292599
0,581941666127126
0,597106088902575
0,58726972300858
0,594302737134548
0,579464566341449
0,588049108300736
0,591645286561342
0,589134075957278
0,567402019350483
0,585036413738705
0,573715875724159
0,58098675750844
0,572365203226099
0,574921375473234
0,560175544594634
0,56300922626632
0,563690871358294
0,558908996152464
0,539521884122144
0,542517598064655
0,538232067660205
0,548005187076137
0,530037178436367
0,537052641088249
0,533740955922237
0,527457005522551
0,512124205849721
0,524165568637748
0,512181109382675
0,509364012810702
0,517973458465602
0,501412431775982
0,499469834239045
0,505111790904855
0,495873355063831
0,503240853633103
0,487095110944153
0,484462987957356
0,479714845765688
0,483412043408195
0,471848061841613
0,477534763881952
0,465542847811838
0,466313436253716
0,456401681044525
0,467484895298166
0,450298305966225
0,464443618775378
0,455821559647517
0,454520561038178
0,444389341418412
0,4442311747231
0,43391984051195
0,440822278750499
0,435936221305809
0,433640490005618
0,43475832181574
0,442885992884226
0,431607088859942
0,44383148251688
0,425763973830706
0,428376149592854
0,418368788148095
0,427907684439333
0,421365376432709
0,434080267042256
0,407410410850365
0,41463136643949
0,409690028173473
0,415224865238367
0,408134894567849
0,417098408297612
0,397473596196328
0,410096616498368
0,404336118035214
0,404681181749992
0,399427285966746
0,403675681816517
0,395944285407565
0,398565206664936
0,394500329326964
0,40323684312101
0,387345238275174
0,394747690410997
0,392490783184803
0,392160448811977
0,387633662681331
0,386575832597872
0,376259111124369
0,394284543583741
0,383025765354442
0,3857211766358
0,37728629504785
0,391043650822318
0,378676280534608
0,380409081466676
0,372238249035928
0,379959562233277
0,376366160930184
0,378491716693791
0,368359703095661
0,378300001452702
0,3706330452159
0,374117508749911
0,363238802691589
0,371897323632087
0,364701252370562
0,365381460744331
0,359359884276874
0,362800840003699
0,364643667494877
0,367383970391067
0,360520820343709
0,370282883061587
0,352976335725016
0,358813865826372
0,352646296786728
0,361736497936875
0,352866244614614
0,360574728541609
0,351979971580758
0,350302634914346
0,350697188758767
0,353246592650823
0,345018705795269
0,3542283168297
0,350149630400458
0,350483450951913
0,3492989662374
0,352752843561183
0,34344002505045
0,34402947309764
0,342531401287954
0,352643515911219
0,343553569068028
0,341603297607504
0,343211586797836
0,344104614130648
0,340023555780345
0,341881202146351
0,338411470777652
0,349589164267351
0,337460028419004
0,340476493878304
0,34249796211165
0,337510154782586
0,333898207701655
0,342641204863217
0,335947662467998
0,343423096107384
0,332334638458723
0,338646012313234
0,331654301950237
0,337624645354148
0,326280358583027
0,338846085730059
0,332593862836941
0,32924348951198
0,329846490653985
0,334833547602687
0,320323305136661
0,336355134366337
0,329308890449529
0,329269545839577
0,322809319391794
0,330257821446564
0,321761931373334
0,33413432284463
0,323833324696313
0,33565786898975
0,324761724069134
0,323952360864926
0,324561854678098
0,327268820393057
0,317085669245288
0,325556889954312
0,317937299384557
0,325890876667036
0,322380786531519
0,325745234639526
0,319888652442724
0,324968100967356
0,320898021396754
0,325664618151059
0,31500431961935
0,324214237878605
0,31602435735644
0,319999012901834
0,311508680155577
0,319206482399003
0,312605009253821
0,316733879811617
0,30930334009639
0,312656743470218
0,304185292743923
0,316289694853302
0,308460310866475
0,314162391956588
0,308020481802958
0,309989636301353
0,306565605874278
0,312375123020353
0,3034456231484
0,310432582035916
0,310863790439117
0,310643632876149
0,300867165768616
0,306524295017314
0,3021357798846
0,308736671794447
0,301854215970584
0,306224895141986
0,301787436867699
0,30918407282189
0,297257982062583
0,302684365344244
0,301311050556878
0,303409409798855
0,294385131785377
0,298723128028682
0,292108948540057
0,304693388005284
0,295592215149264
0,294258897421865
0,29052379079947
0,296014116725669
0,289830629386782
0,294761807257991
0,294195219389905
0,292296714634013
0,284643101066485
0,29302539994605
0,285299300972479
0,291222473220909
0,288538194185618
0,287678588626239
0,282219856784538
0,285569264171037
0,278841459918159
0,289304422847978
0,278518505563057
0,284347359693466
0,277478130083011
0,283071359513586
0,274725640927579
0,277985221292581
0,274465509660278
0,279050624813706
0,279443325121451
0,280459901398173
0,274670080964006
0,276318084486534
0,269390056992831
0,271783186089002
0,267457571201868
0,274946662099787
0,273671874947762
0,270923441442354
0,259990252682638
0,265616467050427
0,265456781712206
0,265615945280977
0,259592931694863
0,268084937894669
0,261702935215351
0,264441995080224
0,255089277088815
0,265124530317665
0,255461385641344
0,26005684517547
0,259393129299571
0,260481375522433
0,250287831112554
0,260497072314473
0,25536227657646
0,257121200158972
0,250777047248027
0,254020478295261
0,250089905839222
0,25405557729751
0,249031850584639
0,253596830878063
0,249216101032555
0,25204286292243
0,250661715326889
0,252527303208443
0,246518042414264
0,250152760881683
0,242857840232318
0,250169414237375
0,241432601092595
0,247605020645516
0,240578143132157
0,245698164189262
0,242923159049181
0,241713013397289
0,241144076089925
0,242799229918817
0,238497146838914
0,241873782917996
0,236639771134038
0,243651623201551
0,235911170703538
0,241537184327455
0,236759591522061
0,241020102763719
0,23321000002605
0,237985909061497
0,236647551605203
0,237705806689425
0,232114470022662
0,236297752705211
0,229982753537625
0,234033510169769
0,228319330598482
0,231218013981171
0,227260347089187
0,230355670640185
0,226368357468622
0,231079146829987
0,229383629700892
0,228780648699896
0,223646504084637
0,231032840212952
0,227121465810089
0,229202432972917
0,224615027033428
0,229298668117322
0,224514603086853
0,231078186000486
0,226663233563213
0,226676494334665
0,224562806851354
0,22825971045214
0,220906112557915
0,223682045647161
0,21834310253048
0,225659277115181
0,223249247164137
0,228094269624047
0,224554240854256
0,224464619522452
0,220030405631859
0,226493087869599
0,221903619375924
0,222990482129129
0,222785260646794
0,219806840334141
0,219693260755097
0,223560865582846
0,220695800947954
0,225128975900013
0,220622960054547
0,222136118057415
0,216122039057211
0,219514202409128
0,215288105748918
0,221553555726595
0,219871466141488
0,2216850125574
0,212768361688195
0,216326469413616
0,211609154122523
0,216503086732041
0,209598873984374
0,215456442662419
0,211600776178129
0,217103450665212
0,21231015729533
0,215628785089149
0,213508722701505
0,214449671985983
0,212111026250208
0,216002599293939
0,211139209834341
0,21555852599803
0,209045050258606
0,212369123494723
0,209501170835057
0,213776364352016
0,211133933651778
0,213530371113562
0,210300711076783
0,20885409790082
0,204619731399011
0,20890026848019
0,203999017536619
0,209457158971744
0,206015611113944
0,206396010607048
0,206098474372077
0,208092297525004
0,204704046499461
0,206532511282454
0,2031939928876
0,212656241649085
0,204737608109048
0,204509080247614
0,202005761168062
0,206968503208528
0,205149897988375
0,203389523049484
0,200402987575642
0,208209317322167
0,203675849280087
0,20521961997977
0,203300873222433
0,204185143487346
0,200917945928414
0,205640323834042
0,201469766840356
0,202999956123939
0,198793391807684
0,201352908248889
0,199929226411534
0,201339693522945
0,196677947541569
0,199724826419965
0,198019835266764
0,198380044945958
0,193509726174556
0,199177239640537
0,194464392858133
0,19975286835101
0,195311089426078
0,198237704111664
0,193310889100323
0,196151612078758
0,192141415026167
0,195152928932975
0,18961007943971
0,193756666259995
0,190640070621651
0,194611394644623
0,190507153708459
0,191257847173647
0,188437976254032
0,190813487733191
0,186721944755084
0,193644704685423
0,187935062248174
0,190687603250505
0,187067499639361
0,189524541790796
0,182584671797537
0,188428280567288
0,18571745751782
0,186834762135287
0,187401045249188
0,188036593082272
0,183052905666508
0,185097016889794
0,180632687848553
0,185412457369735
0,180447041893503
0,180448598532183
0,178875717334754
0,183231007031234
0,178596406692061
0,184355057843946
0,182175899177308
0,180420638916865
0,175396008021622
0,178249637524572
0,17683447045779
0,18119778962576
0,177414027405478
0,181293944373674
0,179372412960608
0,180337049712898
0,175326975604214
0,178078715384995
0,174416773081551
0,176005757289953
0,171043921961176
0,174091388984774
0,169572075395874
0,174000494261023
0,171550617515597
0,172185742380409
0,170265937896179
0,174973053845625
0,171407238948075
0,171310059250998
0,171363711689412
0,171509256054064
0,165725244215495
0,171629187495256
0,169426342941355
0,170053818289329
0,169545389262097
0,170149580824539
0,162701950489178
0,168446530694436
0,166491356798837
0,16766586024194
0,164133510801964
0,166887807842374
0,164895498107953
0,167042070536722
0,162808329499415
0,16793005962205
0,161438633031097
0,16279587145701
0,161091964511383
0,162068229774128
0,160758593524046
0,165502037913058
0,159420254658823
0,162024827359003
0,157951083831616
0,159985755788782
0,156782557006583
0,158486268254973
0,157775374029145
0,159914484233717
0,158978374253731
0,161625845436177
0,156829858039578
0,157841464541698
0,156291803915345
0,158955995274229
0,154390849756443
0,156082824819758
0,155858703126073
0,159863472276129
0,15858047055068
0,156302155326677
0,152885300977363
0,159456553191204
0,15655796723886
0,156941299100267
0,156365281871238
0,160680848608063
0,156013654335506
0,155032945396844
0,151313614571893
0,155724221645636
0,156668392400042
0,159597720962554
0,154015752545457
0,157848585045556
0,155404327334485
0,160356801671789
0,154778483407961
0,159272188448418
0,154882614378068
0,160526177378042
0,156597969508016
0,157196510600578
0,15563851399139
0,161307798939094
0,15819114720616
0,158013840564999
0,152663804220029
0,159040623929669
0,152202637645042
0,158963988137162
0,156210673550981
0,153184331273864
0,152754483155862
0,157445558832433
0,151705818686445
0,162720969476572
0,156537126479775
0,16060989801487
0,152785536947019
0,151776307958713
0,15011020704211
0,150616397099026
0,142288066561579
0,149083499123319
0,149414802708764
0,154584768902427
0,148714328303732
0,157087965914175
0,149165706274028
0,149890987774963
0,151552850456962
0,152084596351205
0,150564783102972
0,153164186360131
0,154117585897298
0,146944066468499
0,14686429282739
0,145743359927169
0,151185209639286
0,146355009078316
0,15576723454557
0,14673469065629
0,155558729441232
0,137763282181022
0,155037635088481
0,138383861058509
0,164058316023188
0,136720427468188
0,1600492079455
0,126375213388076
0,168371364543023
0,13112060436176
0,167159257066595
0,123128590118146
0,165332412979813
0,127084155249993
0,162301332640525
0,124958118150094
0,156773468182027
0,131737389508385
0,152593318752393
0,137575700306077
0,143159216719298
0,149050011020832
0,140197188239221
0,143980106666964
0,136353284959015
0,148323343616662
0,136142355337171
0,142954507253168
0,136197042069649
0,142188810359511
0,143376218123789
0,139347647701845
0,143072205974156
0,1370698850115
0,138586756595734
0,137931990554504
0,139067813179482
0,139425998100482
0,140457236539646
0,141981893370911
0,137844549346046
0,136677693738486
0,139460976799741
0,138901217559297
0,138293994351799
0,138743308770275
0,135658948831584
0,136759809884255
0,138242360422304
0,1373349586704
0,134516985438862
0,137690466767072
0,139699479720421
0,137853730230426
0,136615577853817
0,134711677058887
0,13715404561284
0,138177094011749
0,135362080888105
0,137045549649502
0,137913119895379
0,137867197778392
0,13567881909574
0,136885663173703
0,137624253267217
0,136862919284304
0,136087468602517
0,134997711477329
0,139253294604663
0,137931279874261
0,135547511303758
0,135832993903266
0,136941516271116
0,137641619614013
0,137834719085582
0,135661178909954
0,134711647344887
0,137737084073985
0,133292235934614
0,136966138045523
0,135597217517917
0,136769973302244
0,136700967425636
0,139267966262178
0,137068143366195
0,137380208125007
0,137558995761522
0,135595371299588
0,133805254213745
0,134538426110133
0,13586347373663
0,137921633956483
0,136644427110398
0,135479482595361
0,131155574384004
0,139772886626689
0,138911857152436
0,136398681612664
0,135755908619262
0,136037423349367
0,135770441540027
0,134608276273355
0,134577692835419
0,135599147264508
0,136666854837843
0,138445693200287
0,134219968172226
0,136241091239611
0,138771437447718
0,138447604676611
0,132987603156518
0,136400122266753
0,134543024614088
0,136481859974966
0,134959899506618
0,139171016238721
0,136628167539984
0,13677798445467
0,139215634298601
0,137986772506573
0,138431326176238
0,138273245948613
0,137861347574302
0,138010633320676
0,136656247318644
0,139923291229773
0,137699589447273
0,135753173799012
0,135037317778673
0,136326540704479
0,136865758410507
0,139648608227577
0,134973095115324
0,138830349474896
0,138312166300471
0,139667815187375
0,138953868174401
0,138245419200736
0,139920125559254
0,138516289772856
0,138347313735112
0,138580961367557
0,139302981605735
0,138867702602735
0,139418653323661
0,139942238752569
0,139119883576716
0,140789044822158
0,139470240371779
0,140647323914594
0,139349736425477
0,140034301033961
0,139084897468954
0,139086961951464
0,139908698079266
0,141733872273809
0,142324796091248
0,137630839430337
0,138030893638804
0,141754696685563
0,137659108736202
0,139018482782848
0,138884663975435
0,142497364942024
0,140973423789602
0,142028559428273
0,140031016349593
0,139783655938729
0,141718474471779
0,14136078668659
0,142554556349397
0,142324922026657
0,142319089751317
0,139339271361356
0,141745058527008
0,141654540041338
0,140561414240351
0,142199999267947
0,14211538930448
0,142728851889401
0,141394211677965
0,14361931303458
0,142386120135797
0,141913120116961
0,144794760890243
0,145160691013311
0,142240751133508
0,143431947706017
0,144977874880123
0,143329305434128
0,144292701186412
0,144098256908857
0,142563602509937
0,145349933943077
0,142836365447013
0,142210121760448
0,144115625182893
0,144025478509491
0,145123781611805
0,144672503983418
0,142907853173727
0,143482446102708
0,141404864701603
0,142930408396281
0,142826467293923
0,143506834931315
0,142382977527205
0,142619838596189
0,141213002268735
0,142581773941136
0,140803961237684
0,139787918146381
0,141343333303239
0,143136014140654
0,138990843560283
0,140533558051388
0,141016891528388
0,139559036682441
0,141195432231418
0,142086675233575
0,141771761333945
0,143890932624501
0,140561020732608
0,141535910382982
0,140227990593401
0,14000578875322
0,138809953043873
0,138107258544978
0,137670042360456
0,139271519036212
0,140272164199454
0,140683453691212
0,139144440170987
0,13713967518567
0,138711135448876
0,13787401208212
0,136843812715403
0,138978027997929
0,138935740903409
0,137279182202131
0,135820281054535
0,137675881579453
0,138382467612596
0,139807946313561
0,134160200567138
0,137500794302555
0,139866811017159
0,137709366491119
0,136106775430031
0,137124034919085
0,137132569859178
0,137867054824051
0,136343938535254
0,135145666320347
0,134249428014376
0,135783586549754
0,13526662348472
0,134583475292201
0,136040758769551
0,133893304827063
0,133736809952385
0,137391785943959
0,134709076751162
0,134821757470963
0,136815469768991
0,13399890313773
0,135027371056904
0,134639343332778
0,134736213007899
0,134222876036655
0,134047465189989
0,133336294331422
0,135250577660551
0,135292203489176
0,129924995337995
0,135475685920261
0,134914470844326
0,132786988091774
0,132070497190261
0,132197988848565
0,133507502771402
0,131765940743773
0,131666305192012
0,132117402245228
0,133333702521432
0,133278771370977
0,134510240680008
0,131709189857589
0,13252491732393
0,131861133197851
0,134744631478599
0,132429939000507
0,130303686595122
0,13177864610247
0,132545030615095
0,132494135948931
0,130399624061746
0,128650998031996
0,129572498368266
0,129461330614021
0,132638441836848
0,128939142822154
0,129048347413117
0,129600124158191
0,132193945581218
0,129501177737232
0,127758425038323
0,128232330099169
0,131342808401173
0,130054385742679
0,130308302224388
0,130846058750712
0,124870817720948
0,127693908162676
0,125658375545432
0,130546191792145
0,126279560972417
0,127264858085119
0,126880599598322
0,127548044692839
0,127218406022511
0,129523753519367
0,125145267260384
0,126447217813018
0,127898194621951
0,127410489964978
0,125244908501086
0,124180494398332
0,125567420517958
0,122444396256844
0,122787704239216
0,125287611109214
0,123465858457521
0,123204831160968
0,122595621737804
0,123556497636991
0,11920310743019
0,126074071924281
0,122060173713281
0,122667982987709
0,12006522826097
0,11729667461654
0,120914650731344
0,117780733562048
0,118612240610341
0,11601641034231
0,117913364535244
0,119641659162498
0,118790046591757
0,118073847980639
0,118771847147295
0,114506858738582
0,116584161555549
0,115915346080152
0,113078940051217
0,115238820913517
0,116800278594515
0,115937739136229
0,115499806201441
0,113178640940893
0,115847728013383
0,114720896474422
0,115198353825577
0,113565461861898
0,121663794172153
0,110614224243762
0,113587924186395
0,110585528924676
0,11732886377551
0,111613692623046
0,114334926137101
0,111998612514017
0,113043936977137
0,111142986234706
0,114012499162639
0,109107853245025
0,111424343448178
0,108850029423756
0,110520568780561
0,109945862514331
0,112526545243635
0,108600854076338
0,108686609621813
0,109540189695697
0,112245363761408
0,112636918123321
0,11165062701993
0,109191777517704
0,110202568785716
0,10862737944452
0,112239486761065
0,110200922127265
0,105484598890357
0,107895166415672
0,107684447149723
0,10829676531577
0,105874894997967
0,105966715585929
0,106481299335216
0,104024761982484
0,104516468088586
0,108906622320801
0,106821618446032
0,105570650819805
0,106858633242204
0,108143369008351
0,105326898518672
0,104595361703242
0,105641708021538
0,103400243111187
0,103033940632841
0,104067694316531
0,0994054892725261
0,103873085619627
0,102339775335686
0,107126396831985
0,100538725676457
0,115063828388174
0,0979956771177657
0,103070070659874
0,100198902432709
0,0998457329695101
0,102536877561078
0,102166425028769
0,103235387027759
0,102594608320144
0,100606985040081
0,103644556101768
0,102114917582129
0,101332751477707
0,10272356735384
0,099596860041239
0,100793972656391
0,101612659850317
0,100012999748405
0,101678927502404
0,0999495880897919
0,0995508798223964
0,10728472709265
0,102687751160062
0,0949519671276769
0,10347592627984
0,0958085403118814
0,104587904569209
0,104299647378836
0,0917829416418479
0,103102085685255
0,0944447620307169
0,101688870777965
0,0952401904205892
0,100378218643115
0,0950867986199909
0,105812681301868
0,0940495843058824
0,101503999123422
0,0989919922026902
0,100708448003547
0,0994145749210165
0,0998588927976306
0,0973149055566698
0,100355288218575
0,094947323231109
0,0973608779639663
0,0978115373954954
0,0957038463962813
0,096388547428119
0,0990587491380108
0,0940142178801638
0,102677117310257
0,0902912748008606
0,0964927176921073
0,0953179892833035
0,101314281448775
0,0935515570112175
0,107679064021262
0,093603262676073
0,0957985163549808
0,0974639709125297
0,0959355128627024
0,0966887355868305
0,0943248875190887
0,094309244029163
0,0958362748517272
0,0965104834404687
0,0947363285672132
0,0958293328786159
0,0915753485689455
0,0950046480229489
0,0984300778309315
0,0960800767998083
0,0937752981157409
0,0946086417992268
0,0940206533256076
0,095768483591241
0,0950228911542645
0,0996307240284049
0,106069519197479
0,0949151941082775
0,0977323424301395
0,0935091757975638
0,096063284827927
0,0890592067451373
0,0946847425831103
0,0896394125222402
0,0992570208226444
0,092643171525645
0,0956630429332989
0,0944825847803961
0,0972327448978935
0,0935704027781006
0,0963398263715959
0,091292670994115
0,0966883988057154
0,093019038648117
0,095148295212089
0,0932295205050929
0,0921662128353328
0,0941174391191297
0,0936370632667816
0,0965785296972676
0,0893392032843263
0,0963780379914229
0,0928828740334376
0,119627052701574
0,0801901003283019
0,10026453191743
0,0930841290717956
0,0948913549632877
0,0927636081527997
0,090682406646905
0,0972359285469516
0,0971717583948834
0,0933184835369899
0,0947937930331128
0,0925334013916581
0,0961703974022389
0,0949840767698838
0,0965830678450957
0,101402322449853
0,0982397006464786
0,0896476974695681
0,0993101915437376
0,0904548807595201
0,109053355414017
0,088382521145966
0,0925561469747944
0,102075650319978
0,0932097590283407
0,0975389394212469
0,0941193531629528
0,0970850592696886
0,0948139014251813
0,0990137378371042
0,0921236159303896
0,0992772775763425
0,0935446543177625
0,095432015612158
0,0983949876939562
0,0976444814802956
0,102614643245644
0,0953818623488982
0,0963492491121778
0,104848149437965
0,0914263813034665
0,0979180753885619
0,0972907764828265
0,0990290159628649
0,0964546602982885
0,104738218251721
0,0964457584955923
0,101354308269509
0,104283002273616
0,0958333635585599
0,0988127246207073
0,101426853715763
0,100523913488132
0,106448705955074
0,0921037355867389
0,126436545723
0,0897429215381845
0,10438884275158
0,0992055671342115
0,0972947911567522
0,101326402303334
0,0999912703716029
0,103803761302895
0,100763395772768
0,112559468392224
0,0928274291763439
0,110979127528235
0,0971132259778267
0,121264332008482
0,0951003311123518
0,109616914474038
0,104197741404576
0,108104562803552
0,104194228666721
0,11115954673096
0,0991994984684754
0,116996424676514
0,12305507763511
0,105870296491846
0,111757742293691
0,0994055465481027
0,11489431074798
0,119199092565335
0,0984051529075007
0,117234383532386
0,106027147490786
0,115081828639169
0,105398120268115
0,12090723861467
0,116639854517357
0,108450577771549
0,113044717300236
0,111556609816733
0,112007421603074
0,132605958953796
0,107746082417524
0,121767696677369
0,114708020349815
0,124656640947862
0,110926824733506
0,152077381135845
0,0978127095723115
0,143873007247382
0,118630986653901
0,131422689572626
0,121703492613485
0,126506949625394
0,122785415275231
0,137361316062937
0,131161635156548
0,124997594927422
0,129497500376955
0,148779279954258
0,133170899248377
0,129416442050145
0,144133828784872
0,133458512632201
0,149275591567108
0,164046879371366
0,155272241932931
0,14130824892208
0,144115336191874
0,147988109092746
0,164570238798185
0,139096011868523
0,15771014199142
0,148850618883269
0,156130859456003
0,152171995924534
0,157429271765093
0,167770040279039
0,158130827363422
0,164405787300565
0,160621597527155
0,168916429605667
0,178874569917129
0,177434333577255
0,171644119804469
0,167139144659605
0,200349878198063
0,162645823011068
0,17930919354808
0,174837466784148
0,184695812691396
0,18914870116137
0,178942032268896
0,188319406079805
0,186872940036601
0,20807318140934
0,190679569425672
0,199089267226804
0,201785104921096
0,203869678889555
0,222016851795001
0,206228396145039
0,298883760148247
0,194377471301611
0,244656309197029
0,221737817191086
0,258293257619158
0,250647327160849
0,252717516869385
0,263415258785939
0,275551577274017
0,27534323292081
0,289981681099666
0,296543362635674
0,308542734043674
0,318409975505855
0,319989578343239
0,326280363484334
0,359717119066032
0,306597297337329
0,368330551217459
0,363056177629253
0,373850639518094
0,387503561390231
0,401188797067111
0,389074621274228
0,412794296094427
0,41146482714168
0,428587455651026
0,456267407788909
0,441029914438687
0,450476627970975
0,451825625593476
0,488750488906765
0,474333143760641
0,540770421268961
0,506458363297162
0,522020913775833
0,524751383015072
0,530589035137506
0,557256142273898
0,543903177823001
0,595578170737022
0,572958409061332
0,579844148728659
0,584978036055122
0,606802337881984
0,596618577210461
0,618268983780575
0,622159126507945
0,626353318537896
0,669641796820368
0,68528115672748
0,706287504255545
0,653121937122893
0,643501291809794
0,663563280451632
0,655202408948499
0,695967361446681
0,645817112737566
0,682646683443941
0,676901573826063
0,681289907282522
0,673552277051905
0,681297151328487
0,673877064434993
0,68677548560161
0,684782312367363
0,671404418626467
0,680701043988606
0,672026389770717
0,704213713269795
0,728484134255192
0,668237291460554
0,673351073901769
0,677025716273899
0,688885783427459
0,679767835986906
0,682618169789908
0,666386456549137
0,709346114265022
0,657338075778032
0,65853344586272
0,640343224135303
0,680868259841987
0,638283947587741
0,623561462415785
0,618540270949595
0,612344216989272
0,598565851740208
0,595044923092293
0,593404415014112
0,621275827641952
0,573542367755435
0,567186561731784
0,554877356817743
0,556230775465519
0,552897743882804
0,551690001565407
0,534882929637009
0,553558950472565
0,531706580569771
0,544445283794099
0,524700305201779
0,531747890058863
0,518332497254358
0,530686070654211
0,51081018883868
0,518079307540604
0,506976324890178
0,508802417527633
0,505141331589993
0,51215204748715
0,50530505293012
0,510212576730335
0,509072617710033
0,516597374352376
0,506611572297511
0,51022777334298
0,502443121900129
0,507890892998857
0,507011384255613
0,505473401226982
0,496879167514139
0,501402067953267
0,503128080809091
0,511693402226251
0,504943910683684
0,505125754454909
0,505291504693362
0,494865379407111
0,503252359266048
0,506142246630361
0,497306798092551
0,495663471110121
0,527634599501604
0,50410593575696
0,49200255185325
0,498768943125543
0,485211473203053
0,496371440683339
0,486854878471571
0,530732692225246
0,495591115091174
0,486939399827375
0,486382361632744
0,489055290230835
0,484668588319599
0,49261121818619
0,474600234548986
0,492182234123867
0,468541529477925
0,500613061088783
0,521580530278668
0,484609254294657
0,49147377149474
0,484772775890612
0,478253599400456
0,486145100731606
0,499338873059503
0,476520485757975
0,479369044362516
0,481219766474201
0,501575396186808
0,489832263967797
0,477165801070481
0,482460123464527
0,467360951607603
0,479432888838385
0,487894577807919
0,474289543041499
0,470178223421041
0,490288791646216
0,468618064676261
0,509112861162971
0,508070930935948
0,467515644339922
0,445000928898693
0,450166977487404
0,452702269916848
0,447134063595846
0,481778451089813
0,437641236677426
0,440345744036304
0,433932525908025
0,41960605542724
0,433203487704679
0,428222449553108
0,435502327144004
0,403920820361322
0,438963444985419
0,402812536125283
0,424776980177968
0,411035660590982
0,428114990514981
0,422522215783212
0,394764637396692
0,390854539169597
0,408458829626367
0,411048501436734
0,382840773059184
0,397028223226302
0,392322529207453
0,380480671556202
0,395013794008731
0,366109363711764
0,376948937813877
0,370289700788749
0,371114526521439
0,391514943747591
0,381129919967869
0,360133289751007
0,348509786760892
0,343167945763329
0,350015888987711
0,341631476423074
0,339440117656724
0,339295117779898
0,351726275039205
0,347074346851074
0,332997617458759
0,354934355396185
0,332033802977556
0,340448264166561
0,343150069451636
0,339147177850804
0,341682198150459
0,345442774633343
0,347989629054384
0,35538955391788
0,343974754265518
0,364144308037234
0,345686614779258
0,357748341642339
0,355260385235331
0,370142151203993
0,362950808015651
0,373563973671255
0,37883673257948
0,385982820057534
0,389851492274502
0,4024100701447
0,398502139813479
0,42613025563304
0,403247324768804
0,437234716104981
0,435184260632457
0,441431160505025
0,448678141716975
0,455444998609833
0,464669461433088
0,46657216602402
0,475936554860791
0,48396472449378
0,486347983332338
0,501585590859235
0,486319446644248
0,505050653960347
0,509971820655774
0,517405246131933
0,518211288929893
0,532781670703542
0,530478171606083
0,561805194999134
0,560542629816265
0,534177473061936
0,554063247895157
0,541961755164943
0,548524665525214
0,554076017397777
0,545325154195845
0,56009612624584
0,562129810612857
0,567342475870321
0,558986017824993
0,563260257298811
0,568650157357777
0,573025455774028
0,573803243821232
0,575827160785301
0,584060763952874
0,58640733980646
0,58591097108702
0,59470508398868
0,587957109369546
0,619072553694675
0,605960529955587
0,598089066265216
0,6068889282694
0,605791067357049
0,616887662125014
0,606484076486544
0,615926704611708
0,630372425321544
0,62663383370243
0,635432027585332
0,628648214866905
0,640413584115271
0,640196748872488
0,658798673428292
0,649908053827482
0,660564917795285
0,667835596803677
0,643132309241165
0,686504210527598
0,665981294106185
0,686161247298623
0,67520388551424
0,683936238037234
0,671345492116541
0,679310180805505
0,683215260765692
0,687024162597433
0,695112237092173
0,697311412040184
0,69020227018705
0,695423826974632
0,697456154128323
0,684799245207266
0,693264489581234
0,685327870404734
0,69308639725407
0,695721197739698
0,690371135189587
0,687809042362245
0,691221338760111
0,707300490747045
0,694943658637379
0,691568860779731
0,685899361287641
0,718271789359653
0,702576917256221
0,686665416655612
0,690582042242078
0,697570537063017
0,688839051071246
0,702998743876307
0,701848161531939
0,726978865243351
0,708355897674095
0,702569866824395
0,704363134418805
0,717015115309999
0,713275264088998
0,722277795865838
0,7223734827622
0,728259825959282
0,719909016651113
0,734170371860243
0,730889254145126
0,725484692754641
0,731681624170444
0,735561204600826
0,736034799064682
0,725608217424368
0,722479518592587
0,728661160188751
0,724338061959035
0,736088005804931
0,726087795458251
0,719674344992905
0,713570048985788
0,711284696878434
0,70240413447125
0,71235633720075
0,701465990857236
0,701067022642434
0,696592304971106
0,677786928510591
0,685907794234945
0,674341087203326
0,67819974897281
0,673488339865094
0,671582239481582
0,668375071017769
0,66350431796569
0,659915086071436
0,658909037158172
0,651391031944881
0,652533342714269
0,654841216287344
0,651750151306073
0,64666421898784
0,646403476722345
0,645922383890781
0,648020628361132
0,653961653884017
0,654442698682194
0,650023199258125
0,65188256843498
0,648708617409721
0,647613414871981
0,637491746424282
0,649980622431787
0,645305147783888
0,6540763464478
0,646674455297083
0,641579531442827
0,640803351632608
0,642457436272781
0,645523878873931
0,6466930917755
0,646322609584471
0,650359221115737
0,647654243881136
0,639084901159026
0,638353461546617
0,646991950400321
0,640407740317329
0,636821189818882
0,640517337373062
0,638110790429684
0,64334900282082
0,64334602164337
0,645642307127854
0,643111674355617
0,643513664986753
0,640969565445361
0,648346578881247
0,647136379733935
0,642964215343287
0,643335528761955
0,641984583159647
0,638279215607485
0,643107680419747
0,642890607269962
0,637979613316397
0,633389325507251
0,633765942450934
0,633558863157334
0,629887973430497
0,620698721620843
0,618370486390956
0,617224771199477
0,612216510819739
0,607629368739025
0,602662897082354
0,601571028262949
0,594772950237384
0,592021740943081
0,59021717237486
0,581404669495235
0,581938094010287
0,575939812847584
0,574365631419419
0,571321247027217
0,569742098130905
0,571096326021024
0,571615249433335
0,567508225133472
0,566011273022861
0,564934798391345
0,564516878804263
0,561759291222531
0,561661004264506
0,560019018850904
0,561339814388084
0,562915583111781
0,560811229573391
0,563930140031238
0,564405771407277
0,563673393785005
0,570892508193111
0,57238307821923
0,575199065350907
0,576517252504812
0,575441608785303
0,582027439964311
0,579560103948383
0,584971227455667
0,59246485754348
0,589045319822559
0,590227945664069
0,596821868751806
0,593077801185682
0,594094304563943
0,599171865131852
0,594032573707503
0,595632596472151
0,597244822163753
0,594933560004072
0,597273440906381
0,5947555603514
0,595942362888226
0,594991958284113
0,588253930614107
0,588708487939124
0,59125038104677
0,582998829360405
0,584770580022056
0,586172093836651
0,58459484766918
0,58053783205871
0,578029706122466
0,578924147321227
0,576472742164726
0,572559662783421
0,571850569285263
0,573875505580133
0,5744359675507
0,570722058661803
0,569980400264785
0,568031062743793
0,56344723770853
0,559451342369316
0,557919012448109
0,558134728701248
0,563017743527057
0,556804452566308
0,553891106070796
0,555205368956717
0,552980655974102
0,550136709105718
0,546948268569386
0,548875111416137
0,545276228486807
0,544505324932313
0,540017240803318
0,53393642083646
0,535021977598307
0,528575488506327
0,528179826001539
0,525377191052456
0,521290897180465
0,520902901872801
0,515285217645761
0,508150422910564
0,507597765306746
0,501303505410711
0,499769822420687
0,496534523891499
0,49327824005491
0,486277220277533
0,48900579873022
0,489612966647825
0,487619895161582
0,482386454189803
0,482905397068368
0,477255183894922
0,481961518495794
0,481439702555338
0,475027954512952
0,472027930337976
0,467859145364363
0,466334722745587
0,459883433228711
0,453276257532973
0,450953691081328
0,440746205651011
0,4360730187212
0,428305998270105
0,425629959429238
0,425997144921974
0,424113949906259
0,421469954810719
0,42196745918852
0,424552609094817
0,428687312687201
0,431663810465421
0,437856208244755
0,44650013478229
0,454339012534164
0,465760380079313
0,48200943720974
0,49530329214991
0,50580105641755
0,524918170360168
0,544185855204812
0,564203557962978
0,582471238495468
0,597931264742064
0,613384685038449
0,62892435211362
0,651807967995591
0,667355257764452
0,684054810472253
0,701075443053263
0,721047233081453
0,736079613999312
0,748594812748041
0,762781135684346
0,777047466218177
0,795878131336935
0,803633326631009
0,815836397540467
0,823078023926069
0,840537874119108
0,856879772993555
0,851984619393647
0,868532402118041
0,877694809968002
0,877715688441821
0,880574046746559
0,873940377619954
0,877156802432394
0,879602570869554
0,88814584690868
0,887694989431797
0,890571519159812
0,897248015638047
0,901959233362858
0,891619050298463
0,896574914922965
0,903965005749901
0,902476922656497
0,900982293581513
0,910023456318832
0,910701558524821
0,911412740596955
0,921072557645653
0,930821628820876
0,9306704565336
0,942126550318321
0,94838957745733
0,955030963027378
0,960122477596116
0,96445048667577
0,985155405401447
0,991726990576438
1,00805314365617
1,01158576280021
1,0387955466278
1,06526692664086
1,06171876901571
1,07244658310133
1,08116656239444
1,09378126854634
1,11135943918792
1,10689814499626
1,11770773209364
1,11236971307926
1,11620518980308
1,11385240695997
1,12143304378954
1,11925257159676
1,1083860096205
1,13116767695395
1,09138376948965
1,08751246921838
1,09715478913202
1,10156963019131
1,10154355787539
1,12214618329382
1,12031437141954
1,12962415990118
1,13248540362833
1,15289856584343
1,18056973523955
1,200021276934
1,19838720191967
1,21088894428714
1,23590117199337
1,24555809448408
1,25224357911852
1,29704369226637
1,3093819610723
1,31548783979297
1,32958280852092
1,35331606127102
1,36669839423004
1,38169554182551
1,38874397678557
1,43550354514568
1,44586173675944
1,45909716379704
1,5267595504113
1,51319987045476
1,53649943878883
1,56036384446318
1,55618894403098
1,59523536609219
1,58763946811898
1,6644129941348
1,64898777700408
1,66634649177297
1,69200347840497
1,76591787120978
1,72456225976614
1,71910478469001
1,76473484988929
1,79873456231731
1,75962240742926
1,79426925655487
1,73319251164056
1,77285569473241
1,84981040613242
1,89538138058516
1,74430507652244
1,81294105859863
1,76021096402208
1,77880516825642
1,77001010752546
1,84901258764886
1,74315142403557
1,80696609297355
1,79338299204067
1,79389908732262
1,75965541186915
1,8565628144775
1,79126441987725
1,81732594120962
1,87388825251317
2,09890983747512
1,87238687686106
1,98495499156346
1,90982525956412
1,96837691490418
2,01800885064423
2,13337570084399
1,95629469541313
2,09571896540843
2,18458781707105
2,21474341214097
2,06507181013702
2,02742333014662
2,01625949715279
2,34177748853474
2,0100754730251
2,26840372033464
1,94722726969244
2,22390829159704
2,37556933269056
2,271266007392
2,09728334920871
2,02450514430115
2,01665409521915
2,26260902703604
2,02906624105051
2,37895463958557
2,16129348595223
2,8483705537215
2,09841284003699
2,51289850024257
2,04216859679435
2,18992278331116
2,14270659145303
2,30704710916101
2,0035298596188
2,15460450040517
2,04897696909626
2,39899151835953
2,01089664736577
2,10921363819602
1,89841412343253
2,1377646570609
1,86786506942842
1,95832243604014
1,82715667408144
1,89426944847015
1,72948564236774
1,76068822989902
1,66059609504069
1,65153233605173
1,69300272823037
1,70555229613951
1,57478220370205
1,67442345840844
1,55211454466597
1,76800029965911
1,61024399962648
1,60963506386389
1,54638334608889
1,54056278375065
1,54166489792764
1,61550904653347
1,52715672032502
1,60666490146324
1,49542879955527
1,54925754736161
1,49114294102209
1,50933554025228
1,44487896098804
1,48625024615436
1,39848770624978
1,43582586001309
1,36026588867175
1,35140360350034
1,33881605949761
1,2907985668701
1,2190568253278
1,21753775550828
1,14146810185959
1,13571681268617
1,06615860411594
1,05807873452129
1,0067575677637
0,981510229351461
0,947881723885291
0,928060183876985
0,877003828794894
0,857614373841443
0,841981906812266
0,814991168373151
0,791584733351328
0,780731104960224
0,76543292825319
0,744816085685594
0,732580053986232
0,733338076860158
0,718227436490227
0,721554348926369
0,701933708314356
0,705164219119968
0,697008041000615
0,688176291010868
0,685741296900466
0,697327748887174
0,697109244820568
0,708654489696847
0,686148136911207
0,699509683038523
0,692757791335709
0,685302131639519
0,681585565825439
0,675166574571345
0,672861095715436
0,668973648704008
0,650050251718406
0,674602081796448
0,657342034605077
0,656941937116646
0,653800647313409
0,62961996822705
0,63595367813512
0,6329017457205
0,6327540777285
0,632395381375017
0,623591763573886
0,625484078768449
0,630336502802141
0,634405332459232
0,629337730107034
0,639390172768491
0,634227084842445
0,647319605938294
0,64465277612271
0,653284993761909
0,655333235310533
0,652521015110809
0,65833959458282
0,661184098048884
0,666414409846519
0,662017821527588
0,66167246361184
0,669481753224508
0,664044754594951
0,668341103723335
0,663521607665301
0,663147637940698
0,654225793969772
0,684825385814465
0,65938414977856
0,671006011122679
0,66063726349832
0,681015347288998
0,678160237063598
0,699300234631657
0,706520417016662
0,720692622448285
0,720070096959199
0,730669790228839
0,755972093551754
0,780162178267471
0,789307489436029
0,813665027991837
0,808431234741093
0,834157866444908
0,820343754691967
0,845841106995229
0,849968091036833
0,845888683680932
0,840858002215477
0,84032505207936
0,80550941564067
0,816318133090078
0,807413463537463
0,804515191030847
0,776932006973206
0,806334162275296
0,769939758630852
0,783328033980089
0,776119790769999
0,804304929325871
0,754613965079959
0,787129074461497
0,777115972361535
0,795854801862663
0,790014064261398
0,784954686421056
0,801557016987797
0,773868838548157
0,760521751929372
0,763364021586074
0,764937498817312
0,774871920039479
0,748051382053711
0,776124656644773
0,747443543730129
0,743095124062686
0,712442049895254
0,750515657172153
0,727531996161196
0,72548586088344
0,70616839951836
0,713589450551141
0,716324448297852
0,703361680007533
0,708687433996449
0,72573299699142
0,716280227484625
0,697746866826163
0,694161409407449
0,68522197910125
0,669696941257179
0,691905571400741
0,69204295087313
0,696616982373862
0,684285477273999
0,680304391778444
0,683907555930128
0,679574172947036
0,667681252329198
0,685562515824874
0,664050618938714
0,680937212903867
0,654774402734836
0,666975998580079
0,657257288531346
0,652287110389684
0,656270973015511
0,677187090973637
0,648327349627603
0,644714484686627
0,654881835689765
0,672813047168574
0,656651836317917
0,665546058147569
0,64474434757051
0,657992471843068
0,617548340862937
0,665561378323876
0,636611590309918
0,654313167463402
0,662267872458842
0,675203841147947
0,650616678611944
0,665504948287922
0,652068132280955
0,657877614986799
0,666532209104544
0,663947625725551
0,666264232828014
0,678871203753204
0,653446081865081
0,674471483171349
0,675405350128165
0,666582293073308
0,661245025809183
0,694851458888563
0,685974232006947
0,714352623196932
0,677023805560929
0,723365361288127
0,726239667111121
0,752144666116681
0,713558539842549
0,747715258286521
0,723387033898204
0,725463330893882
0,736011905334438
0,807889871498988
0,765609754147824
0,821668120925405
0,76908577755315
0,812366497760256
0,859042016003243
0,895735927306895
0,838870658467911
0,891207199612799
0,866286415324168
0,970745375261436
0,906551822498732
1,0436838087103
0,89352600247113
1,03769725171491
0,969869241006291
1,04598799112902
1,06373786632509
1,01992767177005
0,988975399395674
1,05455934368175
1,00993969780313
1,06535076230597
1,00754173582631
1,02124335953136
1,03989277417851
1,04101617266762
1,02048335433745
1,06118147950823
1,04713201634579
1,08610000897754
1,04156640147674
1,03418345643928
0,925503307648448
1,072952352088
0,954403943600475
1,05819813869599
0,938138970929585
0,993762634326854
0,904317765170107
0,978371417996749
0,944938496924739
1,01596106736808
0,95824336379764
1,02416386444509
0,903794830963261
0,970135797927268
0,931547346451973
0,997129798241505
0,91517925781457
0,986202227219688
0,929888780502852
0,92279021584214
0,896032656887517
0,991036157147236
0,839964440857512
1,02440868978116
0,903982510665155
1,02603575998705
0,930965973912653
1,04649255589279
0,996820346468193
0,940728425070876
0,908882919161166
1,02156740527106
0,932125127597584
0,92821378806316
0,886036312937988
1,04401737114857
0,896246870439168
1,00798025156729
0,914322532947582
1,07706670562577
1,0027037682043
1,09139268845608
0,856353165657131
1,0523655452209
0,921228149027811
1,07795026806128
1,03274806974439
1,05303303405618
1,12765061711359
1,1306593724926
0,942973815416208
1,01877005317302
0,913784287672389
1,26758303591257
1,07640730483083
1,08811313621613
1,01492456883272
1,48497644009648
1,20202127846914
1,42646978389097
1,15957397492631
1,08266463273951
1,09131698826912
1,3391662199373
0,984702500949431
1,25676458615279
1,00969109628246
1,15843498489172
1,08310661560171
1,68218657742351
0,925736659673422
1,20229224238709
1,11971829251031
1,67847516524831
1,24997555232208
1,50351731814648
0,911662083724102
1,53820968736975
1,10366546812396
1,28341945394545
0,998010573241823
1,25252236309168
0,934545860921198
5
1,26358192681963
1,53757445844954
0,983260185519731
1,52252918073993
1,44375119849195
1,43183232295174
1,18520468223332
5
3,07901440170453
5
1,01185321174761
1,66927241964865
1,10394960974341
1,18120540382476
1,37439364063821
1,35780830375522
5
5
0,912923360467312
0,987354620915415
0,959099545233418
1,18192073063657
0,975013821581955
1,1833242348755
0,815523106506449
2,26200443633611
1,15315797732503
1,3633226998931
1,20315149768268
5
1,01917175110934
5
1,42939669424624
1,4939651187908
0,791294950888202
5
0,864464591680699
1,45532599628877
2,08933203794587
5
1,38425922013364
1,03688666740154
5
