3596
4000,36533379555
650,420452594757
1
2
2
0,0672064975984761
0,0642247444404004
0,069520120110538
0,056785229483682
0,0551493051670732
0,0621909671509001
0,0594831946616121
0,0604385787039982
0,0677739107013896
0,0556857983068409
0,0540264644445965
0,0600030954083786
0,0601428293746899
0,0641138565963471
0,059575713600319
0,0699624553034091
0,0545357533470788
0,0727149492423033
0,0683503096825603
0,0657731530677633
0,0603832351007463
0,064105441529738
0,0554378485145277
0,0655383437671177
0,0603151804318219
0,061996721002019
0,0577668514491635
0,0738274252539616
0,0656453212313523
0,0616613036217527
0,0674594166301205
0,0698931563339965
0,0634174511814122
0,0600302867749053
0,0551933345406618
0,0832110475127465
0,0703629908641694
0,0612761128578835
0,0651890701931901
0,062401062337379
0,0660611674896635
0,065400314226268
0,0641670199481447
0,0664555978643023
0,0692907660787223
0,0621986854313229
0,0549865987698302
0,0583842608556495
0,0665080900981101
0,0604479702946283
0,0637388499870211
0,0588347696519512
0,0768886402086753
0,0511389854223698
0,0719252281739557
0,0632133022706953
0,0694028613048888
0,0664848936426282
0,0571562813252591
0,0567939462794097
0,0803070741646397
0,0500328701954128
0,0626792484998548
0,0582346229015087
0,0670618492988209
0,0513959211004624
0,0650724865058354
0,0576886926665482
0,078148205703059
0,0613112978254422
0,0636415742251288
0,0704137687020592
0,0474762341804644
0,0683328150782582
0,0646136733809489
0,0611555399528348
0,0602693902857945
0,0512612606310564
0,0622703298049893
0,0657244020901159
0,0539730964888645
0,0536062191830115
0,0545851354921631
0,063417102088571
0,0867167334226374
0,0376053396776821
0,064151584188213
0,0677098195113284
0,0501860231806652
0,053501764077054
0,0527292221929384
0,0569544459025007
0,0627112153433893
0,0578852398665479
0,0623327366746176
0,0537597782266368
0,0551723971817733
0,0689972074257244
0,0634569649051521
0,0657509055903824
0,0457697202690066
0,109781968699405
0,0376844870514577
0,0927608095948667
0,0591155073934408
0,0452250722840107
0,088453319298866
0,0340167669142517
0,0598537147348041
0,0521294381230086
0,0641010354915178
0,055928741621801
0,0740524824628131
0,0404356323827791
0,0624441316640646
0,061361909296266
0,0469199048687235
0,0505704696600718
0,0506625019105324
0,0504670586784151
0,0604613687472256
0,0994033105467514
0,0326563327153543
0,0672537765697863
0,0512834702403385
0,0592882281059603
0,0707729952415994
0,0647952045670794
0,0334425756221991
0,0637131338633343
0,0506156474595525
0,0524306096380562
0,0433025287059519
0,0885937639035478
0,0396198833070791
0,0548396865267298
0,0636610598283637
0,0672229810631193
0,0915238006340115
0,0429743111705949
0,0630435571175283
0,0486961394683201
0,0485195096801445
0,0667937410045574
0,0540731719631122
0,0548799640819978
0,0730355431961262
0,0637460092473788
0,0368660573631633
0,0637464523135993
0,0457363268959424
0,0697918948540021
0,0648188804911066
0,0513824299225989
0,0678115425858123
0,103044182835023
0,00276103208933129
0,112100308062088
0,0220651822896818
0,0578083870672868
0,0465116056778241
0,0450845570065059
0,0607390445114305
0,0640676916585811
0,0615831286765627
0,0518008854531202
0,0774275189796939
0,0348809660530251
0,0601461676151802
0,0602525397884579
0,0638183958100243
0,034617159789661
0,0946588050964881
0,0619224922446762
0,0352674449088872
0,0810463697468886
0,0444788217302556
0,0490507561743866
0,0438803178138075
0,0859629692772854
0,0465948786896761
0,0552600007309376
0,0566215133559008
0,0615738191480958
0,0678554343003915
0,064426666410122
0,0487877013275131
0,0610305341417221
0,0433866915133171
0,070889973136939
0,0863099533139668
0,0550323210390085
0,0299718042978141
0,0538927084475437
0,0453466847825534
0,0740068967919513
0,0763377325772925
0,0398693071508102
0,0724296799022736
0,0513329932901213
0,0594465468680499
0,0562411001747083
0,0499266078888355
0,0636269799884964
0,0381805678978355
0,0775293759119102
0,0563662794450899
0,0503176566495203
0,0578258286078184
0,0531040371167433
0,0587756775777003
0,0726120675593944
0,0961847777670152
0,0218712771368059
0,0633548962333187
0,0471030329367951
0,0704160995970132
0,0672354346515249
0,0483152865585915
0,0503841316990555
0,0495830972501855
0,0523811800915005
0,064519092368411
0,0529626601754839
0,0582925581034054
0,0582318748037258
0,0628325272604996
0,0573931633096099
0,05917979127984
0,065758731074442
0,0520233934416176
0,0435875365229593
0,0662360754814647
0,0546900276296181
0,0544174213016534
0,0771771306729487
0,0438159368895193
0,0596122098735006
0,0573625791857229
0,053930525277298
0,0546472251603974
0,0581126457442982
0,0550216056878211
0,0644754764082819
0,0546535074491529
0,0874280520909616
0,0520867480864149
0,0551278021713903
0,0607134123733141
0,0479844942365765
0,0769374080840186
0,0319560341216034
0,0684109537511994
0,0463534718840495
0,0717103110091792
0,0454175244293771
0,0855657421128777
0,0361398418203143
0,0564059509535338
0,0604472285464472
0,0830884461283318
0,0409994551463856
0,0732306516231682
0,0512839677579607
0,108949361755733
0,054209193965764
0,0432943259720498
0,0657172886844048
0,0563434485507736
0,0378424677478443
0,0813594248736065
0,0478248850910791
0,108958872184061
0,0564686366130756
0,0545754775179324
0,03397112448176
0,0771927250179322
0,0504664322265499
0,0626570870357221
0,0692757404586628
0,0535177545778649
0,0914914581176609
0,0509189169504798
0,0703910173419827
0,0619310056075863
0,0552367902552708
0,103689372718774
0,032496838301686
0,0680411804269727
0,0462880579824439
0,077681550540808
0,0591981760509573
0,103825396537141
0,0475925208301005
0,0916640656342819
0,0431084850842596
0,0961201495926863
0,0546080001707358
0,0702252659773483
0,0538978677327493
0,0834686946282475
0,0562146539855447
0,0740578081630613
0,0602804229391217
0,0727672780723455
0,0705971670341509
0,0729305159185222
0,0885008982031206
0,0816786986125841
0,0496597640038652
0,098019887623626
0,0556768146102044
0,0712763902516156
0,0700991727725611
0,0697181094090772
0,0631116972777003
0,074244574995477
0,0664123851075362
0,0822163981182826
0,0656556368944015
0,0638876143541726
0,0759972375376751
0,0687699109817696
0,0674377598448558
0,0790421113944528
0,0673367301005474
0,075267975513087
0,0752469266374017
0,0750342264824873
0,0701519868200942
0,110452106814937
0,0649218571078551
0,0741628196527475
0,105306157369156
0,0595685148961259
0,0773652776216056
0,0788838057878705
0,0807125962257122
0,0813610477080295
0,0789068815857795
0,0934842136314384
0,0850342427761319
0,0865979110228084
0,0811433552495498
0,0827921763874789
0,094062994187519
0,111997109020844
0,11832002206944
0,106129852939749
0,0834599028503942
0,0975895055320598
0,0760237718238613
0,149974783936165
0,0826023496136274
0,132572439899264
0,080675742733841
0,103548830118385
0,100617133033086
0,109560172696062
0,108374715623024
0,102224515473294
0,103023820964769
0,113735786422772
0,118290183356009
0,115293177778559
0,123991156787693
0,121639269050088
0,141631065895042
0,134961007432523
0,108402880108598
0,128538134644567
0,128960985302702
0,130611407123267
0,163726305481662
0,14163745670221
0,184646315457541
0,122289059366094
0,158873633959264
0,142704575043759
0,130871990868942
0,153011569335028
0,144457346409318
0,16504581779445
0,154439210921797
0,155626825128919
0,155407864419287
0,169293711438446
0,171416197026256
0,182074528590599
0,162202168932931
0,178850405020931
0,172372123744874
0,202261680299107
0,169101655426128
0,201547739146413
0,184499711343066
0,249673425506452
0,202530040715515
0,250338769327835
0,176432375436419
0,218586745267687
0,182047422804638
0,222628404866178
0,196432894322688
0,231234316581703
0,213706662288252
0,240713991414005
0,230406179264609
0,233507103954708
0,232928133412109
0,244013423194408
0,214820739879249
0,273778881010576
0,233620303517225
0,278612829854705
0,248767028674444
0,268515538839801
0,249401609561813
0,31146664721963
0,242814787603147
0,306458690793554
0,274104364667112
0,281200490724448
0,264154271478136
0,275507048477221
0,292957987072123
0,292505661632105
0,284951056160089
0,312089753087915
0,289261077461761
0,307230645905139
0,301248063710289
0,31975626632284
0,311042229379789
0,327407719991093
0,315164639318814
0,343890260365314
0,30576338695394
0,350686982171798
0,326090311909384
0,372461907763852
0,318584488618107
0,392211094100272
0,331091033704984
0,36040304104676
0,350994380728216
0,377196721489843
0,365520409818977
0,373764306907232
0,362895387170862
0,382178036328833
0,373626876173478
0,400247582797961
0,397483376053505
0,420144376926762
0,403521887291307
0,417527446261105
0,404168654601581
0,399503063075197
0,402176035699346
0,450848786121287
0,413099370312112
0,496197446277995
0,433028223934489
0,481893096992514
0,447769474448017
0,473133682819642
0,437971885655475
0,459232444265386
0,431621613108437
0,451913187119272
0,469961475585284
0,49473191731207
0,458398250651839
0,478808600560256
0,475310181657925
0,502363721475888
0,475963695936299
0,512994181670718
0,47980921448026
0,539780853251682
0,493837177462447
0,529205159802148
0,497943200259002
0,545232745765544
0,519254758851851
0,555770487662257
0,544002794154164
0,565351905986055
0,543070170608374
0,590494640357524
0,512610214993971
0,597870321237918
0,569229839211492
0,602277149897385
0,566802094045556
0,604846973365149
0,575166631954925
0,601349503892845
0,615138968091701
0,636665054185404
0,609948190127133
0,623456535914925
0,58367226261325
0,648887534094347
0,607858577761097
0,678686523758741
0,59115452902602
0,6537526787985
0,610886982797458
0,677324225335757
0,632941891174611
0,674128173619492
0,653944525949847
0,687096953723033
0,635282033495439
0,695517602149448
0,647485247913163
0,689591667800133
0,653571559802648
0,718126208857709
0,663074201388747
0,756596074997419
0,709429765683752
0,750923205332486
0,703891408401416
0,771141402151854
0,695338080264161
0,773683452661714
0,673652317362232
0,755995922884348
0,723110237465547
0,765424216958347
0,695601212757022
0,747604418598387
0,722537049439743
0,817493180586908
0,768310787768313
0,76804506688509
0,739122303136711
0,826921693782805
0,764019732959072
0,801303095744501
0,78949329429143
0,863305014286406
0,785817703566856
0,846494712474779
0,800570863182931
0,87415808662547
0,766689880828355
0,869172324851901
0,787659585789799
0,868163315913454
0,815352173433927
0,900305097392626
0,840933541259955
0,869321118913667
0,822203371498642
0,938140161854955
0,864958026943173
0,872520233290568
0,938575424990168
0,972265562834365
0,863860223576187
0,873448304345219
0,897892813625758
0,949827613231643
0,869282285517118
0,919567681296671
0,86497571683483
0,948647965776598
0,857673329377379
1,00706935998936
0,923981919566073
1,02006866802424
0,944250321874396
0,999936209441814
0,965949906649282
1,00847656307157
0,929508437601394
1,09133317091723
0,912165689793729
0,996428737351614
0,978016020792117
1,03974340416374
0,984040818413325
1,09908864303495
1,00412530230377
1,02965301295534
0,957521201012606
1,04921692810722
0,997518157683254
1,03100793105098
0,995717990552558
1,11135330694276
1,00581423462976
1,06151041269583
1,00074646573486
1,09520275435544
1,04473095002361
1,10264897429848
1,06153153788849
1,0462387970595
0,981948665897598
1,09169400383556
0,996803702766318
1,08067306895262
1,08640568577074
1,10434549753322
1,06926286095261
1,12717520416571
1,06917203075871
1,12508480599857
1,09032913673959
1,16795995905432
1,11624476067864
1,20348528944794
1,13031315525764
1,20863044436447
1,10637305227159
1,351433696237
1,07516398030371
1,30721590570584
1,17905822299715
1,19634829581189
1,13875025660492
1,23755205206672
1,11058895728578
1,17693756572465
1,07715621074024
1,25613036470703
1,19485599378482
1,20557753515271
1,18881303052703
1,32382349729742
1,16742720593337
1,2237758804097
1,23091074058726
1,29607372554795
1,11874300177606
1,24091662789277
1,20402143451885
1,21433147849135
1,16728233042363
1,22880570065043
1,19287758339415
1,22047710412255
1,18726822433826
1,28123929532684
1,18918070656489
1,22069184790493
1,27108747063405
1,29939112117877
1,21775965978403
1,31460789370457
1,21884323805331
1,41789348993231
1,1820472073513
1,20763542680348
1,337298813308
1,30160467438794
1,1638139303827
1,29728699051926
1,19592988680488
1,36414814322624
1,32249110259398
1,2901178455729
1,22243483293004
1,33593645872314
1,24591520885127
1,36999874011395
1,29473523153612
1,31827460274312
1,32982968364568
1,32929427436901
1,20806282669057
1,29584245565013
1,35901308251231
1,34083755305886
1,26175187790031
1,38485353563193
1,247316129486
1,25223316442917
1,27084383998627
1,40228258119755
1,29932597631308
1,33034946610307
1,39539262257816
1,42541228379923
1,25579405324027
1,34742181988898
1,42851743034882
1,39650015658488
1,29776031175925
1,5253342843251
1,38013920532149
1,32412951646665
1,2883308010642
1,37190422846028
1,31431976572913
1,34550746775195
1,31941319557182
1,36201259570571
1,37868118446205
1,33374323561437
1,29293735900581
1,40395590563872
1,32408212546877
1,38294627413911
1,36335171196326
1,3486394537484
1,43343011876377
1,40747702259701
1,37636966074141
1,38704248809689
1,3170793227414
1,47697303862797
1,4009714270064
1,4191216893142
1,46243752513452
1,45798124816501
1,36607787644907
1,42909058054529
1,34213622961401
1,3539451181305
1,43365960991664
1,38373310960824
1,36520949353857
1,32462008242799
1,33897034138446
1,40424476778054
1,35668433377251
1,44363281165736
1,33749116417379
1,48038348287895
1,38278127250983
1,4614319528214
1,5119447117186
1,37955125297484
1,36896459209355
1,42543267647089
1,33098769730629
1,39764280638353
1,40195760210538
1,54968666086875
1,42529068824992
1,33633400714617
1,40273446213367
1,41757952613233
1,37758020894724
1,35109968288396
1,40141991836924
1,54406293508552
1,36750159505107
1,37383772346115
1,37135327656639
1,41455340251885
1,43351570202005
1,40842045293169
1,40257832958618
1,41564074801839
1,30396589719168
1,33993313090344
1,43759837317154
1,56500754229417
1,5253272424133
1,44171508971329
1,36409914477894
1,35250652944296
1,33079706713009
1,36901255192983
1,42462837339901
1,51850223383901
1,44605417182028
1,30167039420066
1,35739415167692
1,49848581624458
1,39237912755543
1,36637144726159
1,38961316961088
1,42377080597882
1,44427958326974
1,43838926260277
1,32303959625237
1,39575750763347
1,44647470317982
1,32296736682084
1,36848529903433
1,4517615649337
1,4765914789438
1,52906668918996
1,41952767345982
1,36279625592193
1,40261558791421
1,34960535419693
1,33466781892222
1,40035125449572
1,39214556419164
1,43439759865691
1,37298803271282
1,36554930352041
1,3742437068864
1,3548767632316
1,32591354725706
1,30238747038092
1,3783184212953
1,38318971427472
1,35069278476748
1,31617466671381
1,40548173335011
1,40390806972403
1,33851519889991
1,29449112992908
1,33366072988302
1,35397590418474
1,2985090402868
1,33830881180826
1,40055375902562
1,29850172877879
1,30616327750298
1,28401037278158
1,28698053793745
1,35701472915082
1,40833006616026
1,34991268479816
1,31806035216662
1,35395389582845
1,31383479477724
1,27311034010253
1,3745322953894
1,28798303418268
1,24309434037187
1,28384900777931
1,39703644296079
1,37953056939788
1,28797932805225
1,26408133340261
1,29161829304235
1,25200558025585
1,28638695225872
1,28545835694988
1,243826763103
1,27712238104323
1,2572439733865
1,20799389347198
1,24187866276073
1,24181352388564
1,19358703983547
1,21451060026001
1,29463557592368
1,25030013066177
1,2146687868338
1,23703420843229
1,31775439319872
1,20891329322193
1,21267841317938
1,25130493390154
1,24900600466497
1,22688353946867
1,22637361929996
1,17861312944624
1,26848445483616
1,25964049676906
1,14642839562514
1,15374239205439
1,18647708140944
1,15485888804439
1,20444742080033
1,20703332980804
1,16103586389471
1,17619152538404
1,1964384448497
1,16519212171346
1,16607026771871
1,12349157485381
1,15898582404167
1,13811058497417
1,14597152381363
1,14967822627775
1,17367976888806
1,17267854340039
1,15215498463273
1,12330245556694
1,10463118984291
1,07309407145399
1,0887375312487
1,11734681096473
1,13220855144186
1,09247268527123
1,10317707978493
1,07583291847543
1,0878722623968
1,05740717104847
1,07241280323821
1,07274849869265
1,10388282827456
1,03766635840968
1,04805262521223
1,04509775442769
1,03999408168409
1,04383963545591
1,03831811636311
1,02581011240593
1,02761806248788
1,0073237948189
0,998394366623754
0,989525784293505
1,02270100501461
0,99581467917928
0,994809138842519
0,966454290725602
1,01558384159817
0,999062151076529
0,977536558873029
0,992341668871229
1,01615270697197
0,951080494845181
0,957076991661689
0,96301696177724
0,989706277908965
0,938012670079239
0,981064312548945
0,946892322551018
0,922670473342499
0,94402418771936
0,962137198732139
0,947489321993858
0,930486005451912
0,924252311836408
0,918566759414401
0,894801760057531
0,918710805057224
0,885013478758615
0,884635701748311
0,889314258123913
0,894946963347614
0,877910323801156
0,883710897006614
0,881790542413051
0,881279620358622
0,871043095161139
0,863845832147998
0,856179383257962
0,868920598678788
0,859661385658098
0,865621819934197
0,857262968804225
0,865218135069838
0,840170888517542
0,82868195668079
0,837075668818571
0,827823460358772
0,809232562129479
0,829473221053841
0,813629109888455
0,816309305765617
0,797217937444259
0,815041638885048
0,804502641636329
0,799630076993311
0,778863076130389
0,798062616380697
0,776332201167708
0,773135269372407
0,769754824493696
0,795306680339971
0,775479823280378
0,782862264975441
0,767674187521687
0,777507837481942
0,765900108609635
0,772590582501504
0,766941930186149
0,772428588887942
0,751682116314003
0,749668039294498
0,750800600832104
0,732372328543932
0,711806415688254
0,734688478720949
0,726802605987982
0,729837098136555
0,724807780157036
0,732863839628209
0,727596429040792
0,723914327881435
0,711036356351775
0,722310472220945
0,704792949248154
0,719925622168304
0,710922506464727
0,698336369358804
0,703280544063659
0,711121764029879
0,715538267040906
0,693617468824068
0,683079971821068
0,703517431730052
0,671325488145978
0,671938614059863
0,681579232183127
0,685254365447086
0,672929952161851
0,681907972667722
0,655518181046268
0,670208082841788
0,64597903204524
0,65857474000443
0,653220964322895
0,641365807203408
0,634703078939512
0,636636952774626
0,619575330920195
0,647186934899205
0,627877996237318
0,642158410109498
0,612256361745805
0,62471660102891
0,614525559475297
0,613308591054569
0,616529438592911
0,616511790721336
0,59779985825923
0,596953728921906
0,602759715290895
0,598381058516582
0,577127985063217
0,610914013669339
0,589605683490466
0,59656085542096
0,583422346876751
0,571335611335422
0,581036341066945
0,594680449414859
0,563187465659977
0,569675136296894
0,563881382808953
0,573993617053855
0,567971421819484
0,568462528086642
0,555794310488623
0,555972968481642
0,553195402296622
0,56004950582718
0,544484464545134
0,550591267908149
0,536160040472703
0,540926918939057
0,53451607265743
0,539352814237915
0,523176379049343
0,534928193808335
0,526641486603012
0,526002247671634
0,520114950144001
0,529389505655493
0,522902678772991
0,517259589859912
0,518509981136353
0,522002221756585
0,523596166208651
0,510146751699463
0,510829862418046
0,512426642467045
0,498191332128909
0,51267718493418
0,495057221944389
0,51045129898084
0,502127366849237
0,506907303890879
0,498401483146881
0,504030515405621
0,482665520276984
0,497021575470393
0,492429910849513
0,49314120100035
0,480949806067719
0,48940386382277
0,479647198497725
0,497755016047316
0,487789048780939
0,504104564092796
0,477517987614389
0,492289357973676
0,491853940716215
0,501289750858399
0,501900945101677
0,498076114182655
0,488416354953991
0,507888299161199
0,489129554014025
0,508013367155521
0,49319146661999
0,513444674716633
0,499838012271628
0,501471786171367
0,497800894108262
0,500199029075918
0,498109105288662
0,51710246525455
0,520522841737646
0,51462270068071
0,518117364390015
0,522610575936829
0,511123294160113
0,528108223775192
0,519670830433274
0,532071172121481
0,523561848784129
0,533524377593193
0,524914144441831
0,545379759322452
0,534106619791815
0,530162180562947
0,532975521224023
0,541214232731395
0,540802127223717
0,542681432269509
0,53506179914069
0,547089956743997
0,547429071490387
0,558549612966878
0,548482453334369
0,557579904637269
0,562194615430901
0,561663996958687
0,552447103199272
0,557575869866889
0,565357785608457
0,570778542718829
0,555721765450794
0,582271486873105
0,569640644468089
0,582820220369899
0,578896939202945
0,587028202989217
0,567425489046337
0,599389582157398
0,584035729774903
0,601776177847684
0,602566749932505
0,600310991694656
0,602696422717743
0,606674427558954
0,607548041803038
0,61758412674396
0,623361569884541
0,617249901997782
0,6172044487157
0,604108867085921
0,597875482736976
0,613708348198207
0,594916659051729
0,605983991816902
0,603868542902912
0,62342151175278
0,591506818370351
0,611995936117797
0,599102517573083
0,623305570597977
0,600608474371432
0,607428107525234
0,596522979645878
0,596880919110263
0,588040446221442
0,600319009092366
0,587227399678714
0,586403784133456
0,600229604265027
0,599169347266984
0,591963561348384
0,601108090678796
0,586210249846
0,601926913384977
0,594856081482565
0,593979161387676
0,593118390904438
0,618218088630536
0,591348525084671
0,593764387983668
0,588939518951382
0,594593211835393
0,586424592778119
0,593204022543723
0,591835410902777
0,595595711312892
0,578728932585983
0,611286729338982
0,587613211411191
0,596166702466034
0,587183074045471
0,591808648791835
0,602522894424581
0,588752402055237
0,585290216111542
0,598060263725685
0,583886260950154
0,591433101277792
0,573666884276079
0,596086768893955
0,576806163756157
0,591694878343868
0,57270532247301
0,594475739964207
0,586740853628079
0,588018081349818
0,567152817138351
0,581340672434762
0,563403542950348
0,57353060747801
0,559677017383812
0,579056776690476
0,556485023524792
0,569441653516566
0,556470378821785
0,556340883739265
0,545632172780404
0,558379403467211
0,548371828070609
0,550736653442902
0,53179075673228
0,546631546030897
0,530322477643735
0,53612172000713
0,525258796978532
0,535369643734809
0,50984579288611
0,517852195975357
0,504501758318527
0,520457274404048
0,500136849825193
0,498641197798932
0,501168387353518
0,504462089127573
0,49105912602379
0,496102111052338
0,490419667183745
0,492540592720718
0,467768185446046
0,475071885561565
0,470857094975302
0,473971576772634
0,459378593271948
0,480372338934718
0,458072454738824
0,466942152683901
0,452492761036847
0,458769195752062
0,453575680685191
0,457613842077967
0,439341448875255
0,449342530146817
0,449789726418006
0,446781455681894
0,435406795439498
0,444856226062458
0,430573117958045
0,438730909583063
0,434498798649681
0,435296339297247
0,431414945241621
0,433627144050216
0,413547870039376
0,428525260054845
0,4231921622446
0,426471728588883
0,407536517599666
0,414359146117372
0,409124144489775
0,421109299058804
0,409480351223864
0,418606299315159
0,406723868663588
0,414057352152796
0,404761962520349
0,405819981280225
0,398783943681285
0,408420829197858
0,401539180960532
0,39968764977042
0,397636711379896
0,407004447060017
0,392539703462251
0,402366215123662
0,394636477566263
0,390174443565027
0,385266383671029
0,397271348262194
0,38369744136261
0,388552829648603
0,389063896771465
0,395347655893686
0,383412804507432
0,389488041765103
0,375909060237086
0,377988193208744
0,375784307354052
0,384063704857905
0,375940414608846
0,378648266312577
0,374742418135368
0,376114548515892
0,371409982395578
0,367894088663992
0,363544592344163
0,375247629197489
0,366085775582815
0,371783899885448
0,369482438293485
0,365731106883257
0,363757432349441
0,369132060613558
0,358797009325359
0,367655326131908
0,35647815306397
0,363126463038153
0,355305840501399
0,360195612368378
0,353272597301206
0,365416365370147
0,353592031110724
0,360555220437202
0,354961863183418
0,358202980192249
0,352132779809297
0,362208912380726
0,346214743083067
0,351627219142025
0,347833739553559
0,35632934546667
0,34657767793116
0,348020284714272
0,340255168161426
0,352015611953652
0,343024587342803
0,347550926114276
0,345323267641526
0,342493940267344
0,338914540368867
0,346418807050437
0,336742252622865
0,344045979296942
0,342334193461096
0,345871801321598
0,337790532446493
0,341378892332665
0,337119864563781
0,345692760354581
0,332046984091104
0,344728905934912
0,330758581840444
0,341174547137294
0,328370136104377
0,339006987008533
0,326865196323052
0,343879643522986
0,332771881015983
0,330696582203974
0,33159270019807
0,33893637052603
0,326604937952829
0,33334980953213
0,328276576203084
0,335453452699224
0,323598731727503
0,333224926592382
0,327386894637222
0,330460474961439
0,32377122512969
0,329537840617101
0,322223840898726
0,331376943494939
0,320766470494097
0,327917250158309
0,318769236905595
0,33093534487231
0,320348817087806
0,324388216891604
0,321353381216801
0,328718395920122
0,320419882348454
0,326877117649922
0,317760436988959
0,321729259777765
0,312824630964267
0,318565591336328
0,312718556912957
0,32099090128242
0,315707601141454
0,316756836568847
0,311895062102641
0,312309815696606
0,315453401590239
0,320281317753439
0,305444136020919
0,315121609908943
0,31329613047093
0,315478766564544
0,307918107714615
0,316455852687929
0,309826937215744
0,319852581691198
0,298651084763351
0,306798002682804
0,307317774238081
0,307112292786537
0,303450610072405
0,306943406200087
0,298407852639095
0,313586774823159
0,305766444608288
0,309854530736044
0,300846468162877
0,309931665154982
0,300261629611998
0,302758522999939
0,296063506544171
0,302389274243938
0,30101881962139
0,300404591510312
0,293897731076354
0,304519959637424
0,293324700569588
0,299538286568465
0,290747546813926
0,295603711235604
0,289442993567009
0,294650620583214
0,285647977474706
0,295953103047684
0,287868073113396
0,294010248883403
0,286819234478536
0,291647028715307
0,281222279212528
0,285909058216711
0,281271535656456
0,284739240695582
0,279887164134582
0,288552236029816
0,281740684768665
0,281203755404576
0,277098767360031
0,283900185934111
0,271222445233901
0,282491908864371
0,27319427864176
0,283463085791516
0,271237798803565
0,273122974066333
0,273133006146209
0,279367020934532
0,270946671170264
0,275615447611013
0,265696449669422
0,273767943130669
0,268214107293659
0,273725287501208
0,268925164523384
0,268432323511388
0,264672724690515
0,265994315875228
0,261220652446151
0,266786636200863
0,259952390985713
0,267104392746938
0,258898437096369
0,264939908704631
0,258708313704625
0,26317568821075
0,255183035150485
0,26033376304274
0,254148374185431
0,257419153889894
0,253357778567612
0,255983657156223
0,250075251340024
0,25948997896131
0,247765784808972
0,253928611444347
0,251642340835872
0,252525589744219
0,249982725689717
0,251491936658651
0,248222359888478
0,248058342862632
0,246915106607117
0,255125425119408
0,245531058719537
0,249229857343007
0,242213818907046
0,246380947140454
0,243842050474371
0,241976695406443
0,242634171641346
0,243648981513791
0,2400335904183
0,245856960026015
0,241290359101935
0,243181949994275
0,236124804012282
0,240101150829866
0,240920631671233
0,24654433894574
0,239399877522568
0,239663990108376
0,237684604564041
0,242071379956785
0,234789786016138
0,238923793648528
0,235950865868338
0,240167105973464
0,231935980647617
0,237643421232975
0,232387666515834
0,237067983659292
0,229905429240603
0,232745652821776
0,230284681820763
0,235784482567286
0,231106183689593
0,229076678991067
0,227392167772572
0,234638348906832
0,224748249811863
0,227415584505017
0,22688357889523
0,233226422911815
0,221659111846075
0,228183639196733
0,225507246517769
0,225892987791263
0,22503223203521
0,229812680699491
0,225074427340493
0,226848410361051
0,217418229942697
0,229290891129408
0,218542016648711
0,227086433774381
0,227503932258945
0,228213491771217
0,221880702549993
0,223077035109986
0,221779681764722
0,225096422444744
0,221790568400469
0,223179765588698
0,218770470481214
0,222919460869401
0,217202886474417
0,226452272781912
0,222400241930638
0,225346705933766
0,218376054344026
0,220000767586101
0,216243394445666
0,220197026769389
0,218141736807218
0,22238011142069
0,21392854457967
0,221299350893586
0,217364043938703
0,217329133466036
0,213670263997689
0,219642207784634
0,213411443449674
0,216630616341988
0,211157519126619
0,216008462417255
0,209913105764201
0,215650460643941
0,208874069050259
0,213968634056405
0,212435602026552
0,214728496490408
0,209610834207549
0,213414641118554
0,211877687286437
0,215708478945891
0,212919071808733
0,215240962409679
0,214151266617011
0,211262294098573
0,204906755286166
0,208992229554742
0,206117223232747
0,209863081372554
0,206659397687519
0,209612467769302
0,205090704554704
0,207248554219102
0,20231409248708
0,206195713096141
0,20668307513599
0,208657603433069
0,207060160015065
0,211469888377145
0,203666911849665
0,208374309879777
0,203824107668611
0,209407845126831
0,20347475595555
0,208808600307134
0,206805713295285
0,205085766129774
0,200583924386453
0,203966637854163
0,200113431176043
0,203563426806571
0,202063633305451
0,20460441639765
0,19940845449006
0,201836366084456
0,19951298208822
0,202508537532064
0,196444936079074
0,199386995521917
0,197323366699421
0,201620320680511
0,196592316966134
0,19926297126174
0,196700010692
0,201620929471268
0,1935697054318
0,196704689082311
0,194511600709004
0,194541453166293
0,192184639644635
0,196027245993474
0,193985897964539
0,197329215641918
0,191937242218445
0,194823805651938
0,194562733449526
0,191542729364421
0,189562627523864
0,192758672951203
0,189245101659477
0,195802159619039
0,187981945489948
0,191594481292921
0,185963796576998
0,187765494148726
0,187771452473443
0,189036217549596
0,182797219034981
0,190713550647234
0,188152921586951
0,187407523348372
0,185232187248881
0,18650709230814
0,181466878319615
0,186857583198287
0,184719573300402
0,185162669628942
0,182333146633509
0,183578936860271
0,182133294855155
0,186137468577916
0,18069201351017
0,181576543880542
0,177846716604208
0,182919368641255
0,179010378526537
0,184148595149788
0,176729908536059
0,181893981827757
0,181061994546513
0,179575527662425
0,174148403222265
0,178572281742644
0,174541626912758
0,180098367836799
0,177341549148681
0,177630023846297
0,171687136996669
0,177442701895695
0,174899771210284
0,175564233687468
0,17280645955943
0,177499444605833
0,174812649556107
0,173718398232006
0,174541807595838
0,176902963003258
0,171731883384884
0,174999731145503
0,169850327773851
0,171903482587932
0,168407953754568
0,172309843468308
0,166162205994658
0,171173943628014
0,166394444492571
0,169075123514058
0,167680856344796
0,168439098990883
0,164651206454839
0,169245382918306
0,165430903814626
0,170998870334417
0,167003234799595
0,167441553120063
0,165540834591998
0,168332222423186
0,165697948949351
0,167648339281212
0,162982371006777
0,16486717224707
0,160176805291882
0,165517550837954
0,163026875539303
0,165145559587494
0,16204128132237
0,163505175174233
0,161597816166804
0,161482653409205
0,160070614860447
0,162956348489598
0,158180144757191
0,162611378500229
0,160114523465364
0,160744584703494
0,157467908973659
0,163105461986899
0,162092901890856
0,161232332229283
0,156290975187201
0,162507628289541
0,16087785341886
0,161512142719155
0,15698013637871
0,162131042642095
0,158534751078889
0,159353747111188
0,155037151347201
0,159857381966818
0,161547736948667
0,159992235344476
0,155564801766624
0,162692032917524
0,158750645682377
0,166777459632579
0,160667480184562
0,160121530076714
0,155975728972687
0,163419402631956
0,159723456346781
0,164011068189953
0,160343822394347
0,162249265780847
0,158428264006958
0,163117997332026
0,157912067410241
0,167030165159426
0,156798662445164
0,164399119553594
0,162620672017746
0,158871365817844
0,158171619408092
0,16356240571975
0,15581441360126
0,168307403060936
0,162337041620418
0,165610026655916
0,157702550054348
0,15646805672254
0,154566883940781
0,158898836923229
0,149260208224621
0,154881691598391
0,154136612732313
0,159246607256447
0,15442415128062
0,167537754160568
0,155347822222096
0,157360160698417
0,158582033233794
0,15735311710552
0,153846312436427
0,157725801238312
0,160170065057091
0,155453753297141
0,15108604497985
0,149471774427262
0,156024033132329
0,154093355599736
0,160608131803549
0,152625086024112
0,159732176621901
0,145337641795789
0,159537807570897
0,14267137929926
0,167208247442526
0,143120749857449
0,167808722396378
0,13033440450743
0,171555900299919
0,136915700869346
0,173802676259747
0,126028166469545
0,174281593420482
0,132075591892533
0,170871246570094
0,128905547785962
0,161861044818847
0,133810804303062
0,159814429360639
0,147822931814747
0,154763095192665
0,148896257491257
0,145792595455039
0,150971209137235
0,142188643297779
0,154031713477159
0,141139617686264
0,151509862819312
0,144200522978267
0,145679672357967
0,147044465697375
0,144859289436901
0,146858652944135
0,141214270447831
0,145377158536743
0,144283966120118
0,146191849971192
0,148867270036029
0,145354856360474
0,141852176036145
0,1437202394532
0,144245965748144
0,144431744759513
0,144473546552531
0,144880342664898
0,145009100786656
0,142077064630971
0,143604226873825
0,144193301279914
0,140391370418774
0,140297784934586
0,143538251590103
0,144480938242355
0,143357229381036
0,142766730272217
0,14221433045154
0,141882754751469
0,14037256154975
0,141377446435274
0,144671748636562
0,141610895576826
0,14295171253154
0,140489757647548
0,141030529694168
0,142119277045056
0,139788766170699
0,141063870315296
0,141793635411875
0,142953709294703
0,141445627693445
0,140065854651639
0,140132561668295
0,144552483029407
0,142448031773833
0,142650357823519
0,143997180602949
0,143172031762842
0,143485308263564
0,141949912533165
0,142477021393276
0,142641441283462
0,14304737572488
0,140882237378205
0,143640841429593
0,141376386058032
0,143910125801879
0,143605370613133
0,140903437199324
0,143249331803234
0,141884103192342
0,14079025128078
0,144009805751052
0,141682088486593
0,14188402687733
0,137556403866712
0,144819036235875
0,142544200753974
0,143637541128802
0,142007495895321
0,142002775507262
0,140596670066146
0,141571804704215
0,142976144418066
0,140702968392294
0,142482002416916
0,143521382412868
0,139331576641132
0,142672439091227
0,14387916808712
0,144794773251648
0,14373926359636
0,146212151076915
0,140813963606619
0,142910801769645
0,142414117772825
0,14466161426894
0,142614933040496
0,142253683166101
0,143301165552546
0,144665415289892
0,143992868739761
0,144307226635266
0,143504970531338
0,143825340508813
0,141278635416391
0,143636098485971
0,144596341191216
0,144829358425657
0,143736831841803
0,143661032806659
0,14342410112998
0,147873559121199
0,146346441315036
0,14532194511726
0,143980899070316
0,145085807668958
0,144732257255071
0,144727121993851
0,145368236761287
0,144212950847627
0,14349063251402
0,145132018082127
0,144967069922021
0,143800544033907
0,146778472656878
0,147156922960876
0,145882616796971
0,145424451207501
0,144631472097027
0,147760561097975
0,146809828570013
0,146839355180097
0,145959673277621
0,144532640681343
0,146553915837417
0,148023715386934
0,146486913950553
0,146376464261177
0,144808582134478
0,146732495929358
0,144945502704872
0,144849009985288
0,145027421932073
0,147062994218474
0,145032952062855
0,146523510391729
0,147814573866646
0,149111161601556
0,145600840477628
0,146534451746248
0,14946483873443
0,148295912301841
0,146925178901008
0,146451918074531
0,147348984905488
0,149441860152671
0,149776427981029
0,150936403963375
0,149698254475577
0,147681539976508
0,147769666679458
0,150498634394721
0,147790689095421
0,148383359648361
0,150413022266603
0,149585638722025
0,149840456225222
0,149781039643488
0,147397432516922
0,150043932032286
0,150303343556944
0,151671865770449
0,148738383635834
0,150222862232995
0,146160411349424
0,150684501612783
0,150464963206349
0,149297878484801
0,149236153917017
0,148595588315388
0,147166717605986
0,148992483611542
0,150684899597881
0,149271073253288
0,147288239151861
0,146230661234572
0,14722390620543
0,15064339324323
0,148909520471645
0,147619265955019
0,146842677427636
0,146744043758694
0,148701994745988
0,147482341506962
0,148818644528542
0,147216876260693
0,146600319009571
0,146936581130001
0,147403775776777
0,146602615902934
0,146635493978157
0,151718994769391
0,146677865613998
0,144553581932387
0,145042207446596
0,147113544029503
0,146004103992191
0,145801374872379
0,142920993077852
0,142132045256735
0,144682193481838
0,144027107650024
0,144185082942865
0,146007901706885
0,145825492197231
0,144298396128725
0,142645672263047
0,1450842659996
0,143404820410327
0,145007816564122
0,144023832253783
0,145697855185698
0,144089758886588
0,146422185471727
0,142620855677116
0,142465969931737
0,141093577620992
0,142949541055111
0,142698965485019
0,145020172487651
0,14313592113457
0,142636225331918
0,141579369910923
0,142782939919065
0,141191717728782
0,142015019600246
0,14318432035282
0,139972169531773
0,143965500128066
0,142870578032015
0,141881228247027
0,144449988873305
0,140544676270499
0,141079011252902
0,143291135703317
0,13911426210934
0,13975930270137
0,138699142381803
0,137585604066471
0,138575871658384
0,139233023289299
0,138711006395066
0,14170487466253
0,140154927558053
0,137180086259555
0,139804864648546
0,138678738591875
0,140147911072693
0,136027819933811
0,139387838098699
0,140163370794581
0,141154914179191
0,138745996281072
0,137705707207957
0,138591071690536
0,139922409609058
0,141390774894209
0,136193772315285
0,138915121398561
0,136077395685832
0,142403709576753
0,137261882840548
0,135230477509814
0,137918600224234
0,137897552220002
0,137642297237203
0,135914741250886
0,134873623403169
0,135636817807903
0,134778747662385
0,135780055587299
0,137638624524084
0,135663719333389
0,135094147310252
0,134844126940576
0,135423015492222
0,132160160495824
0,131925389079399
0,134427119135261
0,135475796495101
0,13569297052569
0,133127887671489
0,133579246380852
0,136628521378941
0,130344764541833
0,136975911212657
0,132907549521575
0,132761605481753
0,133062602812005
0,131925905286126
0,129386166600513
0,133293851057034
0,130760159058601
0,13105860175046
0,130453070801742
0,132183512190896
0,12983825737924
0,127570637185379
0,13312305435773
0,129589873255765
0,127700985367479
0,128441151367709
0,126470618903932
0,127025699443884
0,128007679529148
0,129529431456066
0,124976529482942
0,130834517942364
0,128411044396722
0,125698710437739
0,127088281458182
0,12068388833582
0,124471059997726
0,124594568042329
0,124408105735217
0,122245928138044
0,123676084102478
0,123493903091986
0,123768606112308
0,125153727887937
0,122164119732556
0,120647050608205
0,122974525469161
0,118881604558186
0,12256619132569
0,12125960256363
0,122027395105173
0,120762459304222
0,118866284628539
0,121917970067137
0,12225045763927
0,119602205108574
0,118117698106475
0,116115694201965
0,124008816286187
0,112717491850088
0,120235190079431
0,115721624334329
0,122375913736258
0,115991078253895
0,118383006985642
0,117366409033997
0,119469414264215
0,115410747266327
0,115422466907989
0,117025860379235
0,116908169625707
0,116194907429801
0,114642074016867
0,116339798153336
0,115518769769135
0,113496360632656
0,115668604280505
0,114569244896592
0,117692658044248
0,115386216488663
0,116569052973189
0,113497508519834
0,116948545391195
0,114828756268428
0,117045745875399
0,115470163535555
0,112932673454172
0,111828435093724
0,112284793004854
0,115493313002293
0,11211278277061
0,113876639527425
0,111467293386665
0,110557147604307
0,10910272320109
0,113204941018748
0,111888183105081
0,11193614181011
0,112786459610403
0,109088597504665
0,110267865863258
0,108450016404462
0,109473755017088
0,109983476141532
0,108569177008312
0,110525423804318
0,107236681368132
0,110153120139018
0,110229362350909
0,111231585196123
0,104972506564522
0,118864847180763
0,105390073138563
0,110248519159443
0,104360769486751
0,107919039046649
0,10918224528983
0,105887910964005
0,105711186636057
0,108114715725762
0,106474284642979
0,108619853920002
0,106166494859435
0,106385741890109
0,105596868092401
0,10635135494119
0,106679988161257
0,104710653694952
0,10716577659804
0,105022207713703
0,105876802159429
0,105242850045833
0,109972555956853
0,1091510419255
0,0997098706593035
0,111028863958002
0,101727033869519
0,109381675314635
0,109893730516002
0,0992954134176808
0,109375115987281
0,099788941134545
0,106737902349368
0,101838551280157
0,109235574136828
0,0980850619762948
0,111912983890098
0,102399912792343
0,109825719362863
0,10227401984639
0,104696091262651
0,102680682744934
0,105108994856664
0,103148832142101
0,103874782415808
0,103328069771117
0,103734209644528
0,10351941938169
0,100510483490462
0,103895058622431
0,104782359585408
0,0988526260826213
0,108153305531236
0,0977189165881822
0,104452252157196
0,100131200494874
0,107210123645143
0,0975688630844403
0,111488804146912
0,101358869113981
0,103950137847448
0,10196815332252
0,100829880706594
0,100306560587294
0,101765614469587
0,100242514769435
0,101674098994676
0,0989362522255559
0,0987612963724585
0,102956430283534
0,0979566628731742
0,100974637737009
0,104501876030751
0,103004332679513
0,100864185207589
0,100235164032394
0,101618443781564
0,101835057209373
0,101196595170274
0,100460702789051
0,111727141287912
0,0989852692764551
0,104301588432479
0,100819428651383
0,101634590969355
0,0960356187303985
0,1022158027416
0,0947523241785013
0,104465060656809
0,0997444635377804
0,102105142008741
0,1018498507875
0,102743881880573
0,0994256677048166
0,100459783653275
0,0995399963136142
0,102069250935851
0,102367645169392
0,101553118922622
0,0977895216306011
0,0995234631827547
0,0986922034567539
0,0971928960833742
0,103554073494815
0,0952201385035316
0,104395566800941
0,0990542676471768
0,131637532720384
0,0851269905278475
0,107194688298665
0,0969801886012189
0,101322084841383
0,100832223660529
0,0992589274026315
0,102020054897731
0,101519886509891
0,0976213561982136
0,103227570422934
0,0971724444536432
0,101934544189345
0,0991162886114626
0,100183523598954
0,109950220706492
0,109553389679059
0,096993151814952
0,104420795680561
0,0963226970468804
0,116138248232697
0,0973664678710201
0,0971476445218452
0,107870153645989
0,0963047267976182
0,102429289950158
0,101487917936189
0,104997656631738
0,101904087537702
0,106489700839517
0,0986728995256007
0,10320610154215
0,103552886737061
0,102203477646803
0,105655626518841
0,1027436635668
0,108207657727889
0,103401309576345
0,102549036376537
0,108710355227285
0,098203766474421
0,107223019211468
0,102256013454568
0,105493414638783
0,101484746248418
0,112961256938854
0,102685762457471
0,106259151149899
0,113317475752354
0,101332038127241
0,103766317348925
0,109161546855744
0,105557919194794
0,111337231537769
0,0975431699460095
0,130992474271704
0,0953085853398277
0,115821544149414
0,109058433884165
0,104776799283693
0,111764693823348
0,108206551953449
0,111931601523528
0,106983914290106
0,119103837240824
0,100006447097489
0,119282534059725
0,101767871871998
0,129464289157829
0,104243258456794
0,11678013080633
0,110157083610935
0,112281455507535
0,108422669911304
0,11544213691941
0,104101903329664
0,121681264007321
0,128627621460175
0,113730513839955
0,122196849437186
0,108513594824834
0,12085603417033
0,133789271581352
0,105268985647158
0,121741973560383
0,114228630120422
0,122959249766593
0,11281401156545
0,129277225150664
0,119256504926382
0,114650314579629
0,12164848409842
0,12095250296742
0,118635226082225
0,138579627334995
0,118664031094638
0,126653610864201
0,124549791780081
0,136732197304593
0,120655730098227
0,170892152133136
0,113740190478841
0,154339902096258
0,127908180758622
0,143768588752657
0,13528952312409
0,142235236494253
0,134804204206406
0,148072668776732
0,145588985349929
0,142609372647527
0,142360996785139
0,166965851550981
0,152952117300467
0,143192009371159
0,155700504977697
0,145697452903002
0,15959652526486
0,183475075247133
0,178480579499101
0,162310053293296
0,160734077011634
0,159745838053596
0,180868065243729
0,157454901007002
0,172650261544983
0,163362001012037
0,171659314582369
0,168153621627823
0,174276453201241
0,182478101774725
0,174206244302762
0,181553253708081
0,176369039427468
0,187457915482914
0,194669852567671
0,202974644774709
0,194880027563132
0,183004122804426
0,222438063239598
0,188253507945096
0,198478719732116
0,194685773620505
0,202149772654253
0,213417273295034
0,202857788251351
0,210983075369632
0,205576951441195
0,232381740799658
0,212780043764695
0,222087273815969
0,227033015724533
0,227375071229795
0,241961820376208
0,224705695866279
0,386020925970257
0,230872904421154
0,276258242803247
0,257868809394005
0,296254490266376
0,294789168222912
0,297855148182634
0,299612116817242
0,318340023864503
0,317805467993753
0,339909996350355
0,342632726507372
0,352267223997571
0,369535961525414
0,372715438004096
0,37302320181022
0,417790079817721
0,391582055096332
0,438385403407042
0,432503622747863
0,431123323443348
0,446092544933124
0,466197669942307
0,458734819332946
0,483114222289049
0,469293592203088
0,504707541716868
0,529099020827942
0,522213762823651
0,523133709433211
0,539350219523435
0,576130828472418
0,538628191187235
0,614472856213806
0,593658024283893
0,601976985434514
0,607336657303715
0,621237429489235
0,650442668417156
0,62682354749331
0,692143389659471
0,678092528983656
0,696462899129656
0,693512792244822
0,717439519826096
0,709512089262339
0,724015117067881
0,735705425622824
0,745166108123475
0,753645724654985
0,758272964297407
1,01511206556027
0,79306424176619
0,757407957057677
0,786197016916005
0,747061057873006
0,822770673050604
0,758775023739277
0,86786827986829
0,826939015073246
0,813762551703529
0,808877580785767
0,805023262228583
0,801332986313546
0,811206819344678
0,823681690991921
0,796846867082129
0,806230797757285
0,822681971801594
0,823985805838799
0,904523716356937
0,81516489405975
0,824674748925479
0,814349121864778
0,826682912118977
0,82884879578672
0,841408846316282
0,799033029839309
0,836566095923614
0,771976572248304
0,81004380148716
0,773626155579695
0,812150056327765
0,785986601505763
0,754398045749313
0,726523213545571
0,712254585451396
0,710782720902875
0,719229857067843
0,740274654892373
0,773184383737864
0,660395214723197
0,685312842143691
0,664057249332764
0,663990075456488
0,642386052391963
0,654261151209264
0,637546218030463
0,637835022783723
0,620909593076301
0,645148538497847
0,61092931660862
0,62258786176226
0,612865253587816
0,6303579852562
0,607767066051605
0,613263070758119
0,603623463250968
0,596848375775901
0,593983835895499
0,604550897392679
0,589246184112496
0,592482003359762
0,591670148408352
0,593429640043407
0,585427360613249
0,592154272037394
0,581594909504865
0,596692838412582
0,587475074335161
0,596287241132408
0,597236073176227
0,596058210867691
0,59404959835764
0,603801975513466
0,597400160363898
0,593950429070557
0,597844726526706
0,601498425587178
0,596958915696814
0,591799723975967
0,600534742865364
0,582786439329947
0,631336281703335
0,612682158684026
0,583322241608908
0,59694882520053
0,584762708374199
0,597656699073545
0,579545238916777
0,633292246291959
0,611812068170972
0,588686421382226
0,590212633746732
0,583467545556422
0,591596733324976
0,601713206005824
0,573206224280839
0,597271638326221
0,561562392319226
0,625098050847162
0,640248274850923
0,601915363003959
0,669925444479716
0,605494052213763
0,575209047833273
0,579976284401705
0,624445070834327
0,582937261466083
0,594186499089905
0,594804672205559
0,615592171870802
0,60612319737569
0,586726081527864
0,5941406144252
0,578508815299634
0,603393679996279
0,600061809373256
0,59205843376844
0,593630852976596
0,605241751122842
0,567062330096927
0,614197375242483
0,575131253526293
0,584070997560373
0,560992542677858
0,566499745478905
0,562482953294765
0,552933719820709
0,594215066741136
0,559754270732748
0,549416219422333
0,539999988464038
0,526957675057965
0,538735676891107
0,531759726013648
0,534128281089833
0,491333916087563
0,55942690361008
0,501672084512096
0,513463188634496
0,519668680929733
0,526026570824969
0,492827474788141
0,487570283708028
0,484801487507801
0,497376237634925
0,500896970979473
0,473431063425506
0,479349481702427
0,46913980142176
0,454383780499376
0,476284217464151
0,441396056633473
0,448868705104597
0,443414467477192
0,449963607224702
0,46671568583044
0,459746324569504
0,433228636842529
0,411161396745881
0,406837867119836
0,407008934378453
0,396894404885762
0,403480688239824
0,393872645969376
0,404407418356486
0,399442149508183
0,375821211437045
0,416941180551645
0,380474634680318
0,380058466507257
0,386196728681431
0,383529666398088
0,387115920914266
0,392870055200754
0,393154862064324
0,388087267641342
0,37617724871546
0,399881922472176
0,378568116370307
0,392580740733553
0,38506129794865
0,397379535361867
0,390935307348989
0,408522663620306
0,410564994371518
0,409941904694771
0,417712323169298
0,430834966916198
0,425260527678344
0,461797456979065
0,431006678521504
0,47340339353454
0,458113299910296
0,480385749629851
0,479454494146946
0,470215494209702
0,489233696280337
0,4869273257584
0,496130611440513
0,501474792251032
0,504720299195835
0,535279826000854
0,515009411858872
0,526404455185483
0,525131168836523
0,541160057420781
0,536454891330377
0,55402321901571
0,551235358726555
0,545005581734108
0,593744490503009
0,557202307320274
0,571849605886371
0,566724636927164
0,572949866858364
0,574237981824001
0,57808774752613
0,576801402806158
0,56570353318423
0,605106513578814
0,586343816465987
0,576086754414813
0,585170472982947
0,589364954748659
0,596718778746995
0,597545236617752
0,600015660371224
0,607322563160991
0,602644019521794
0,593298510081415
0,585318106631662
0,650904871127618
0,623438929798409
0,617252318341667
0,624033686110257
0,62388048324681
0,632600613104377
0,621405169174046
0,64519029747166
0,652657762746195
0,639732991502811
0,645078295185482
0,6484698734218
0,659777301681329
0,654687611933015
0,673841045827049
0,658021900888908
0,673574209436659
0,675716153153741
0,670964029702772
0,716127344716281
0,671345306245496
0,705295663566193
0,686282881300947
0,690154632361816
0,686475468516536
0,704467621707801
0,705674490445204
0,707883602516293
0,708306925922474
0,698962522519476
0,705183339057897
0,713335159103501
0,708290220385579
0,710803243987415
0,736618581129541
0,708375559829257
0,708553813849541
0,71588077760221
0,704396273460896
0,70891967413471
0,713496252048308
0,72146524582381
0,708810251699361
0,711402323883196
0,711443953860148
0,736258585827327
0,725805074246826
0,721404549161393
0,715987078441964
0,715441882984778
0,713304964290238
0,720708157482669
0,720966963004826
0,749067554747243
0,712223269102287
0,713975419303676
0,725799656775692
0,724945935659305
0,723309530150764
0,73446838062665
0,727579791856568
0,732058230458827
0,727870715350511
0,734669031591617
0,734726792260638
0,734248354697918
0,734863042254905
0,73396677820986
0,738284655052972
0,730426663877765
0,721906882588978
0,725432404779263
0,723058287583996
0,735164378811511
0,724197472503396
0,716346008455523
0,697255596880038
0,700762427091398
0,688472132012468
0,702969211520661
0,69213784568362
0,688047818196249
0,692311459508972
0,666651865466373
0,675463931628453
0,6681525788251
0,668412217192258
0,666526783889837
0,663114578086951
0,657216980620631
0,654515583305236
0,649630808393473
0,650827341557891
0,647700262074281
0,651839158652111
0,644028584742399
0,639133466332031
0,6443500570835
0,648297391839491
0,648928622893853
0,645147585270972
0,638629254279248
0,641305361435878
0,643338435296617
0,64867657112503
0,64121324553142
0,636315252351983
0,635514778194901
0,649600987084273
0,629582988680024
0,640971208765284
0,636820608990485
0,629422505689295
0,635166125351257
0,638804104488896
0,632139994862304
0,637485247840445
0,637310862882019
0,632637946983939
0,63501305770855
0,635773626418211
0,629198468505503
0,63422056056475
0,63362463990564
0,636383939555193
0,636902224239395
0,627572920639483
0,642134774954789
0,634978768698895
0,639453472228971
0,639609978607633
0,638628511876395
0,634006287141802
0,639979140084089
0,639811037715457
0,634267620681467
0,638596580002898
0,635231799380618
0,636921969417666
0,636498713817932
0,630880473173741
0,637335652408477
0,633834724838415
0,628519310644878
0,623938284129806
0,616762871626126
0,61425301315886
0,613520505791314
0,613280431127802
0,606531973460568
0,600759800227996
0,602102541844884
0,598403351673379
0,589751016020912
0,585564187455001
0,58812867215378
0,579761635524532
0,576709529021433
0,583040470735437
0,580617964989328
0,567867652554365
0,571113612393136
0,57529516921058
0,569834335792396
0,566542101703049
0,567824372497344
0,568802172336541
0,570230162268777
0,562935217445827
0,565414784083258
0,567673717108827
0,570144618852805
0,572581845660995
0,56537540788999
0,568921677271628
0,574991331901593
0,568439415947196
0,573223339460699
0,574240834249548
0,581729001188619
0,588479140672016
0,584390674464401
0,583739560074179
0,587237513228927
0,58817643685702
0,591396544412482
0,592019564235852
0,589950191266307
0,593286633332504
0,595698110946017
0,59567165668493
0,597688221989166
0,597414622359031
0,597977908077136
0,601589282837653
0,601718220862389
0,594694078655225
0,594969707233386
0,597673578382634
0,594534880606078
0,603147973439129
0,5936230669738
0,592490145200567
0,59396825055761
0,592988437265624
0,588572530347707
0,590731203782753
0,590371183316994
0,583510339453048
0,579933643683284
0,582678996429431
0,583218973128901
0,580291011831277
0,576428783765667
0,577990776004032
0,576785831836911
0,575551900150423
0,571795023913291
0,572429269618324
0,569912810887813
0,568043182513905
0,567130893882085
0,567191813860058
0,56544809431333
0,561634167908036
0,56205230668648
0,557563099777099
0,560095811852405
0,558012497689013
0,558694194091707
0,554623203283978
0,551502268072467
0,548026635652325
0,545402637555595
0,544858024501366
0,538413589251245
0,536704376196988
0,534593218009336
0,528812994755853
0,526315951139165
0,523495769298831
0,516430081760658
0,514713148461527
0,509914792334094
0,504723759114409
0,502186781343791
0,500060914294192
0,499204406083197
0,498098826179414
0,495353730556827
0,494584083138647
0,491935277889442
0,492011568968513
0,490092763948962
0,487917648683934
0,486447376385465
0,487406148278425
0,480224914944737
0,475974373839978
0,476005788396583
0,468971838798188
0,461743086979445
0,459412963467334
0,454766593900321
0,448879688385881
0,444979869393974
0,441357991842329
0,439505401803216
0,436409561693351
0,433944499871529
0,436003757167335
0,434791402228906
0,439305662213272
0,445454209556616
0,449390100542181
0,456887733959415
0,463565413518927
0,474541100701322
0,489363243786487
0,502518719584462
0,517482149102256
0,531797001054548
0,550043566353021
0,568646536291052
0,581712620903583
0,598239436968285
0,612056991228322
0,632493439600295
0,652420852643556
0,668820222103468
0,680229839482612
0,697718789804545
0,710862317535096
0,728718748731546
0,738459045691316
0,764569392754485
0,774526426330698
0,780014119830056
0,784610262572361
0,804933906353787
0,812238395085623
0,825378553934849
0,829248415372284
0,84197637081287
0,849259441864091
0,850087076984028
0,852230296886258
0,854046987502199
0,857533058607432
0,861973056664871
0,86047876438635
0,86633778054318
0,870815684437294
0,877075646367715
0,869807277881477
0,876670460991602
0,871159104383241
0,871398397569746
0,880061129246699
0,881666079653639
0,874448542910667
0,88407715647659
0,883767809561306
0,895385673456964
0,895467952566432
0,903589364075361
0,915425060431716
0,91568042519398
0,920901179178046
0,943748224086072
0,945967954922794
0,94951728313882
0,957544004376252
0,973601117706261
0,982226397866387
0,997987002739142
1,01741444447501
1,02614050570631
1,04314908338582
1,06372360314495
1,05782878782132
1,06712073597706
1,0826334419374
1,08384424939097
1,09180003806856
1,09973930595593
1,08895054853103
1,0957079948232
1,10459996647619
1,08580165384951
1,07167823267819
1,08258865734581
1,097496792145
1,06357141623284
1,06916409534709
1,08138096363585
1,06291711253338
1,08964515580933
1,09291556884043
1,09742132689963
1,13200801721874
1,13573398240505
1,13838759858587
1,16148691360719
1,17099499977621
1,1907624944993
1,22827681452914
1,23718505306352
1,2370967873073
1,28503795491755
1,25423820513966
1,28289283469845
1,29889461316207
1,32334228998558
1,33847925645529
1,35046998738308
1,37413254836053
1,38830968249077
1,42991218371791
1,44942582556852
1,44698894335231
1,5214763853246
1,52513645530629
1,50768060615156
1,55292293192308
1,54048697761828
1,59949926579563
1,65063919823101
1,60700633837659
1,65250897576374
1,62368927199447
1,67577680565763
1,65253779816969
1,6604126394398
1,69979535541951
1,72628878302253
1,7151483770806
1,75596737192933
1,7491739480061
1,73861687412809
1,71022566834451
1,75769571515885
1,68968595858992
1,75944084310981
1,72526354638074
1,70948899881035
1,66815348828108
1,71756863071822
1,67898932974416
1,7133437647308
1,69757453483011
1,74420283198525
1,72906036091117
1,78740180549332
1,65417750130491
1,78409925342402
1,75293806751578
1,83798738581509
1,7829207011153
1,93039626884512
1,79806689527746
1,78602211234924
1,87446623102994
1,92820391756805
1,86954861795722
2,00881337279952
1,97713185831038
1,89372084365753
1,97558000025104
1,82672481519307
1,89333496863871
2,07422194788296
2,05433314045597
2,01710848014618
2,06230539969858
1,99971732235428
1,99541730749619
2,0469743454944
1,86201800049274
2,04675202343999
1,9521692928876
2,16221070579733
1,91198044645973
2,09742448882483
1,91551427097575
2,02196526820826
1,95353055222629
2,26908875656805
1,89965907734328
1,96183919508297
1,97177373939
2,008552640595
1,89464535586346
2,06551821011629
2,01420206859896
1,93569338418998
1,81550264495369
1,85787380030194
1,71163457973026
1,88669730981882
1,66200131723411
1,67647735686891
1,64717282296964
1,67490306253708
1,57846644484066
1,55936705976522
1,49585326133778
1,50648503546378
1,51206929563277
1,47352838887737
1,47067382866597
1,44753987938775
1,42934242603483
1,46110979857066
1,40681600770092
1,45740209035854
1,41575879008791
1,46781174788175
1,37602475116959
1,45829050978548
1,35985180930018
1,42648040521985
1,31180168449807
1,34841269007173
1,33136592442062
1,33177462600908
1,27866082755616
1,25163832153212
1,22181176068054
1,22587489505389
1,17716635397055
1,17149271334241
1,13834481804006
1,1263712869634
1,05562331711531
1,05766769176976
1,01442303554594
0,977325288795397
0,946149598792597
0,91685646273543
0,892265807130424
0,867110322721784
0,849938164541541
0,839088105123833
0,80551644158661
0,792462695964595
0,75464466956471
0,733557634743338
0,72895270464382
0,70899621986298
0,701481091217611
0,703918134973929
0,685543005359085
0,677175426366402
0,680851744433275
0,672121237065507
0,670514829680391
0,669230845228864
0,651216118576234
0,660004405348158
0,657490792771509
0,66167754777853
0,658445286621756
0,666617941018961
0,668016758162763
0,66518550759392
0,652526828311032
0,663134491769022
0,663771947229101
0,65192471244802
0,648519257361173
0,652468579471913
0,640290923746398
0,644738636119385
0,63896552767042
0,63517025419242
0,631954556686315
0,626646656372496
0,615768269938941
0,614237384804442
0,626735572671184
0,617962007364975
0,617709095201379
0,617333868229457
0,618240341489171
0,619876883752804
0,618166891202336
0,626338877268719
0,629913471241364
0,634158092215121
0,636811115640248
0,635260263917396
0,636715715512242
0,648791669834535
0,640690952081085
0,645680183785201
0,639820106027752
0,639398500646991
0,648214639237704
0,647331801501395
0,638810786691688
0,661045309671577
0,636341210938358
0,652696808382479
0,646416372367803
0,644824173890249
0,635362982621107
0,645827431018744
0,645036143788841
0,666634523650471
0,661151512753408
0,659137987841337
0,68068057858891
0,675899424198774
0,686860401569773
0,694364329878102
0,701512376361047
0,732915400822789
0,735462341220546
0,76033066411456
0,771888518773275
0,784697612069997
0,78515784010939
0,794301958605851
0,791005648559345
0,791539045342018
0,770223932708487
0,788580967281515
0,784913170426287
0,773382641654329
0,767475681555542
0,761307343674238
0,75037227210945
0,747925937476275
0,75210087364668
0,742672482838646
0,7182322332321
0,737364930394011
0,733550152588303
0,746228825690319
0,742948473513568
0,757552941863131
0,728779935067167
0,76909583799899
0,754469193018543
0,753421370032969
0,728279676611565
0,740922814950958
0,746547533236689
0,720592815038404
0,705093179204637
0,736863263539989
0,719184766646734
0,718145990723549
0,69454634426506
0,716338014488915
0,706961976922293
0,704999495654276
0,695660613616358
0,70647134737641
0,707969565050113
0,707112483441925
0,677058309770795
0,70567686584431
0,686195702542337
0,692669102950912
0,693251930741048
0,689587155382514
0,686796748384759
0,714519162707597
0,673575734945317
0,687956267757234
0,674133129461856
0,681123017745367
0,689002759547049
0,680364083306827
0,682582615448875
0,672582463121445
0,672912212909951
0,673186327907825
0,677754776448985
0,679491111487813
0,66298723725445
0,679157445768765
0,65722312981169
0,692076808859508
0,661717069057938
0,682820855738468
0,654619557492341
0,666732310503693
0,682444189287416
0,663703579482393
0,667720897123174
0,669900269469169
0,668759229084357
0,680256438989321
0,643442228780661
0,66880542087008
0,668398996807906
0,684720692256437
0,689024279047038
0,700547812441657
0,648729589348154
0,699065665308532
0,670609911334096
0,70026281511734
0,670518279832684
0,68902633828657
0,667764226895236
0,723733357989551
0,688336636212767
0,681659359627407
0,697655796879146
0,72251504518301
0,706915148190413
0,718578052233422
0,698773282074414
0,706615327117239
0,725292797873402
0,712462979096121
0,732136123530348
0,768054667605626
0,752627474907288
0,804047375732182
0,77043276103659
0,788588766065122
0,772363354793654
0,800446059937695
0,796760632516283
0,805347363798536
0,824234328028083
0,852435262485417
0,817648435858798
0,88982288951233
0,888789289866156
1,02404923984025
0,888517638149066
0,957302905342841
0,961757881910145
0,962506096009085
0,986436663987706
1,06843831683768
0,958852282881064
0,994121525126517
0,909708831592207
1,00093439106897
0,981560841697993
1,07782548352747
1,00021556218385
1,08630793082302
0,962324084206488
0,969615768505593
0,974258392448421
0,968496595259438
0,913967961277289
1,00606982168441
0,99449770267108
1,07693960249674
1,01257684373216
0,982078366851637
0,963217695635152
0,981957766704903
0,927280175704491
1,11439302472728
0,881223603610481
0,978241744781908
0,990893521207072
1,07666186181928
1,0508404835414
0,966338211594883
0,945329132908641
1,01953481066428
0,909837043485167
1,00044267979539
0,875931276731192
0,925155280313368
0,910804279011608
0,958740214232881
1,05536174913229
1,09110398349398
0,828648417920492
1,06571868800022
0,937398337805044
1,02690081381758
0,952348214007181
1,14135198723778
0,908101296671484
1,06065272133334
0,957118559501123
1,08055527071921
0,898763271703772
1,01767838298699
0,92837737571562
1,11187150990853
0,886140181689347
1,10734513357487
0,976277285929855
1,00055271404844
0,897805325001564
1,03731261531289
1,00537912614877
0,997882090251773
1,02259097479558
1,16897441296384
0,986355047992786
1,29968359949525
0,932511701370563
1,21235781675767
1,00272525749229
1,30157932818914
0,918114636528129
1,19243356062292
0,950178793214787
1,3038588741566
0,942764148599495
1,41229152536046
1,18129559597113
1,00242292928434
1,1165615297219
1,2000696603716
1,08306284544241
1,65288470087843
1,14266765194905
1,2875374878488
1,08380519948001
1,38961207928971
1,24713016512288
1,47866462972591
1,00608606096531
1,91454346949573
1,20088265502679
2,72084371835916
1,14461919884657
1,23800298342035
1,14511700461414
1,31676767741019
0,97777791268904
1,29003310411698
1,00997734051825
5
2,0563002030041
1,5031908680723
1,24977054486339
1,29367465698849
0,940084657829428
1,20601523085678
1,13499492682219
1,64236470873679
1,01504209756665
1,4052821248802
0,914126597764733
1,43073742789885
1,26818778664762
1,98795194678689
1,10089605444359
1,2153497068334
1,04939244798547
1,23064408408726
0,718226268581913
1,34128167319762
1,08849711740323
5
1,48679066586373
1,66346403615357
0,894047165646999
1,80705246902168
0,879185377623986
5
5
1,23118247639666
0,602180056497035
5
1,12564557179405
5
0,98534562361499
1,19713840700261
1,18990422370592
2,03536342150444
1,19354155212136
1,501874273756
1,12584560642542
5
5
1,03893829841466
1,0951518429854
