3596
4000,36533379555
650,420452594757
1
2
2
0,0549028262357674
0,0491185138530839
0,0439309241772698
0,0404150705282037
0,0397353715388175
0,0571645800829224
0,0480020631461544
0,0400223580859275
0,0469533841531899
0,0433747597524889
0,0396782424065842
0,0451750850123111
0,0481002399645744
0,0520273013609596
0,0470900748657249
0,0564704826932312
0,0372817598383818
0,0511936587049215
0,0478943930738996
0,0511589506914974
0,0442928076816338
0,0427585623466289
0,0406797101398354
0,0559599353901963
0,0498759886839066
0,0562308122267625
0,0522263654826429
0,0520814916478843
0,0469325950948034
0,0461880447841936
0,0496515389761678
0,0508102475298502
0,0435660673498192
0,0531244159045652
0,0389070951425154
0,0524250701527915
0,0447190506544707
0,0455726204731735
0,0506024870652454
0,0380498012090927
0,0362280953750824
0,0468596228823158
0,0413901317201868
0,0517591885300219
0,0478716246806085
0,0445493485193205
0,0383492147104264
0,0450210748968757
0,0500359490695889
0,0549606678752038
0,0459086464505805
0,0432399144792523
0,0505877705666698
0,0410129775136443
0,0545074398609979
0,0522071669591182
0,0497064714564678
0,0542277267062493
0,0425704494344362
0,0494253163455899
0,0555249832607457
0,0340099627694926
0,0457953208229418
0,0384210384545749
0,04730027123898
0,0353212552076726
0,0467984429533113
0,0341306083944875
0,0584317598287383
0,0375863866125373
0,0483511687950427
0,0552025547802137
0,0297828638429916
0,0478393066070641
0,0462187063538205
0,047093874450694
0,0545486183504075
0,0398992713338809
0,0490750128672131
0,0469231010808447
0,0392371059067195
0,0395812630412697
0,0372578558568281
0,042992238142772
0,0740544149846427
0,023173811481262
0,0496163456885913
0,0484514939106775
0,0448070626215811
0,0349668827856892
0,0341732465231781
0,0344159440032339
0,035121991817526
0,0465074183390897
0,0456670815040704
0,0440015671238879
0,0425945982354377
0,0459599004129035
0,0441723212465721
0,0630284917930002
0,0253629325439985
0,0873212733066304
0,0139712090414741
0,0717413986725715
0,0363450279897081
0,0248941013805189
0,0643721417882303
0,0073077141925575
0,0472230862552897
0,0241431058765294
0,045800528537488
0,0366110514671759
0,0557182420916901
0,03067149389433
0,0505253121099282
0,0512961850344709
0,0310105093256903
0,037853609712268
0,0369849759036208
0,0327381347833772
0,0411299309694903
0,0653315476858097
0,0112776513166477
0,0474582311932713
0,0416541240917593
0,0344947030877051
0,0450050366761485
0,0467348485779024
0,0160161579462285
0,0452697630626492
0,0252442808479921
0,0395705180702408
0,0281997657157752
0,0658988754837786
0,0296335250752325
0,0426086289602619
0,0418457809227215
0,0469199978323056
0,0795875501905792
0,0228035141532815
0,0320933799605109
0,0344177541617846
0,033950047735169
0,0467996061247104
0,0337167425389062
0,0382033758477679
0,0549615236998849
0,0440939630580152
0,0329068337047902
0,0508554592488596
0,023910509242894
0,0475249610046178
0,0424305865460178
0,0359753803584205
0,042478041052641
0,0781862501044454
-0,0200223731732289
0,0814488140748214
-0,00333168402631829
0,0457716555469697
0,027408806279525
0,0409539094914914
0,0398879204756561
0,0435949510110594
0,0371593858988364
0,0278011700505638
0,0588321003746942
0,0233196511755585
0,0463863145377144
0,0405975410861927
0,0441616489384461
0,0207400824387468
0,0698726312263065
0,028221354579018
0,0304117597597728
0,0598505610057294
0,0253872542371861
0,0308110313717462
0,031931126188484
0,0578471454325682
0,0294551275601092
0,0355975627339949
0,0337705737893471
0,0460289767141321
0,0399603507883846
0,0529529927376533
0,0312159986508761
0,0476246862949595
0,0216692310261978
0,0496335405217924
0,0489033810102275
0,0403282518384609
0,0069040381431966
0,0476564242034487
0,027947478912119
0,0509588403097401
0,0423236649961624
0,0324203096000197
0,0484792340715995
0,0326442662604263
0,0395198088738391
0,0363861868335978
0,0333373924910073
0,0459678424673489
0,0263313003218229
0,0553688290331047
0,030502257031912
0,0292438003349167
0,0422172311382658
0,0339172063539669
0,0443248298800399
0,0516869919019587
0,0788847006633798
0,0145525818498503
0,04329593206835
0,0289322381033048
0,0536624422752773
0,032945395308602
0,0230624014281239
0,0351702498049591
0,0345131835373447
0,0342010355027858
0,0367650007923591
0,0372016836956134
0,0405867365955684
0,0315538802775179
0,0385431156267483
0,0327344295342489
0,043396420935232
0,0394426831721577
0,0375686638289636
0,035364797382303
0,0444861434492866
0,0357973115505181
0,0377483355989832
0,0601432149716993
0,0315015327545222
0,03514701738195
0,0388435619376723
0,0398682852827121
0,0371079297710493
0,0353972357338755
0,0316342615738135
0,0449849833886463
0,0361983927549906
0,0550920312351708
0,0388047875450144
0,0355412335758765
0,0407020588193266
0,028527992604286
0,0615597665894607
0,0145599658491672
0,0545709243883795
0,0305265159495921
0,0553977032256767
0,0216771932698456
0,0750555328987123
0,0159640475925864
0,0325163926834331
0,038437542101754
0,0561711400993249
0,0213599656246612
0,0513249912713133
0,0344488636004616
0,0891182498178831
0,0418119680154633
0,0224491626663802
0,0397401565760355
0,0328770649649873
0,0260432233039838
0,0564737749099203
0,0202924468909036
0,0835345772305478
0,0358865853749353
0,0390714483916936
0,0241074459592128
0,0590434237019826
0,0362081779931419
0,0467818674440367
0,0534124288316022
0,0292803322909444
0,0633258518706741
0,029284535350742
0,0458241929820818
0,0447926690317605
0,0352274279309077
0,0783160649118003
0,00330497723158219
0,0474470004818354
0,0223880155990813
0,0483726359660583
0,036456089575221
0,0755627585491394
0,0307170184064343
0,082552241637925
0,0235244917328711
0,0828827427059018
0,0425735039233085
0,0514145413626742
0,0320753555978288
0,0672868162427358
0,0306368246732765
0,0491174072964122
0,0437826780852603
0,049902814213475
0,0466481051193919
0,0431570802497337
0,0570529412573725
0,0688283626489332
0,0333646593403201
0,0694403600975034
0,0309891673677309
0,050010222586696
0,051053216735891
0,0505747297468084
0,0448933067758839
0,0502286829085903
0,044275895001805
0,0565032661794715
0,0391676250937234
0,041482849893398
0,055810080787554
0,0500544187275592
0,0473168510369151
0,053934612461365
0,0533196446708791
0,056046282719538
0,0541820398029722
0,0584098270942963
0,0555809294941068
0,0962126920628539
0,0498272400824708
0,0608233129819222
0,0737731745454791
0,0420558791219501
0,0540622381940497
0,0532107763335136
0,0560744197237387
0,0588742293922169
0,0546123230228278
0,0649800617058309
0,0595073023183178
0,0669311576129096
0,0584596341971388
0,0715498219080684
0,0755898613032969
0,0839904101524547
0,0933590654353232
0,0755199367762997
0,055617455445265
0,0761983378169314
0,0645623326577534
0,130145723570668
0,0417725314606176
0,117838854692862
0,0473098434583457
0,0735204711156543
0,0774637812187407
0,0829215391179338
0,0790957809893537
0,0828340535628378
0,0865980987017206
0,0794548953416634
0,0914500277245056
0,0885616048693038
0,0977811035926474
0,0872445098197913
0,114033145022344
0,102309132639626
0,0885589857562517
0,109963988397276
0,100388215596817
0,108385022731265
0,132150469313191
0,11587533455494
0,145854769544074
0,0972303146563062
0,139172520784461
0,109839921869781
0,0989612030343529
0,11849009727131
0,112095502485268
0,138056641219114
0,119294648962389
0,126499992948681
0,131674564213337
0,131155704392802
0,129191781132048
0,14769875666149
0,131736271443596
0,146187307666407
0,135685614216041
0,169174545643386
0,129235759331735
0,165826558658787
0,153878775901893
0,21506385302114
0,132172292317909
0,186701377196793
0,132317096673702
0,176659003391855
0,150807950691503
0,189983651807528
0,155646458675078
0,196379002372928
0,173682110984822
0,200080483071488
0,183206791135795
0,188532743881806
0,185661943766028
0,192084890848731
0,163524155018406
0,225798788242387
0,192143221567212
0,230946668681182
0,183012268349051
0,225150798869771
0,209378575928955
0,260034123781592
0,197568737729445
0,245482769134847
0,203348294977677
0,220455361676
0,226223492156665
0,244061924603807
0,241845607169766
0,240515943944795
0,250072982667786
0,249197569226149
0,241227834689607
0,253315802326439
0,242475841436747
0,262267415567685
0,254602093559458
0,259446390475212
0,27609538681695
0,279086258191736
0,259370208825137
0,297842085417735
0,267009421135326
0,332588140116342
0,266162287561394
0,330421438438649
0,273836965174602
0,289357090703509
0,286561407587135
0,300664560280278
0,308436886206608
0,322971456461252
0,320776192862182
0,33808795427626
0,315527768967527
0,347615792252862
0,34292332677453
0,350058970680754
0,331754809313382
0,357919603475582
0,353052567173739
0,373796740007367
0,352042541049681
0,376882763951332
0,354329753796759
0,434442545307513
0,394887335397309
0,440953307748523
0,366271844687047
0,377845527902604
0,375920304543075
0,398964109274799
0,366804912248338
0,413284696192742
0,396570850920029
0,455865624818779
0,403279586407312
0,428995418212469
0,437940069566557
0,4428002242194
0,427652643825523
0,460039743274158
0,440706003869025
0,451223955893059
0,40829838464362
0,484898560668508
0,451193421169101
0,491542160008685
0,480204392746763
0,472202960394274
0,49474675783384
0,500134596528082
0,48585604008393
0,512505046430458
0,471263344111667
0,522302859011195
0,47993675679285
0,531048826766014
0,492033860429737
0,540928285274941
0,502638573672561
0,575006869614886
0,527825930654476
0,577053445265002
0,537465637770498
0,551017316340045
0,557031960798575
0,551792452079888
0,573672993007947
0,586202242695983
0,55380885055872
0,602973361932656
0,564976175308127
0,575826068899036
0,572729246356331
0,615889374419727
0,591318090381843
0,640195151205317
0,596314525507789
0,609316210012143
0,59904706803567
0,641042712794807
0,61053895760375
0,651952725947427
0,625171514129018
0,694869951886611
0,609629471192301
0,664260056186557
0,669002353120696
0,695795625722437
0,655783975779917
0,699577346233452
0,661630261643117
0,730495930564985
0,667134658466747
0,733658751602966
0,661160331325411
0,743721789190979
0,705610780454036
0,718911107416143
0,674723362965788
0,733946881246379
0,769468990540059
0,780077932786133
0,70462460132869
0,810160501321174
0,711498256556181
0,789865407639333
0,70994887055678
0,804263947648042
0,787972901003872
0,799153972226711
0,77900826139078
0,808153654805875
0,782966586405378
0,858878617340093
0,772568636959038
0,870617138543143
0,799395506614282
0,804622141777592
0,803380705089483
0,848479221508385
0,794601181734405
0,883412262485842
0,814086091135164
0,914712405141183
0,881008725473989
0,904845510686951
0,827869915532823
0,915783473091657
0,80525867729547
0,8679661899019
0,859964440928852
0,93414528275138
0,887790151814406
0,973723245402133
0,86345524779598
0,907370196036138
0,958400189218022
1,01194426555133
0,923546673543196
0,909594653809766
0,894932896181795
0,997099180579737
0,98085087412725
1,06235252581724
0,990130432095903
1,01727102463027
0,958270496256273
1,02610209243072
0,942541556940195
1,02845857690776
0,993011983389856
1,01552861964072
0,94173845974024
1,02961993428045
0,941278313948301
1,0003835335329
0,995725909343157
1,07787012310435
1,02608583675633
1,10599193834734
0,945865665684839
1,06663924344614
1,00295003770501
1,09251493868818
0,997021514596541
1,12601553318155
0,998444459752582
1,09443722003158
1,03624707883039
1,1404599184095
1,09095422970264
1,2502706622326
1,12647011765135
1,14264997329157
1,09253878583309
1,22446244257747
1,1511428794304
1,14320998761143
1,08992123415488
1,31352205262972
1,06244664555569
1,12032758984072
1,11652230570405
1,20315652236549
1,12879523751487
1,16974914784117
1,13049724982441
1,12789321341116
1,12300562329363
1,22737937526556
1,11923214529197
1,27273849917204
1,1483680197333
1,18134496002892
1,12838568758694
1,24246231708716
1,22171819517081
1,32382578309772
1,18386111085351
1,20275431705596
1,15755182698479
1,21853479737996
1,08150735562966
1,22090262403856
1,23746809622386
1,36467199539058
1,20147744389788
1,19925232353403
1,10620186098074
1,18376908257925
1,2294594431735
1,29076499765839
1,18471315327169
1,26728097011633
1,22755033222515
1,24867549727045
1,22479028748387
1,44551772195269
1,24492052749144
1,33440009867303
1,26733444343949
1,37638176704489
1,26502488838775
1,34767330366946
1,26012042434841
1,37476514668952
1,39887964693606
1,42143122878137
1,23812484584295
1,34834915022796
1,24128486356439
1,30626652530843
1,27964322375369
1,26856284126727
1,31481698541156
1,30041840554667
1,18590017119605
1,32121182574381
1,27106234181811
1,34692625738119
1,29982582031903
1,35974149483068
1,38449207780062
1,40465119555372
1,31364503876989
1,41386244077835
1,37121875084464
1,43765998687331
1,43098590796575
1,47048766459785
1,30699442767209
1,41892060355556
1,46504773130483
1,50154303845383
1,38983209344804
1,32684191095293
1,27903995288413
1,39685374280965
1,30298632640214
1,49459753716273
1,50171355530761
1,36612034377955
1,37199544898808
1,56151517593683
1,28750140481663
1,32141513030639
1,35033320393294
1,36149262488934
1,3230696335447
1,36291480409756
1,36748701369003
1,44865681273163
1,36146538796423
1,47254155709119
1,48234781158069
1,38967376973944
1,2313209161112
1,35947895613088
1,36935934758695
1,46989860855119
1,36833267311032
1,45480061030726
1,52518517477374
1,43124672500704
1,37062291003359
1,379696753702
1,35465643526384
1,37964461661827
1,3676491376726
1,54807322879641
1,45140612422193
1,38855587330408
1,36927232226701
1,44973566533969
1,51219371364463
1,4835186145506
1,36146039553827
1,35575136203966
1,37523650015971
1,43073973366825
1,42687802276446
1,43234602018142
1,4645342627754
1,47704856896702
1,41937739065184
1,48362635756353
1,42726216985643
1,57427764758417
1,49735722726054
1,34809229339693
1,41693136226734
1,44292944975508
1,365889343005
1,44796241957673
1,4469593275692
1,43021120010698
1,35301365633411
1,41743892570645
1,3634118897718
1,35585902938715
1,32285861678977
1,397259105975
1,44763295495035
1,48579668503032
1,43132928851747
1,47688032630729
1,52212172556285
1,41374838537028
1,36206567339305
1,4436713544903
1,49905340778913
1,41094788406013
1,41012744947981
1,42017990778037
1,44030799902309
1,39344141287257
1,319993651241
1,35193682995013
1,4250257648337
1,46346408505803
1,46854956403929
1,47818043728766
1,38569130677388
1,38346430459565
1,39634762657109
1,40077114063739
1,40800376843059
1,38726652256143
1,47887352577308
1,42736174344083
1,404075950563
1,52772739932873
1,43900499902332
1,36315039201722
1,41440184243128
1,51203491155359
1,42888940393468
1,38467026864483
1,36631769429094
1,39003801438768
1,33871982003308
1,29566089655978
1,35038987268341
1,36235222747662
1,32387000224674
1,30912485107488
1,30589978937991
1,3055372632677
1,40075762857627
1,37216096061395
1,35921169509156
1,41295993175593
1,42904861813213
1,33042528766995
1,28944088990134
1,29725808908378
1,40322039924221
1,38370354092547
1,28663653682283
1,32837549608109
1,37640996691901
1,34382541242908
1,3490204438285
1,36402176422249
1,36605952262572
1,34752191922219
1,26973538125922
1,2784189527282
1,34520160168586
1,31486869016016
1,27510687964767
1,32024460074356
1,35210216209624
1,22833175922497
1,28821476395415
1,28075797213571
1,30408240531696
1,29671898932342
1,29736887744039
1,35974335216068
1,37076078508471
1,24388205189217
1,33031372464075
1,32209678629924
1,24649152741519
1,26952467267229
1,28477498487419
1,21046388291771
1,2219891739757
1,28441694566526
1,34826618652202
1,30674012228197
1,27030771899254
1,22251286695711
1,24269489376581
1,26386081818719
1,19743532408125
1,21374733043361
1,31327257426401
1,20869136022191
1,18484109766727
1,19529346381528
1,23717420339703
1,24285297226746
1,26635799240893
1,21996548839232
1,17471717044011
1,15572737669413
1,19480824882613
1,14940058529928
1,14453769573368
1,18468020441718
1,16435681499298
1,15634088375238
1,13941662761388
1,12098977155316
1,13283963317679
1,11618902463598
1,15142407355541
1,11380372759188
1,13045220405263
1,127973404177
1,16201593309818
1,1269271381955
1,13746203753333
1,0826307624732
1,09594988246189
1,13043479655022
1,12920886969039
1,12610183326364
1,06026338841783
1,04065416083484
1,08914698057057
1,06479036428223
1,0916112371
1,08149398741614
1,05954061849767
1,04911554803345
1,07421296452766
1,06160674068076
1,036830562534
1,00764445110489
1,02800724250925
1,0208984719724
1,01278787026825
1,02450359289787
1,02056821088397
0,977180070125196
0,973268440120315
0,976557411748152
0,979175882568212
0,973745979184602
1,01578355335573
1,00048245367709
0,974286815969658
0,97085984377164
1,00683624469796
0,949990580986888
0,948790826283527
0,945593783224677
0,960225790109961
0,939909684076805
0,918555525195857
0,915462210908113
0,934199775071049
0,931118819979545
0,95482687593708
0,909172167980738
0,907948303093636
0,925935694354688
0,890127777456907
0,87500438775084
0,917817537817826
0,886134626986102
0,915427674334476
0,888093676472238
0,885281191862552
0,862745909857074
0,859307934306842
0,851449569145045
0,876013400707653
0,855868251426933
0,870097132633814
0,852763955337532
0,849362954393915
0,841381492399114
0,825912570494471
0,817861685168609
0,831540421596095
0,811513719790255
0,811599596574589
0,809317420072888
0,838874577456711
0,821512091999101
0,803776531706524
0,78912204346345
0,800741384852971
0,801525337191422
0,785164602340424
0,781715960439807
0,781275409012146
0,767076003871006
0,792092139142587
0,763160996863282
0,766026851383834
0,762078010018835
0,773086482562139
0,755109293408522
0,760214015486638
0,742555245215043
0,740208459790591
0,740972812872361
0,743871273071364
0,729038631876977
0,731451012019943
0,716905967021624
0,71188292104882
0,703454721648957
0,72204401256396
0,708140675204557
0,728937005100876
0,695543237459692
0,694409721142227
0,688341190700782
0,700736973376363
0,679424840997422
0,695681290075773
0,6859436176881
0,694522502606078
0,669674137179284
0,677035238712679
0,667297246275889
0,662375446205229
0,662974103610983
0,681515651441519
0,658751365143848
0,663292389819836
0,655433881772244
0,661154551903265
0,648700918425911
0,667802524761767
0,638733914541029
0,64719258172654
0,643874498982631
0,632327521088926
0,622993177698347
0,647451631903207
0,640160679900344
0,623516628348331
0,610710645937711
0,630634383228491
0,611825064295677
0,610635380540704
0,601778073408715
0,596833461516763
0,59540464012033
0,589038113357367
0,573395855123607
0,591139452802109
0,581283442919381
0,592460381166292
0,579074355856121
0,580539613218084
0,575373196030125
0,564672576179998
0,563425904266198
0,562507690129615
0,564283680482379
0,565575782451322
0,549376792167214
0,55412681957134
0,548315458471713
0,543346370206773
0,536403989276356
0,549306393717002
0,550425001884039
0,557855555184332
0,536886942272897
0,537498216743642
0,528824548101093
0,524849820654675
0,523984552031866
0,534185491651418
0,515538990118484
0,520544331359254
0,523802606049424
0,524046792996236
0,517206809245616
0,525455745401866
0,498670328814563
0,511313498019433
0,504229093468156
0,49848536149894
0,496897512628298
0,483908164536551
0,489716353905755
0,503828633186313
0,482709076453295
0,487651504742804
0,484667087957522
0,488977261772125
0,484755499359531
0,486359290268344
0,476018989120644
0,483592336041795
0,47271449794821
0,481837851024853
0,48157192695676
0,471490787312811
0,473491755409083
0,484093837536153
0,468958647303943
0,458952649712074
0,468589954359134
0,474969149023408
0,462748069685577
0,470450820329625
0,460153256524101
0,460395431480668
0,451596620282472
0,473624619647932
0,463553870765983
0,468395112863976
0,453601163550277
0,464707967540674
0,464475329900524
0,473207993407953
0,467075928209617
0,463491144486068
0,454883863525461
0,471229457120173
0,467340405770226
0,472828540770747
0,468859722944138
0,481565864270142
0,479100453589659
0,475844419032762
0,475206117124531
0,484822333532177
0,478468132734292
0,485707217150177
0,481887668817358
0,494004345014387
0,487160884188087
0,494063985568986
0,487394664595459
0,506081472478987
0,494432906252586
0,502574005744796
0,497549192802626
0,501943545113693
0,495467461242974
0,51225880959185
0,49932475412233
0,51714504293426
0,513031583579475
0,52573842132133
0,518231595684789
0,53155333253208
0,518332580626277
0,542149560843265
0,527464987702233
0,538421937637421
0,522189949146712
0,545577579127646
0,535109964120004
0,549651761641045
0,547404529123572
0,55200925839414
0,548782080608445
0,563457443281971
0,552394990123186
0,567651611196124
0,564588312364221
0,589558685273386
0,566320218893023
0,588424023826688
0,582302586638148
0,602388735330557
0,582596361194522
0,605190114380781
0,597257143268233
0,620436033823203
0,605029155421179
0,603027005866647
0,608213498270228
0,622387361364285
0,603704815337824
0,630721367910193
0,626645657078493
0,615101443029227
0,613780637753172
0,639252790102373
0,61031323496164
0,633929240695284
0,617137278914986
0,628418819072882
0,616352373881604
0,628156537966247
0,622744101243143
0,636813845939283
0,612963132665039
0,626459131018815
0,619711676114133
0,612234205920154
0,620892961387556
0,635490682236926
0,612346567766543
0,618339101818133
0,624193822836944
0,626129441506868
0,60765063765938
0,612577637882773
0,612170526485855
0,624855145276749
0,607779350475677
0,623576218014198
0,614011110448101
0,633102006354598
0,611654116343529
0,635249228363996
0,618005439034348
0,635547046936126
0,615204502641964
0,624540703366949
0,61644510150114
0,641822040248121
0,615061431836547
0,628974242504772
0,634943219171689
0,628211553655362
0,631028333081285
0,629153794423151
0,621422261017012
0,613191162374501
0,61409608908096
0,617524275757131
0,625537737700066
0,624889129967633
0,604676181398123
0,62407803797603
0,625249862449311
0,629278552863533
0,617636821316047
0,62214600718353
0,619027371056383
0,62146456408354
0,612699685113733
0,620728028616675
0,613025258931077
0,601839118866938
0,599117175854058
0,603347050187138
0,596885751172102
0,602160080516232
0,58770380286638
0,597101483392175
0,577262254020078
0,593443309405953
0,565865545196328
0,58070189421852
0,550746481834175
0,567898911192226
0,548146663324951
0,572408594919928
0,550125568936036
0,549473103872322
0,537744389928292
0,54551418789802
0,528304206662652
0,538130260488752
0,528446911662844
0,527207313292192
0,516083705268678
0,528681299752195
0,512982923523675
0,531741311514235
0,503198139921695
0,508262256352675
0,49839751491372
0,504128039880881
0,4847209690249
0,498166196972165
0,477315100402946
0,493617465685718
0,480312771852057
0,488637304905303
0,474719522733533
0,469481827017546
0,466391111130802
0,480735981700119
0,457351729713244
0,472430666743509
0,454246021287227
0,464452355730989
0,454060359891516
0,456033427898428
0,450959182580243
0,464007599458347
0,445541613668283
0,44213575812067
0,44582977376666
0,442005077774091
0,429957099184764
0,448022517006213
0,432299874916366
0,441827162433265
0,430337728445562
0,435907595972773
0,422550175717656
0,427566049730498
0,420236776705064
0,437136558321422
0,423668563615438
0,424493037502401
0,406887985128634
0,418775449707185
0,413009321098902
0,418549256059512
0,411993264711472
0,409627985900856
0,41123604898025
0,413221830058734
0,402193303759282
0,41434498302817
0,400743282900992
0,409008069168556
0,394004462998056
0,394070262880804
0,388441324877416
0,395454317594691
0,394756265290947
0,401207385155942
0,397640203683677
0,401931919321179
0,387403709707144
0,387269022779921
0,387605843636134
0,400639485702089
0,387264331284176
0,391071229088004
0,37719113888583
0,37822186202397
0,38516307344774
0,385713211088362
0,380131696753547
0,384293100728827
0,379750117638526
0,38364529974361
0,369232546950987
0,375975495212685
0,36740279752124
0,372345401501236
0,3668322053661
0,377556397490039
0,365238854758628
0,371625962622882
0,362682988787089
0,377291688094261
0,363676878705708
0,35875267782758
0,357670633610046
0,362983610976674
0,368849527526082
0,360565945566353
0,355678437317255
0,365707164397309
0,352237108844472
0,359351271043377
0,344718244271943
0,35481690512863
0,352923895008922
0,355919173717449
0,350316251496377
0,358566345442661
0,355399797981592
0,353231240286503
0,344506071449446
0,353911018214735
0,34200135537675
0,351055338225003
0,347201980913203
0,348899756808203
0,344838270870084
0,356433910418075
0,346915446190734
0,350912628096124
0,341238006665722
0,346043761926073
0,339334601873912
0,340014674007175
0,338823338545052
0,344797872809715
0,337738063775884
0,336584073388992
0,335361204337571
0,344548017344909
0,336163791097349
0,339128396279275
0,334254669331585
0,340737627442738
0,331799031944924
0,341213709698815
0,330747941912208
0,340511499827973
0,332007239406616
0,337277766940434
0,332123816245384
0,342884807967218
0,327969762284593
0,338534527355777
0,333199537556143
0,328994967399717
0,328911092572098
0,340345816508627
0,324525855777539
0,334711287738906
0,320104392893593
0,328759135547192
0,322264276606707
0,328086129044639
0,322587834831316
0,327415716604208
0,321416022217063
0,329045457159598
0,311202514258892
0,319088916329728
0,321846611896196
0,319394568347122
0,315902957669292
0,324608501453893
0,318939315545397
0,317132341353728
0,316285990757865
0,319299006747938
0,311922224919587
0,319526842435635
0,312918273955179
0,318552779022517
0,313409608389476
0,320150018738303
0,308247306224224
0,316714303713286
0,304892302414569
0,31524386672563
0,309889061550504
0,311655327650765
0,307168317520481
0,309127041108065
0,304512674166958
0,311514675183896
0,305527694300602
0,310308531552837
0,303291604759647
0,311358665160271
0,298820187475999
0,301461555417851
0,298332775662118
0,303219400891875
0,295640170691541
0,303961162025112
0,293362605202813
0,303119326001445
0,292758116345141
0,299103527480177
0,290651841838083
0,295919819868045
0,289774266088583
0,296947784917675
0,287632879343442
0,292988968792735
0,287497918695185
0,290575427138359
0,284892964927611
0,292128912399933
0,28787728259059
0,289320454259617
0,277620860325187
0,2866466670523
0,278702428911091
0,285748590499894
0,27507645665986
0,283601799632769
0,27428613706036
0,280685075688337
0,273763007342346
0,277887221735124
0,2701044834057
0,272214884795571
0,273332525768916
0,274362754395175
0,270592819443034
0,273420095615135
0,268084153842772
0,2728200909737
0,261011131576208
0,264689671826436
0,270639777096186
0,269639354848187
0,264204438665553
0,265240760608455
0,258168237227987
0,263851479210405
0,252276083006321
0,257218947673784
0,25488181492107
0,257396832252021
0,252904203565749
0,255391000345093
0,251411425760586
0,252342732475378
0,249460476308875
0,257450979849903
0,247127884973269
0,249867475793459
0,245264260344285
0,24680691269467
0,241929431861158
0,247554034478768
0,244850015461165
0,246341164522397
0,240035589968399
0,247653809378208
0,241311203020296
0,243455994399342
0,240728489307718
0,243003944715753
0,240615063982991
0,238064058477926
0,23204698853597
0,236833990902664
0,232764213783145
0,236194591182807
0,232694957165572
0,235399779148522
0,232455791880614
0,232783511313855
0,22551369009016
0,234516519387605
0,23078864149427
0,233861092349971
0,22609579540578
0,229701100711382
0,224649504572577
0,229412956759623
0,223483658189429
0,226129026068992
0,224078330242141
0,225442779883609
0,217712835662711
0,225081481346893
0,21934349177622
0,221414159683873
0,217449355646956
0,220954263801139
0,214048926721219
0,221452590699423
0,213988356497403
0,215941170968753
0,213161417641648
0,217403790237275
0,216735999523643
0,215733481575027
0,217476195928306
0,217432751458962
0,210688310907906
0,216348985939266
0,21024710760431
0,215880109158152
0,207167219539646
0,211690886888942
0,208374298654242
0,210503565059292
0,211309330739895
0,212001747547828
0,206068700201855
0,209382972122877
0,20723765312255
0,212312823806898
0,206233704529123
0,210258605375501
0,207366218435483
0,209868181541954
0,201039875575628
0,209378594063882
0,201368626004088
0,205896898713007
0,201556007746479
0,204726295010361
0,203003625089355
0,206447739974016
0,202546981668059
0,203998682366234
0,20184510729236
0,201626914085489
0,198250168901903
0,202693493451107
0,197897425799116
0,201877870142487
0,194142685507035
0,19857759635541
0,194307132455954
0,20139021797966
0,194552024079845
0,196198592280256
0,191313252886913
0,194587527088246
0,19471090124362
0,198791242676168
0,192552615599373
0,197119294868719
0,193016360513855
0,193063656410673
0,191150952812574
0,19529985509758
0,191558154189714
0,19559243458299
0,189658577637951
0,193269974110457
0,187808070405966
0,192296406635876
0,188722823771357
0,190283389295108
0,187696121551131
0,190041884887459
0,18275171250968
0,189351243373199
0,182596277759409
0,188062941691856
0,185364681713019
0,187541169584146
0,183741673017998
0,186332610384255
0,182060436959281
0,18562477035023
0,181222760931965
0,186424075021043
0,180613341957284
0,185280677189615
0,180868709681916
0,187932968677076
0,179136784701567
0,180256096016951
0,179313671246365
0,187220460729752
0,179598600289799
0,179362226016025
0,179236253444455
0,185147470181305
0,178822994681788
0,181553925080448
0,178347747735994
0,180038025075791
0,174232268188287
0,177734800298231
0,17385862439909
0,17837878129158
0,172470354340584
0,175122216356942
0,176257647641372
0,174322460108698
0,171365332697697
0,172988462858971
0,169102946855427
0,175000743388725
0,172665440802003
0,170710098612832
0,166860802701624
0,17045546696284
0,167865442136377
0,172692826081675
0,167291415342364
0,170542971998222
0,166796187123345
0,165880165302093
0,163649763295118
0,169875033580924
0,161572094018393
0,160966021814675
0,161492721475442
0,165394661668089
0,159059659100887
0,164748721373386
0,159799168494037
0,159688003868332
0,156577833505482
0,161437040137526
0,156608773870663
0,160988291867931
0,155906674364196
0,156270395293653
0,154567426088336
0,159058812747193
0,154703066497331
0,159820042612564
0,152572470938324
0,154577036836805
0,151604659602256
0,154321350027287
0,150333344338646
0,152400893533707
0,14961621543693
0,152286222722
0,150193554760423
0,150313299661293
0,145360672803383
0,151810201154963
0,146555811815702
0,147602816388716
0,148375635466362
0,146952671916302
0,140953671742874
0,147552038555038
0,139441723373897
0,145061689740861
0,140108262312655
0,143290140687173
0,138457929228605
0,143192392759705
0,139047066489905
0,143346729861721
0,139998058229358
0,140986237236155
0,138009371122265
0,140552972776611
0,136958831462452
0,138800728412917
0,135642963128786
0,137226400025882
0,133341098050618
0,136544781432512
0,132219375178369
0,1355565716475
0,131765122261556
0,133591566228844
0,128344939564279
0,130132632298407
0,130708118438091
0,132761558300401
0,128763729464147
0,133793637421661
0,12648004539907
0,131851754027569
0,125249500640941
0,127058998145805
0,126893759927224
0,129161037692003
0,126684589563659
0,130076771021874
0,123976204187598
0,126516548030611
0,123158988616024
0,126956034690867
0,125155393422497
0,125012464828573
0,120326844678675
0,124868286658262
0,122858640450925
0,123217666961184
0,121167897945532
0,122846371022978
0,118225642903116
0,120224325291196
0,119710443540335
0,121053687309163
0,118620063412928
0,124260622074085
0,116167832796902
0,119926959075657
0,118787490459175
0,121181077636064
0,117879628899929
0,122316925017389
0,118557039917077
0,118353894778481
0,115929581372092
0,118774126301475
0,11484292362922
0,121105705664859
0,120535943147463
0,121946048908657
0,118490085741494
0,121216238316124
0,116051721877684
0,121956368778024
0,117322178000963
0,124299803673522
0,121060189568051
0,123556180229363
0,118151340414104
0,12267009087048
0,12037678151111
0,123622055740172
0,120488993994589
0,123944454481363
0,117793931578072
0,128719191229003
0,121602458366221
0,128706419768958
0,123746707959322
0,119229948735084
0,117657345401675
0,125716934142393
0,113346738330451
0,123675020875481
0,120181943102283
0,122523503798784
0,117210627558158
0,117878861891889
0,117603939420029
0,120304441182342
0,108237852312985
0,113566177100784
0,111410052888533
0,119793977335125
0,113453573353217
0,124375517946354
0,111706099474262
0,113597662553963
0,114252476991158
0,11516666551012
0,112966539223192
0,115065429367703
0,119515434075534
0,114999880336326
0,108244674009151
0,111927971001739
0,114611688903521
0,106176933223797
0,117222810044363
0,112225220275468
0,117993565658157
0,10397538344726
0,118350162862381
0,101022063663793
0,126408562736515
0,0981619419414911
0,124163355667925
0,0909453626038382
0,127959919166969
0,0923819763456668
0,130252341317603
0,081234744179563
0,129800065187247
0,0886083998242524
0,127128290168079
0,0870571072217532
0,121604007521453
0,0930562580647071
0,113194908197421
0,0993297450755649
0,110655411923029
0,106292650156938
0,104836143003071
0,109343643656472
0,0965548169883209
0,107477367536867
0,0955456037774731
0,107311258473637
0,101900317204197
0,103389401904233
0,102622931988437
0,0993042065525523
0,102674917525033
0,10112644778173
0,103308036576963
0,0979869356035237
0,101013007807457
0,101193155692515
0,0996167926227534
0,101122817173075
0,099111421692896
0,0990797353795307
0,0988433063898794
0,0968216019819813
0,097840610445604
0,0983556505221967
0,0973871726569266
0,0977922790686083
0,0992535497262496
0,0987137432094331
0,0973572623618548
0,0988352649090974
0,0985170052162049
0,0995311585386432
0,0994496036048859
0,0978816686796013
0,100384389328682
0,098015652227269
0,0975970364942281
0,0992220475357382
0,0981991841528193
0,0992191034891829
0,0963742077713065
0,0975253407865154
0,0982940640060022
0,098683230398243
0,0994787957758487
0,100052611782122
0,100026727813695
0,0977767673011036
0,0957219829728657
0,0962819871101714
0,0964210166040978
0,0971212626683219
0,0986082188570461
0,0979745841597037
0,097123243854334
0,0984630814570543
0,0983059075935248
0,101041779112815
0,0994580342939688
0,0988783199267867
0,0974413848940029
0,100042926676531
0,0990706499881239
0,100126364517206
0,0971389843330664
0,0979241931239026
0,0983085742988423
0,0989618039658713
0,0994248743214391
0,0994579743622003
0,097516523864858
0,0994378802787782
0,0960283482144444
0,100359910246187
0,0981455601690193
0,0979709006695258
0,0980772077085886
0,098400566294312
0,0955222550689884
0,0976816374764283
0,0990355698374597
0,0966923295385094
0,0967831235837513
0,102738902809739
0,0999238081722942
0,0994079422801596
0,0991157423348578
0,0996295772538233
0,0986056742836442
0,101895426959859
0,0978397345434463
0,100091879267205
0,0976293798460012
0,0996666088030684
0,0989219613436483
0,0989481908814651
0,100704432254488
0,102370433457034
0,101110057204929
0,0988125459818835
0,0979829212843958
0,0997980579196617
0,0990647568281289
0,103942128922876
0,103842089988693
0,101698282188509
0,100102803101876
0,10059888205315
0,100448422258592
0,101998615672662
0,10079028906159
0,10262597578738
0,100702080686154
0,101213057469944
0,101516387190991
0,100734442786705
0,104242244335402
0,102787279376634
0,102205739075364
0,102842088900254
0,103809951105077
0,103314545313548
0,10338630231897
0,105925222325758
0,102531987055587
0,103857854405348
0,0998954953449618
0,105633670801703
0,106304361738134
0,103654228532868
0,103834285902625
0,103624574972624
0,105145361138262
0,103315770698134
0,104706401817883
0,102918051073596
0,101868175257867
0,104683790336975
0,104346585489599
0,10548957634854
0,105004271020927
0,106338305839824
0,104090536985003
0,106473727173668
0,103200378087037
0,103852414787162
0,104321522891573
0,105591626205874
0,105919038571909
0,107276880914384
0,104600069121123
0,103954337471841
0,105485452504626
0,106447182668688
0,10712287840516
0,10729895913766
0,108733260903812
0,108266487594208
0,108120015500123
0,110386835319311
0,109767595746768
0,10774360625004
0,108407302809228
0,112008192395445
0,106956337826349
0,107939534809386
0,109532206316612
0,106763527333
0,10946644535283
0,110068946391624
0,108402781770361
0,108742640473279
0,106366478815022
0,10982676669016
0,108907979361839
0,108142665880321
0,110246615182672
0,111062533588505
0,108162227450823
0,109126152334466
0,109366414195574
0,108374872018691
0,106970941277334
0,105631093570595
0,106794246980229
0,108109941186243
0,106347770160547
0,104566447679626
0,107507433181323
0,108124782319101
0,105902361562632
0,106730368867048
0,10634063396189
0,108929811680158
0,106150661076497
0,105546648148015
0,105980356987908
0,105667879430411
0,104082501852993
0,105811533988783
0,104940119606833
0,103549584773685
0,102635016348496
0,106716005029079
0,104025337353554
0,103015921189324
0,10199537654275
0,103540880049778
0,105565604652853
0,104836058210719
0,103022853909515
0,105588071825337
0,102599622773153
0,101807821448569
0,101810053058923
0,102199451785654
0,101580373858797
0,102819226020059
0,104077555115428
0,102886396049188
0,101904226924659
0,106084603235527
0,100095056481731
0,100636670948453
0,101002505937478
0,100997859538889
0,101362505332049
0,102591218641509
0,10208151571021
0,101862639471147
0,10051350283113
0,100547582171428
0,100181276167266
0,0990389033162421
0,100351481194358
0,0994137846380456
0,101002122657012
0,102934838487044
0,0982512910606672
0,101945307978914
0,0985263210028567
0,0987820351369502
0,101279027220911
0,0997914693171233
0,0987640055609374
0,0987860494961963
0,0978266399982574
0,0983102152843716
0,0981171053842153
0,100910587669895
0,102096785013226
0,0997388976531823
0,0987033456158161
0,0978932195530155
0,096459555284603
0,098422411099282
0,0965908879762662
0,102016462598011
0,102115982081845
0,0996812764669895
0,0977693596023355
0,101402382885685
0,0973913201401463
0,101935398844312
0,101628868914743
0,0974458223339539
0,101402771289684
0,0991146593120378
0,10120331042502
0,0976003212338627
0,099784734242305
0,0994176126166088
0,0999181197734055
0,099936539993742
0,0983602063326658
0,0972352256380274
0,0958584465682123
0,0965211168672389
0,0981713644110907
0,0983838740684601
0,0978783242584029
0,096303549658459
0,0958751633038984
0,0959709766143026
0,0965195801211112
0,0946692672093144
0,0962347208850608
0,0986870638791912
0,0957044022999469
0,0972116097332892
0,0938703536666708
0,097859489034733
0,0925642619582345
0,0984107689216634
0,0942860183730286
0,0966924510804695
0,0939792294465009
0,0953945948633212
0,0921179478330253
0,0954156363294739
0,0906750313360845
0,093283184681805
0,0927276551640445
0,0925521931974487
0,091684379108255
0,0904695702429201
0,0943194115033896
0,093465213779981
0,0902777705070947
0,0912395563982063
0,0905967833805758
0,0887723913196188
0,089279629400954
0,0938544622217084
0,0876230876289366
0,0924661959616033
0,0882250722546598
0,0884008454853033
0,090256103609106
0,0862407422791826
0,0879413071441214
0,0867545864877171
0,0878163936785661
0,0867418846438634
0,0890553210942832
0,0862341111044388
0,0859834728672444
0,0862493190862125
0,0861015852449699
0,0858671929583403
0,0850354686613033
0,0854119163640037
0,0833920172176716
0,0828351483900144
0,0840637759878533
0,0847695439276942
0,082358265798855
0,0829153237824439
0,0862378719391122
0,0855372245013046
0,0825652253373739
0,0830067949791064
0,0906367381022438
0,0751502881977229
0,0836499199415255
0,0794597543829442
0,0856280980086075
0,0798169286772852
0,083694491750966
0,0813321841923245
0,0819294713938485
0,0802778651316589
0,0835965080034206
0,0801435009388731
0,0797849797639025
0,0798351257441493
0,0813885223511405
0,0799059913545701
0,0811361701128693
0,0788580130754058
0,0811540052043276
0,0800733221238577
0,0814705690587782
0,0805939332254931
0,0830186715505691
0,0787969603786387
0,0823849306448545
0,0791221465334153
0,0812574784077486
0,081717962525549
0,0762676050990547
0,0786345437762806
0,0793265935869606
0,0781610910611114
0,07575018463445
0,0789520483183985
0,076929265336779
0,0767527883310188
0,0761583912671006
0,0804621921036857
0,0761596730530902
0,0784812201431082
0,0797340160058204
0,0771697318990548
0,076508574042748
0,0757046249128217
0,0761974621144619
0,0753671566172692
0,0764554782799598
0,0768722968721027
0,0710955792434707
0,0774072527364754
0,0767311794166011
0,077231828221588
0,0723943892010013
0,0873153766036722
0,0732631720289764
0,0778919193696822
0,0732819535182287
0,0747399342619026
0,0759421090719361
0,0736388284472002
0,0748438285138027
0,0739006414969757
0,0712379676312291
0,0738950808804776
0,0756286563664239
0,0739417249638839
0,075533082119569
0,0741590276969777
0,0727704755716522
0,075093512366827
0,0754701974062637
0,0764138148894716
0,074934662425251
0,0736760317942519
0,0814747716336683
0,0745442342575345
0,0715578341936679
0,0790016753240761
0,0694629776422589
0,0792748988821989
0,0780239700698006
0,0665577148568163
0,0781971192580787
0,0695976672556121
0,0775970184602613
0,0716412731916321
0,0768271488522016
0,0693378642246928
0,0801690740084713
0,0699139328255864
0,0777940060748328
0,0734824047300955
0,0743117065006446
0,0740730414324876
0,0757851908396178
0,0741344611241834
0,0752895242863441
0,0720219582207865
0,0735104456950614
0,0730156120844898
0,0714743924620504
0,0747353647204545
0,0781503035260711
0,0691515201799821
0,0793613021003901
0,0698821087048862
0,0750382664034024
0,0711274345070388
0,0798224296213782
0,0695400824432599
0,0824960413309862
0,0696002282077825
0,0754623320569868
0,0720450793070874
0,0715654360961463
0,074602044043506
0,0723741869378733
0,0745229977719349
0,0729071208623245
0,0727336983393587
0,0727932024206871
0,0735802624678671
0,0709596632416273
0,0730221041289389
0,0750877997906126
0,0765789589019615
0,0724165437322382
0,0734102556714815
0,0704481508543396
0,0734332747675883
0,0737796668291407
0,0721156715836811
0,0801256524661506
0,0755149644434713
0,07676408953047
0,072125469684901
0,0761276384644513
0,0703418527763785
0,0768425071744849
0,068891758375609
0,0758100555251266
0,0722634855114035
0,0755694274670171
0,0746163994106491
0,0761304397428463
0,0729046142910538
0,0743908747007897
0,0719410642495218
0,075468601071064
0,0728526072552796
0,0758234247070715
0,0732100749950092
0,0734506978432164
0,0748122411357013
0,0742079741160281
0,0787806489333208
0,0701144518076576
0,0759281596240001
0,0726288169515215
0,100962907722085
0,0587417736227544
0,08202456713183
0,0722576661113537
0,0759812847704084
0,0756943312626823
0,0752288835937426
0,0778358130734783
0,0779542509837214
0,0745700892935751
0,0782104066417874
0,0728801831150695
0,0773610810001602
0,0774870155758044
0,0771265400614807
0,0832137240976252
0,0821583433135839
0,0712664849360574
0,0802176002264816
0,0738557443989317
0,088278269626183
0,0742145254431284
0,0759839358914069
0,0856918747769519
0,0739628784121773
0,0789677650922494
0,0758499739562727
0,0805688667207747
0,076040882986158
0,0816035123518243
0,077337954085662
0,0798615151101303
0,0797862015513795
0,0799777842315743
0,0828007755483685
0,0785834828778574
0,0870702117340993
0,0786780816894012
0,0801709952246839
0,0869466492794331
0,0771327074830321
0,0843210004691592
0,0784806285947834
0,0814680129125596
0,0842207427452753
0,0921519337032787
0,0812339549852513
0,0825499233221088
0,0923816846956519
0,0789483213779194
0,0820496796558807
0,0892640722669762
0,0853490227924343
0,0886295389045117
0,0765025728737424
0,111449176302041
0,073923822015774
0,0938240123972027
0,0841702187564075
0,0829255244678517
0,0881084828503153
0,0857652334969799
0,0883084408527038
0,0843536777095202
0,096908225116571
0,0763576123305414
0,0966182505824007
0,0807124179728836
0,10843240818885
0,0823370797322435
0,0947914873572963
0,0892410681053783
0,0920323506186532
0,0884248230710807
0,0995714861627289
0,0836842147190772
0,102936758304767
0,112174665282015
0,0894093433879259
0,0935563524058766
0,0874395722467688
0,0987854612156456
0,113045611282177
0,0834152470862668
0,100579252279447
0,0898279507835814
0,102538835497609
0,0895405279796703
0,108337853151324
0,0982595137234822
0,0943605340200367
0,100697043243245
0,0987359928615182
0,0948278842371498
0,115572999245192
0,0909970065648618
0,106890103576919
0,0972788768378964
0,108439143103841
0,0943220884502046
0,147500570568105
0,0846368985926554
0,131086691976355
0,0991635645798921
0,114056157312473
0,106223557355045
0,114140463828984
0,110657399923327
0,125589834389965
0,114987226129068
0,111779837619662
0,114249070256914
0,138224364247206
0,117798184827806
0,116582175715138
0,127220978096964
0,118496539445221
0,135997626703447
0,149494409742895
0,141015568554248
0,127459242500477
0,129485393224431
0,133245106827762
0,149726597749989
0,124207186034704
0,142138289874666
0,134704095819662
0,143164533005851
0,137982934432954
0,147536106106425
0,158280483158631
0,143982203878749
0,15106176528764
0,147399331540383
0,155630230336116
0,162170265591764
0,172773792650727
0,158105313112526
0,157044786237948
0,191538549148698
0,156759765144897
0,16411857035033
0,159993900889123
0,168450919564447
0,17437333092856
0,166522498632236
0,173184239593597
0,170760202625571
0,200659822791134
0,177769789362978
0,185739137749617
0,187581158080648
0,185443052433502
0,206433164860685
0,186524428839417
0,377465677057172
0,186674460531058
0,228652754979798
0,205564309483206
0,25837337602543
0,242541973206996
0,233549665771372
0,2437060013818
0,252186933262819
0,245179126819519
0,263840771557788
0,269633051982706
0,278688069513711
0,288733668929621
0,291444756477344
0,294915811700183
0,327239416225769
0,318988195360205
0,349352739677446
0,324943248702207
0,334414303918288
0,352856648777616
0,359264191320046
0,350934483224963
0,38082940204279
0,375255146894035
0,398108909068206
0,414575681338681
0,404347876422826
0,412250320451506
0,41823036768768
0,454648389025341
0,428332838267045
0,498962655730243
0,463365058169334
0,47411268835852
0,473613295337711
0,48489383119507
0,49952699880786
0,493774134027474
0,543554148207746
0,51530035232778
0,526767189772142
0,533771251977944
0,54694975882523
0,543305310558481
0,554074377002574
0,55817085459494
0,559049709745688
0,598158127519983
0,61802482037129
0,726516355418993
0,599874952042594
0,578160455760789
0,576027214146798
0,576932971451494
0,62371983343363
0,593662751315492
0,6527840770976
0,594870441516474
0,593783203438388
0,598266018529004
0,603279947648795
0,59745904465806
0,603963878799203
0,61646695176423
0,601947331270575
0,636535718479597
0,602538839390121
0,621843242221991
0,652181385503086
0,590992867625364
0,606827818237525
0,603108347599157
0,604871148696858
0,600849363758349
0,594262329755714
0,594690577077701
0,622134120921604
0,579815675403808
0,602689008816623
0,572863016091994
0,607919061451875
0,576560417708227
0,564444498312785
0,563677710262934
0,553924871448534
0,549649803816563
0,545838414229708
0,549358331050432
0,60084950800403
0,522109594810872
0,538269815388572
0,519019406103077
0,52264235591718
0,519897726052852
0,52412614742963
0,519279452961507
0,517903579828155
0,500063539928158
0,518627702723271
0,501850221089918
0,512773896651572
0,498451237924728
0,506553564744659
0,487154751726004
0,50099348323308
0,492012977257562
0,49771035201026
0,491159668984106
0,49286914106992
0,497498467777534
0,496473444917866
0,488935379185007
0,499669079227515
0,484647231987609
0,492197844010465
0,481905041228672
0,489374037424068
0,487200822634268
0,489335738100312
0,486427132483731
0,485113347981761
0,479789632163155
0,483421082249149
0,483489802151338
0,488360404234197
0,474631749070793
0,478993881986733
0,477798579696658
0,480039964149299
0,479371920313635
0,468412515382219
0,512088614423537
0,486039434504061
0,463059909836345
0,471556570638276
0,453661525421833
0,465901637310094
0,449717629965223
0,498886507972535
0,460953900112348
0,447722785138249
0,447141934073673
0,446549725050406
0,451121550451415
0,449889320381667
0,433153842682522
0,446650297963721
0,413111820030031
0,465637097200745
0,502985795125977
0,476462875603974
0,450839007457759
0,423789119589677
0,420807451779584
0,42851101476592
0,444041795590926
0,415005584878683
0,429961531103617
0,417973798850019
0,443058205104156
0,42745093005163
0,41272493998416
0,424618397696971
0,408069184332615
0,419231417948105
0,411486295107301
0,416555189932008
0,4193246620186
0,424862397717202
0,406238381144392
0,459386370445608
0,401822184777055
0,40374879978
0,38483969640305
0,396069730445199
0,391680012230272
0,390213644764652
0,426900606573181
0,382452581029669
0,376017796654697
0,368413386425524
0,365678596621976
0,37312148165799
0,371166712124775
0,38333764106775
0,352749523391611
0,398588115732643
0,351397981890262
0,366660579399216
0,363831737710413
0,356405677898928
0,35791124076849
0,348605515261841
0,341829121243729
0,354182484824395
0,360279144830856
0,339103048510835
0,348431860231172
0,335592653574971
0,324561416664569
0,342894830064359
0,314088122450868
0,335608807873813
0,3205078261952
0,322047363016251
0,341674379730657
0,336799941893972
0,327277744945055
0,310254519340783
0,306274439606787
0,311626634886075
0,306086839638236
0,314375716543034
0,309879611780018
0,316886639043424
0,316219790807351
0,307485406730639
0,339252242036321
0,310388748951462
0,313097829008514
0,317316325527185
0,320214622318176
0,31978719227093
0,330442672604167
0,343612499596689
0,334805333229112
0,324856838852437
0,349335192479156
0,330079205108278
0,345353883454017
0,340477244191085
0,355013253937042
0,351544599545748
0,363362809416734
0,369017455933251
0,375361186129225
0,378281515383454
0,392998104380696
0,388864458658532
0,422421480648983
0,400021580655284
0,43796157918312
0,423011346007246
0,452620266052992
0,442754525074904
0,443749083767585
0,462274837424807
0,461641952902828
0,467084825662516
0,473200210307547
0,487012870872578
0,514362516236512
0,487530358879334
0,508296524025835
0,498910316856515
0,512146943515683
0,521006079960682
0,53400119911658
0,540117381208673
0,525306912024561
0,553084108239337
0,538096216620196
0,546781376625531
0,537544459452056
0,542979958877744
0,548639283145355
0,550684729965545
0,559853741705014
0,55588527060528
0,576855844496242
0,556801289812564
0,55797586064641
0,567959007020465
0,565736221920622
0,575959719431734
0,579810807563442
0,586572365278683
0,580551136837313
0,584874385329153
0,595378518833687
0,584118128815119
0,621003860954423
0,611486618690042
0,609912658949856
0,620779340484188
0,619601976691997
0,626445837141313
0,619062934827428
0,637545605716766
0,638696226840014
0,640424303816745
0,649571515547702
0,646321458944081
0,659904157874856
0,654410112402549
0,684202241020418
0,670568502764668
0,670893268333238
0,675075489373261
0,675879010689433
0,714796661949152
0,678872188061401
0,705750683705043
0,682822826390548
0,689151349326848
0,690464981358029
0,688151380605324
0,690707483392903
0,702366743689208
0,695789857027445
0,716290110868583
0,704864643844784
0,694902076790046
0,705658457058248
0,693866771936842
0,725674757835048
0,705907698851946
0,700452894664829
0,718779131527154
0,709723788105598
0,706957447121302
0,710228249364161
0,716826496232536
0,703146639506285
0,705066245754923
0,7034195840919
0,724033597395375
0,709785059770473
0,693955094027837
0,704933432526257
0,710966156847696
0,698992556059056
0,710292311713246
0,707063686794386
0,731904867592674
0,707190818183805
0,717706222254275
0,718214707464667
0,72738976113276
0,726176981052503
0,73904450614586
0,733138945955273
0,74038791554411
0,74005618695276
0,751422109850384
0,757833983423429
0,753046986676349
0,756164031794294
0,76301426307906
0,762213792125703
0,749626801992955
0,741082041655469
0,749894912878375
0,741094782303795
0,746578611775083
0,725833246538163
0,721713909017597
0,720334986106248
0,718844165621246
0,713367287221302
0,736850584216753
0,721704058227127
0,706260359479252
0,697666315990972
0,692252302254193
0,699850858056653
0,683763887087807
0,685130692555503
0,675867241205126
0,677248654528954
0,671446274809061
0,667914925655482
0,665633846767381
0,669379492292722
0,664240328752946
0,657885837859341
0,655241565955751
0,65733732386963
0,657189515755731
0,65331414667664
0,655217965206023
0,651740529469109
0,649838065827561
0,655231136384992
0,657360432501037
0,658404268105093
0,662141384705064
0,662241462648072
0,646284050237187
0,658245995565571
0,649249151948221
0,656331357057219
0,649320335109942
0,653349216947648
0,657806487731422
0,654225451399164
0,645110092092425
0,65094843016583
0,647270241271704
0,647640943115856
0,650779687715827
0,640859147138352
0,644626050158012
0,648351029158683
0,644063428584634
0,644126263254478
0,643831992277708
0,646157429758224
0,645417018994444
0,643413370415207
0,648359637747461
0,644817478739224
0,658974298578849
0,657448613980244
0,646226192974432
0,648419647260123
0,65114049610679
0,648624512286122
0,64500683621521
0,650600500768876
0,647925880695952
0,641126691563607
0,641191396581863
0,643955502078541
0,641937532970436
0,635767101811137
0,639708307952247
0,634220618545626
0,626758413720685
0,614762612175219
0,615425843591509
0,612307854895251
0,608898114814051
0,601925012246211
0,595214021309716
0,586297469635028
0,586148033982602
0,588507812498162
0,582062452478197
0,578520058045508
0,574750515659462
0,567697189068854
0,570110186064443
0,564217779161331
0,563491019090426
0,564960633026978
0,561909341286315
0,5631682318255
0,566685250121755
0,563030926162718
0,560639418120345
0,567864147975111
0,566730791701308
0,564700658992671
0,567727506262053
0,567462204223383
0,567288209719071
0,565632083893577
0,568709419253906
0,570720324054683
0,578550518728844
0,579133877435777
0,57748837987637
0,582405684926053
0,587009159508719
0,58938399222446
0,584064065008941
0,592337040842811
0,591590139231494
0,589471068789483
0,592851948362098
0,595509923251725
0,60094511230462
0,602469875245257
0,596402864353775
0,597873221614877
0,596076864302944
0,598756452370615
0,594888690453182
0,593264390288011
0,589564709885728
0,591458680846483
0,592509479180236
0,589827889635049
0,589964547114181
0,584101016472134
0,587939855352009
0,58602706523622
0,579903703200263
0,584868156830891
0,579534975999495
0,577013691123985
0,572394284993788
0,575299884644923
0,570520829556084
0,56340290137983
0,568376215072448
0,566378644126265
0,562529876199229
0,565649084936568
0,567813343777075
0,560488285984234
0,55929126101124
0,559089453164898
0,551352076311719
0,553864825541673
0,554104197360545
0,553147024616226
0,546507431301925
0,55040353191054
0,545588771623701
0,546789869132648
0,541931511874707
0,53895727565771
0,533588303656987
0,536258770724259
0,536473794911212
0,533063997152203
0,523987711134218
0,521777441630375
0,51887583003173
0,513585197953611
0,50981112490987
0,50717434065413
0,500552034432003
0,496764096149652
0,497787359630386
0,492849276989892
0,491550309777129
0,490025593758512
0,487273203926253
0,487057926572374
0,483234829243892
0,484441596167626
0,482628926088867
0,48275475489997
0,47996586779083
0,476320144810541
0,474661143955363
0,468597579964729
0,467334162259252
0,463826270201194
0,455393745391038
0,451302964255153
0,446508723480093
0,437731957944931
0,436263067390543
0,42816459442933
0,426261044479678
0,42645127342481
0,422781398881547
0,421917993196448
0,425145795817217
0,427730613726112
0,432858996529935
0,442527850519092
0,450565675715018
0,459625776274955
0,473355204590569
0,487084744282895
0,502745996086847
0,52187778959064
0,539255730127984
0,55738978353708
0,575473178787527
0,596873434551598
0,612920280016894
0,63255156531252
0,652817360505045
0,671830311699573
0,69123483837056
0,712812271587042
0,718272795413784
0,73981561262468
0,755895281602851
0,773271294481903
0,790777417216455
0,811256849634694
0,817225333227748
0,831529721304353
0,847494853587144
0,854009891679723
0,869747925143844
0,875970619150126
0,890699651728908
0,895907089089937
0,909768052488189
0,909894668910899
0,910461137646254
0,917685902752842
0,925601942940237
0,926478862605468
0,914267389503263
0,922961560635971
0,920666214340904
0,92111207696181
0,932024425494892
0,935982641679888
0,931494518474525
0,928726556369746
0,937685777848658
0,937106330327931
0,943551980901006
0,950560496758639
0,964047058248629
0,956428015037935
0,959895392845117
0,970322760692106
0,989317375497818
0,982789691121923
0,988583771932185
1,00666242051564
1,0183159776065
1,02258044505713
1,02258627262467
1,05729633173655
1,06757189540818
1,0617036822146
1,09841214990999
1,10771017920046
1,10704100548423
1,1174412494009
1,14363047331323
1,14636216583739
1,16500896820789
1,16035640575293
1,1680060848592
1,16638156169269
1,17297114731752
1,19148823199616
1,17248663083219
1,16841479932058
1,16602707743904
1,15136174346133
1,14833428161778
1,13964627985956
1,14282205723591
1,15602369855526
1,15252959758991
1,18424181406409
1,18134587563351
1,19598054261527
1,21476221593516
1,21690588816389
1,23579964286461
1,27070968624825
1,24853792316881
1,29428631290299
1,3256782737945
1,32208146366288
1,34033274763675
1,35067736297558
1,39901572244208
1,41708603788336
1,41950370740799
1,41942811841262
1,46139647931191
1,44300390418652
1,54534114057828
1,49409890915223
1,58888833469103
1,55326243645898
1,60261307096364
1,62872375107272
1,61177968622907
1,60842142365231
1,7236593185314
1,72745032605748
1,77395111251625
1,69043727582757
1,73835054022827
1,79176536451483
1,82511449991136
1,79557747018839
1,84217438327309
1,85990953775981
1,9295671483095
1,9203010996999
1,96461540630842
1,98988459583623
1,92685132240994
1,90447827402582
1,97560847503265
2,02953463361251
2,19506143336754
1,78605024338371
1,92927431497767
2,05229169377518
1,8765772760715
1,95454577915615
2,02186297506445
1,93705747707675
1,99835371621007
2,01484549008175
2,04714551545099
1,8766783573206
2,09051270434604
2,01881502967305
2,01408348984351
1,96900932847692
1,95762649792025
2,09217937204849
2,14635682225922
1,9663448240387
2,0446678665068
2,04860800596443
2,08104446422958
2,10961290255618
2,11196509968366
2,28370203098799
2,35067927283504
2,38752300372862
2,39900778559813
2,30759535024
2,18963075192804
2,30590137359062
3,04398268201
2,29718264329093
2,62326250436369
2,65448193037055
2,38746648302705
2,12487013274345
2,3732475101594
2,19933597216082
2,68230222224897
2,16264456821744
2,71897988244562
2,38338057837209
2,51055206546017
2,10987630755364
2,42740004326827
2,24713602937825
2,71641341500187
2,29767142517937
2,19992611245265
2,08760190474464
2,44754784507577
2,05172309261509
2,34946449947692
2,13513614566871
2,18897335242589
1,99491814562431
1,9552927521795
1,99330173091014
1,95810323760356
1,93008849963118
1,92405572756266
1,81788887714694
1,81268789224092
1,79995311766806
1,73896947174141
1,68637366504327
1,77920694653452
1,68901512965796
1,5879559321416
1,69059819300679
1,72242160639769
1,67528231473102
1,70207304978391
1,65465652780692
1,65126923342807
1,59976895306104
1,62388989469932
1,47820726037443
1,55272847883947
1,52010508157071
1,48918217444766
1,41385336501324
1,41343256830269
1,36883529808672
1,36501561543769
1,29555858130058
1,28398064311913
1,20574872958356
1,20286503018664
1,11882365368408
1,10805424020564
1,0341971670651
1,00124166800244
0,96850310008099
0,912738222145869
0,877663624886786
0,844873876922924
0,815097964756663
0,787564905833478
0,764033693102932
0,739559827654025
0,716125935244137
0,699792207787041
0,681052927686837
0,65796437840164
0,646405706765295
0,638820304843327
0,623232087582999
0,621021834558613
0,61567027371148
0,60981199723612
0,601726029923591
0,60300258482433
0,598759454488065
0,593278232714636
0,599820148970328
0,603057624531355
0,599010844474458
0,606889810427251
0,599440413871242
0,608458813167587
0,611622967585792
0,601138889327007
0,602332573169437
0,603515995142397
0,590788222381833
0,590455101994879
0,57788982837619
0,589838477825439
0,575404650035623
0,576827830516196
0,562242543930452
0,559678743582231
0,560642293693314
0,567273048662922
0,549969395181367
0,549404755774279
0,552520747504321
0,557442496457054
0,559859419141581
0,553957471333022
0,554839864650537
0,567713455524547
0,574911493704693
0,576967321543852
0,569296087156942
0,57870320365123
0,582176341575708
0,596130488723264
0,591779797919509
0,600332260835293
0,598921672173182
0,602156077314769
0,603981941502127
0,608144952715118
0,595398676839879
0,602303551937385
0,599813922613894
0,609706086299915
0,607591581426367
0,618312662752189
0,608436566824016
0,617854430796449
0,619377308499896
0,627387210650094
0,624390311565948
0,642291898016097
0,663936530146198
0,64989781076166
0,668294916931253
0,677540407679942
0,687400134263977
0,728327281846819
0,736055174437543
0,771657953064332
0,75917506279035
0,783979300822138
0,792310576427605
0,795917210773824
0,791733493015213
0,817811130463801
0,800582391825024
0,78248117797332
0,766018976933317
0,786387449696369
0,769975350819263
0,761660965513432
0,723325715520414
0,746391315144264
0,719025212590648
0,737260855967947
0,70897087676984
0,713101892846683
0,715160366084187
0,722765580091727
0,721034515537837
0,738257864598804
0,71130887898485
0,72751632192472
0,718197289230336
0,717193024616688
0,698352093965172
0,704268286680999
0,700461017139289
0,703409265324618
0,666460506288899
0,678566068336238
0,668085805110745
0,66379411889748
0,65446666565886
0,670648273450375
0,637085203141267
0,64217384506235
0,646598393675448
0,637018841702898
0,633832668433317
0,649170143343522
0,626107857754178
0,631300960961244
0,607925222750571
0,607740111531643
0,596849246570931
0,604767751898415
0,60504073765242
0,595245493061806
0,578291287162603
0,598845266157098
0,585665926581506
0,597092150118967
0,589387631268753
0,591122731268423
0,584286284806793
0,564799235190567
0,559882853837485
0,568728076111882
0,567097138826473
0,572550923016617
0,561849239455353
0,565468099463983
0,562497496573273
0,580717304820866
0,561137969167182
0,55448094514764
0,55477549087264
0,553177921588598
0,547060325171442
0,556806708364464
0,55317260598548
0,556800867746584
0,56009311959358
0,557887042690315
0,535469436459424
0,540413052505475
0,55132069749139
0,548952436832748
0,54364232274965
0,551006785103089
0,558644644440975
0,56821178484691
0,554209612838005
0,559612138984938
0,55830176368995
0,561805780114248
0,56571434891198
0,564246116313439
0,563102837786997
0,577439169863628
0,566616044386992
0,571398313615332
0,563446063715344
0,610278783622424
0,60621361095152
0,618312424812281
0,618427348140069
0,609746501920172
0,611330015331492
0,640092005660909
0,623403029526328
0,673642693532465
0,696442753583908
0,679549696256057
0,677011412227371
0,731654519341576
0,714859518222294
0,734082407817433
0,751739729503223
0,778383544227753
0,766229981827629
0,862790600085739
0,80665292033393
0,877609746252513
0,865530471309982
0,915545456786045
0,885016130334424
0,938056146734113
0,921214788387772
0,964425017731463
0,935589970099847
1,01324878525693
0,91174956795023
0,944140712607811
0,872006022892554
0,880789982932231
0,89372784641728
0,977290349748893
0,917928694976528
0,976909405509966
0,906745453798495
0,973103017139088
0,906917606746725
0,969323534708449
0,949889352408414
0,929862221886375
0,912217815799909
0,914926653380625
0,892690706606625
0,893044356860041
0,930855492286423
0,923334889433639
0,834921528862041
0,96875293602966
0,826858829844472
0,819297196304081
0,818570749143707
0,870450698165365
0,862620897110231
0,792486739871077
0,787520522911338
0,849212982098847
0,799914964362176
0,86053821004773
0,817359389863217
0,886686443406678
0,820330515614483
0,831263650220554
0,756321531135413
0,869002667064957
0,782295064174499
0,890918997287721
0,816046856356794
0,835001869203179
0,833321864935426
0,892041259332985
0,781048708781447
0,910979600240601
0,818388747885335
0,817558145113199
0,764313602445063
0,916019957632488
0,859315360894765
0,922963160529032
0,735327852166613
0,865973153152754
0,825872575409303
0,83758732097879
0,893415728937567
0,903931418830244
0,806510164598995
0,909161023867802
0,883558663443114
0,894192881677064
0,893489914791706
0,955943595574307
0,874145494892952
0,988067167317543
0,9428142232695
0,977025635136874
0,987694519626078
1,06314547188997
0,860712891826431
0,9907119676358
1,09455198707868
1,22708816967541
1,11468841929491
1,20647831666311
0,99110190050518
1,15687506882029
0,980960037075974
1,08908487310604
0,929995142550706
1,14075760025245
1,22253037870525
1,53606149549558
1,03395540991841
1,10373454911953
1,04006097392659
1,22699490792232
1,23085349804802
1,92023386087456
1,2672396755647
0,978586948150103
1,06550114519985
1,64368608538691
1,08245449760977
1,72446001694257
0,880297008616141
0,970457893660048
1,13256801978772
1,38429962813848
0,941507420008604
1,44157710094957
0,890849974909176
1,20320275095307
0,987317779391191
1,18502548702441
0,869008698273316
1,5276670341862
0,855348654340196
1,12821317534294
0,908948744363001
1,05455602405618
1,72591135021058
1,74429421092988
0,913116824211993
1,95690625407288
1,60198186403982
1,13882857068405
0,934810321383375
5
1,09647513141726
5
1,01738402710863
1,16807753367752
1,03397112151608
5
0,779032793829258
1,26824368906659
5
1,13952517953267
0,833562284043323
5
0,609448799294355
1,01652924193579
0,908183098332259
5
5
1,21215671796664
5
5
1,1350135493881
