3596
4000,36533379555
650,420452594757
1
2
2
0,0515741017543989
0,0433480526341888
0,0466090470927031
0,0433783143198775
0,0333024505356218
0,0458096199188147
0,0460181910614639
0,042843482357975
0,0456313850798972
0,0392457668444894
0,042371093435832
0,0470560149198312
0,0531989759364958
0,0493753283820083
0,0380415419465364
0,0546732350756152
0,0323012326238958
0,0545714591364613
0,0402701664556909
0,0437186826529576
0,0415031314756982
0,0408659133524502
0,0495592629522798
0,0603239231407129
0,042467381918768
0,0510415070077146
0,0444491084618764
0,048841856361936
0,0510151920267128
0,0414074609331638
0,0496495864697726
0,0477740771332973
0,0419674419712928
0,0391004877554968
0,0399760499787722
0,0556409253405704
0,048148335617262
0,049211725468729
0,0471115543449497
0,0378491011076266
0,0422520203027679
0,0423790554214014
0,0434397573832278
0,040388695026598
0,0479342875250284
0,0449450553033358
0,0410784081526148
0,0387385372186858
0,0455597376541033
0,0498182722782834
0,0344081641266647
0,0424144361895331
0,0551870590161067
0,0374625261749353
0,0493648127077085
0,0400369929229548
0,0470379756559505
0,0514734133518402
0,0315482062509936
0,0417184259460771
0,0544774116215845
0,034339850884332
0,0490789317863642
0,0362785000297097
0,0526886016570721
0,0380067954640715
0,0440182597529451
0,0358106122636392
0,0620575066948051
0,0374451949305716
0,0487238325853972
0,0572946708987797
0,030970248038743
0,0550452223094554
0,0460319443889393
0,0424511050017863
0,0416430099466338
0,0344363176888592
0,0472276714744721
0,0505742403949697
0,041008274315749
0,0351996929266595
0,0352732506410253
0,0460344088369934
0,0592056215946167
0,0157249402134445
0,0479294671253332
0,0452823149371621
0,0285991272758884
0,0359519600853339
0,0275363034053656
0,0340316068656945
0,0357869637196841
0,0382349582361607
0,043916192435162
0,0315117851367038
0,0380756674073639
0,0462894441583138
0,0393272484882413
0,0461898501525098
0,0301377808510854
0,091856592306782
0,0116976983299273
0,0696303392872268
0,0299953882626049
0,0242862102372319
0,0667532825872623
0,0175305260841391
0,048400616433282
0,0289408110729053
0,0401653499826787
0,0315770486245064
0,0500342546277454
0,0303378549602109
0,0379423421365777
0,0468654502185123
0,0236485629005602
0,0345700400130111
0,0268437115501884
0,0246184181457313
0,0386789967209922
0,0725400496420709
0,0123152197567604
0,0488379093562443
0,0322735176172471
0,0318930629025927
0,0528098529418581
0,0296137930080522
0,0160084859998247
0,0376112507555168
0,0272382738140704
0,0339037515818528
0,023658546426933
0,0644661844316398
0,0206992009929684
0,040665067381829
0,0391887178075643
0,0440538834669291
0,0627091789190211
0,00923110946112869
0,0407499584391859
0,0267122831305602
0,0350086711116417
0,0580465015133297
0,0245464438132936
0,0302501595532293
0,0443793469826252
0,0415533498885219
0,019511611902228
0,0436860865143265
0,0242773616328219
0,0455443950080075
0,0382754973616199
0,0267125490496556
0,0563377600168366
0,0869021326263832
-0,0248084602133297
0,0834650009422469
0,00319569822044297
0,0468637578970373
0,0222499122395042
0,025301146820086
0,0362364206870033
0,0367078802499466
0,0395135482510692
0,0301105784693006
0,053097065954452
0,0210187715753431
0,0403044316469884
0,0242692142144464
0,0346300921442326
0,0271747509557174
0,0703984154103633
0,0444998938415651
0,0226207995055143
0,0516425625056702
0,0120704729412099
0,0331928714892654
0,0247651262931568
0,050145494672706
0,0204569335801427
0,0326990845129762
0,0398056564174124
0,0364989851435233
0,0387063842529845
0,0465348786740218
0,0307866902810011
0,0403077104780609
0,0216087637668813
0,0470194301762497
0,0575209923774718
0,0381657014487668
0,0111626457041569
0,0408847285614088
0,0297892744320515
0,0401401315926222
0,0425123398588905
0,0186047277336948
0,0499704758860464
0,0296061804928205
0,0336971356157748
0,0351059155267279
0,0359972034758048
0,0408199730324119
0,0223980206583953
0,0571673323055448
0,0305257274897954
0,0270049879073737
0,0387881697534476
0,0308467150457414
0,0454108828996415
0,0424721764639703
0,0793400718566491
0,00511931134382485
0,0437137078748383
0,0317382634515417
0,0510262469538551
0,0318365766354959
0,0239744535837079
0,0330343159348653
0,0284765681583599
0,0291364706122162
0,0388100260110231
0,0313337627590443
0,0354469914374561
0,0386640202402769
0,0366811102891839
0,0357530886502988
0,0385765935925192
0,0467984008955666
0,0300885508590101
0,030304856297404
0,0425504912671103
0,0311702994317994
0,0337001157059676
0,0508943182998884
0,0201925701535713
0,0286647664300736
0,0392241508657628
0,036001756801788
0,0307505248211625
0,0361170870197122
0,0287961040502593
0,0481984842402022
0,0325585316818126
0,0612452157311874
0,0288108421311955
0,0299644306950644
0,0444292924281093
0,0281604084851337
0,0614683567980733
0,0145285008741298
0,0415481451361825
0,0314692926403687
0,0458179044231465
0,0201289396014413
0,0606785568192379
0,0165645394900612
0,0403934085634919
0,03662963570242
0,0590532112866387
0,0235554578139647
0,047194106676118
0,0264886482907509
0,0735870502554241
0,030116792928507
0,0269618874386654
0,0518653521699091
0,046862870617703
0,0210953694243497
0,0526501758939961
0,0220584777130832
0,0755327935125502
0,0431012363690589
0,0340615648274196
0,0170074023712079
0,0586246981771877
0,0343825728927655
0,0389157661061591
0,0479169187681496
0,0241629963227804
0,0577211468685401
0,0314505705292696
0,0476542216736336
0,0388063254984238
0,0270372533777456
0,0678837983386382
0,0177811332047714
0,0460703171593626
0,0187921755591159
0,049025883181448
0,0358562903656116
0,078848460872082
0,0310320321354545
0,0722874741863523
0,0210756754804475
0,0769611928282191
0,034066544506464
0,0381598598585861
0,0328150592270025
0,0647801927993955
0,0338842455520532
0,0491150574124871
0,0358806935047571
0,0560604177615874
0,049726835056459
0,0448133221543343
0,0673792745928388
0,0566430708906649
0,0341444424114827
0,066638633911076
0,0245593707118384
0,0466540153094037
0,0451500989767147
0,0477396546441894
0,0413761019322343
0,0399124724551208
0,039304961653579
0,0538008745561922
0,0468884161536203
0,041739673050852
0,0529631471102311
0,0480772094156752
0,0456742436127145
0,0487182587794991
0,0472752182841192
0,0526078398230388
0,0498681467745506
0,0541329944338267
0,0504479414334373
0,0845837549231951
0,0431899360264692
0,0541966763816976
0,0709070567662795
0,0306543275625342
0,0575713799946061
0,0559457258305552
0,0577381020782842
0,0586593749596889
0,0583529318266045
0,0598109953057636
0,0610500935867377
0,063678006230561
0,0507589989853005
0,0614844095375198
0,0655100231003691
0,0827765626851093
0,0998345922641064
0,0704290689013798
0,0564679792913992
0,0692698321713421
0,0562662547714881
0,129847679722199
0,0428519654028511
0,110085701195357
0,0463870997136625
0,0744559651862131
0,0749301430348338
0,0711516347986044
0,0747172131774804
0,0754167309686745
0,0778134674975604
0,0881374097778405
0,0790262369672148
0,0866384774552126
0,0879201425043837
0,0863571867821947
0,108339802270832
0,0873243554401247
0,0752553624139351
0,096837175020032
0,0952409271470331
0,103880173715504
0,12771067399859
0,0959142083739119
0,118665106221183
0,082356906640778
0,127695245932928
0,0941154893171447
0,0929290793213151
0,108883408957732
0,100209504545898
0,125098575138405
0,10920372466563
0,112213561681624
0,120822351877332
0,125137589779146
0,121870991826805
0,128229409737431
0,12072270412145
0,140563450261028
0,127368087518064
0,156083278051912
0,12290851864315
0,148420406565268
0,140128192141392
0,195712047068083
0,140675166246085
0,16378084977541
0,121234573688258
0,1589558049464
0,141611873121285
0,163819868318561
0,150734009141597
0,173768652397955
0,169125769559942
0,18658491297256
0,183372440134538
0,184964946521682
0,170358291504971
0,176327301933361
0,153884806075773
0,212835053784922
0,168355301653482
0,21391799963187
0,168607908468139
0,191766267969798
0,186333220012872
0,240019834870356
0,187196102232769
0,224699102651823
0,1815100967009
0,211794533447544
0,215189148355629
0,210773358099961
0,220504825823565
0,215712077535875
0,222650747524098
0,237012091791108
0,225672045021707
0,240504301685508
0,230142646074508
0,252993779218776
0,239628463898348
0,24747881588201
0,240960545723463
0,255154838167856
0,242007553977507
0,273816663465528
0,242714211049001
0,304698510461108
0,231266754745132
0,291863455723085
0,256024212672398
0,279476749643786
0,276055209369769
0,285986999610231
0,278014787506878
0,303898422862246
0,301520667995192
0,303208472889533
0,295063214935109
0,323777632445376
0,302238543720598
0,323098320310178
0,313315082325525
0,328782140076817
0,316880598000483
0,356080005281417
0,322554680479757
0,350078616420541
0,346628787291957
0,419147465690209
0,361060433792398
0,398467102326932
0,34171853211336
0,360663581569175
0,346536468692116
0,381907902914958
0,351915260956169
0,390563627380507
0,386570972225333
0,405868306841518
0,398755439077622
0,407337301453758
0,39156171271697
0,427799736845756
0,401247831298713
0,431139659952493
0,406906550805821
0,418243992185498
0,396361456624487
0,452924270099301
0,429043066045228
0,458084754026892
0,427359061104232
0,469788396521051
0,448988826800744
0,464841850940863
0,45506645257601
0,471984227733461
0,439581399750563
0,477597177348663
0,47495739033199
0,523867573360498
0,487269429400331
0,50722422548932
0,486325954595811
0,499460797065628
0,519127819035503
0,526634277402667
0,49834358865731
0,565762860119264
0,519131620834969
0,539239445381504
0,534278319322664
0,561317504508418
0,550676294064908
0,561073106879127
0,543183343453751
0,573337271618646
0,569461501266542
0,592429357187431
0,567906646292012
0,593679675421896
0,553027923803844
0,642736726404336
0,588354695226936
0,608395110229679
0,588637094876537
0,612743930444253
0,586530822834593
0,684497728431669
0,635952585845019
0,689470482748039
0,624132163421408
0,653315190182115
0,594442355945009
0,678414863074585
0,665145265065624
0,69667173056034
0,650732080331751
0,701832826609079
0,656780992387841
0,698493118690711
0,656339242009256
0,699712825825651
0,677355161000777
0,714446959450856
0,681413705885146
0,782931557396162
0,696825887843189
0,757660124962066
0,714047153816461
0,768010241587317
0,732120428258914
0,790969886052284
0,747600555115753
0,76853808343605
0,740044845255315
0,77166763803706
0,746911233237285
0,844349913795293
0,760745072830344
0,840201379175694
0,760953999511823
0,825392830081723
0,774395091897494
0,865620564912014
0,784867577720398
0,855897697144246
0,786442751733066
0,852408748360734
0,825803852034313
0,866364158397492
0,810896050337258
0,879124001097735
0,832281328772757
0,902133236709406
0,854876715564301
0,937945234959146
0,844847452899161
0,938885929412163
0,927370026052357
0,939122554913481
0,882543359443315
0,941817323658783
0,844096222382568
0,967888904696801
0,91387417259148
0,976716858738396
0,930280060860381
1,0143739944203
0,923126010237185
0,99913763181514
0,909960475148884
0,965935124485862
0,912671391904863
0,98370234351905
0,932678485634752
1,0128469257268
0,980369008764701
1,06451685943125
0,930842479169099
1,03517999993434
0,93147317924524
1,02720142343642
0,949294461072871
1,08247614079977
0,914425867356181
1,01345931516648
0,976969926167331
0,987324432413507
0,952061628065445
1,06913821541429
0,993886323740163
1,11087495779426
1,09580785243721
1,11778836599291
1,05961165804064
1,13367238232874
1,05230880634463
1,14194022141168
1,06029070659076
1,1593180921343
1,0362613831361
1,09429609593176
1,08718070126776
1,25874129717106
1,14957517975463
1,08902979330827
1,03764583184874
1,18271449188031
1,05044347853504
1,15756601191045
1,0760001692839
1,13815230369554
1,07695616829671
1,13692253700972
1,09171280813106
1,17808846980348
1,1668684515447
1,19152775702803
1,14416592109795
1,18615337465768
1,20085951808077
1,30201787394526
1,13037753322843
1,17360282515765
1,18429880885764
1,26558003007638
1,12352957094162
1,16020150336399
1,18366433808915
1,31307436133347
1,19746242735793
1,31901779535685
1,22658840211757
1,24464520514912
1,16653292670886
1,29038233229109
1,23000048528809
1,2914160547255
1,28362819884433
1,33766966852265
1,1945113759946
1,32629630923431
1,35607815212691
1,3419840623628
1,23436566761136
1,43896161615855
1,19413165915755
1,28961738431321
1,39195510633125
1,3379878849146
1,22061617645246
1,30597838563641
1,18087080753279
1,29984385746899
1,26511337191787
1,28112370615549
1,28481364725386
1,29751859178181
1,20306291696934
1,30887000960594
1,26144442065395
1,33526959434097
1,33879362344657
1,45417837018236
1,26903869334081
1,4878547656415
1,36626233585159
1,31908751511803
1,3450944279734
1,32827335152729
1,32306473121935
1,45479031280963
1,45833165304164
1,32293987653352
1,34990856731338
1,39392941548527
1,32207283542945
1,47323177180306
1,33328193313764
1,3305446181555
1,27938084374253
1,40044749730367
1,37991827632203
1,32577181691172
1,29698861894903
1,39517067832239
1,39766431746421
1,32326044061579
1,2580870655805
1,38233413582222
1,44136262771855
1,36112783731234
1,33671675755265
1,3710314292201
1,25296059259122
1,33569086173805
1,43345971533762
1,42952075096452
1,51895983901048
1,49094614897154
1,34683561283947
1,47257981427964
1,38174289946469
1,46442892233262
1,35037903534176
1,32297054882987
1,3565203793332
1,37185394523552
1,34133754278023
1,46491926790161
1,37622545184317
1,39029632090267
1,49813570193296
1,60478837394313
1,4547189277339
1,42057291187217
1,47434641631952
1,43523734493322
1,32133509894006
1,36483689676484
1,36657170756894
1,38599551803521
1,41634252102402
1,34969732614199
1,30522473013899
1,52764689880675
1,44849068831426
1,34373995271354
1,36530932612694
1,39281904062507
1,4348811003369
1,41625071207636
1,38939555665723
1,43426686209871
1,43511384678698
1,48772494473899
1,43601454894938
1,47713139850808
1,4272220342379
1,46947219760459
1,5225861014142
1,58843026319918
1,35593375631996
1,30471412943832
1,37896057948329
1,39888736192719
1,3766749476066
1,41363046140142
1,40198133841369
1,43070974601409
1,40938218802763
1,44109003289132
1,40523762077296
1,36954927787901
1,39384317056566
1,46599421276386
1,38433022784333
1,40542411813324
1,41217853620323
1,44158215772006
1,48709121838408
1,40223434844995
1,35190661845608
1,40328453265393
1,50049990214395
1,47327563736395
1,40063985010482
1,41354317803103
1,45385000837784
1,43371949093338
1,39839776946169
1,37676354625147
1,39287884160908
1,39873956091693
1,40949938160446
1,44298450713997
1,35265942379743
1,38859745778259
1,3876642395564
1,27016600656642
1,36392591730969
1,44647576483488
1,40163692053783
1,44664600813307
1,40575096364101
1,3557234940519
1,36189753953681
1,36221443007795
1,30893723305137
1,28049443432177
1,3443462650859
1,31261435257901
1,27854550652624
1,36159182056295
1,34027170212295
1,26920604970226
1,2771439633527
1,24914901913704
1,29808985385393
1,35545327156226
1,34955190858539
1,31827933755193
1,32518137119353
1,33297789197579
1,33884670366161
1,37750305983962
1,31029847814072
1,21329469714568
1,26301428915077
1,3804995531477
1,35420949654186
1,30223132247435
1,2803897961741
1,25022375244753
1,28133520205636
1,25356847587597
1,30955300248392
1,29663580220899
1,22451939421634
1,21388338299367
1,21683556769961
1,22445513856464
1,20592235808794
1,24675281967248
1,27667798312983
1,23353086611372
1,23740021534548
1,27644466137979
1,30732830374615
1,21312106122305
1,28805268991163
1,23223453246302
1,18393295689587
1,19514380589084
1,18708748761391
1,20516842257702
1,21454005831642
1,19627414603631
1,23174822691567
1,20321607693495
1,20971968113795
1,18442984931675
1,19963438787674
1,17270694480539
1,1908510039996
1,19326948194974
1,19994071173397
1,11189113724084
1,12645824439642
1,17305828027239
1,17962612248151
1,12498963807462
1,13822049311403
1,1686339135174
1,16639941304612
1,13310020155843
1,15984493391518
1,13209314327085
1,10853547555621
1,13180400652281
1,10248131627537
1,10935663670955
1,08488307823144
1,07745069042486
1,11641735494947
1,08136874917269
1,08143702830599
1,07590701304878
1,088891300266
1,09125819526052
1,06266457423035
1,07653205624151
1,05966162611974
1,05977322736163
1,06103117408246
1,02429942112409
1,04917275893673
1,04277888543214
1,01360003842559
1,03479153521717
1,0436636380275
1,02126385651727
1,0597594674217
1,04760123363932
1,02900642025124
0,960549292637557
0,988326088173312
0,986150164061407
0,953820048074103
0,96911165825842
0,969637552259961
0,95775977319555
0,98583441050155
0,952225799596159
0,963542440292937
0,944838223687001
0,947640538338264
0,953237968897284
0,952922313591649
0,937919823713663
0,934221567104861
0,914341072281712
0,937855938373412
0,925216786308484
0,900833377204369
0,882124533979701
0,906355608119153
0,886185738817449
0,886676310015195
0,881208427133464
0,919921521157788
0,895943463577237
0,870791978037162
0,880474272497107
0,901245527800855
0,883225202823409
0,860094417563715
0,841500284162174
0,88076927971672
0,83865606751768
0,861340723647087
0,838815899272277
0,845298034999966
0,835480594561297
0,835886400008326
0,828948528468178
0,825075148102386
0,820891499787037
0,831868212090352
0,805214861657298
0,790761865444946
0,797855120643358
0,804502973112295
0,780099978280482
0,808889178452417
0,786391932318249
0,801020009343934
0,783627193621048
0,77752999099156
0,759772262051301
0,774297922685985
0,757332397557989
0,766279234027206
0,745513350782656
0,758756523814081
0,7481188218426
0,751260559171201
0,743275382485732
0,73874543920653
0,720682817332782
0,743526537375062
0,724285767884855
0,731251472561217
0,714826879782989
0,714067519209977
0,714636076225577
0,727356431421206
0,707918142980117
0,706151774906673
0,703763404096097
0,700812989401122
0,697184604356949
0,683897279134212
0,671960650838726
0,684305661490193
0,680208177381584
0,67665156706776
0,675354577086281
0,687308892209535
0,667464694136767
0,668314942040978
0,652372297607345
0,65213247460806
0,649206374085552
0,674857287420069
0,65330069671261
0,662679924797901
0,641688305762156
0,640833904309117
0,633727155127895
0,619545250547971
0,622972651131875
0,636791502157224
0,610221581731949
0,618376046569936
0,61145366926014
0,619109053790948
0,604213158686649
0,61424876885756
0,605656000353802
0,606448697365229
0,605851311213978
0,594481280427789
0,588007711189545
0,594494169427522
0,578145461936546
0,595362849618969
0,582719870757545
0,584334909022001
0,564781996747525
0,56887771371724
0,56675185370485
0,564896414036034
0,561259307835245
0,567726554374108
0,564318024665338
0,560172563632447
0,551737992951289
0,560666748113845
0,549853828585924
0,550725319754571
0,533003018517649
0,543248555868175
0,53204604889427
0,53514125606118
0,521683739692204
0,5392219392597
0,520692859369473
0,52307511011394
0,519707337772941
0,520838207586678
0,517982794342957
0,511778418651658
0,511685490104769
0,522450878565768
0,50643855889245
0,502118664749374
0,497922741881692
0,499344427937481
0,490240781957013
0,487760144443929
0,479609164444999
0,49151485671764
0,489314926629867
0,494382524238032
0,482769658755404
0,47595052481648
0,477706288063166
0,481334511435577
0,480086502880598
0,47235783627811
0,471511376176705
0,46583156383319
0,458750468855988
0,470506209150862
0,45620683394328
0,470262394068891
0,46488922051282
0,471620311462224
0,459099844649243
0,451814862070642
0,449121081005995
0,456506584616414
0,449486297304805
0,456557137223735
0,446428978894944
0,442729876510167
0,451145473533223
0,445841217676869
0,441230584396086
0,455915992887916
0,443458885095901
0,448983345873913
0,439989309628851
0,450871722000236
0,442555797402535
0,454278600025255
0,443086017686917
0,448566126846196
0,444308211386596
0,459684678649272
0,450447070033231
0,442281346379133
0,445905752785366
0,442598183067323
0,445162802779517
0,452658746912738
0,452212191386297
0,458010441391795
0,456367376004903
0,459460068814131
0,454595228062181
0,467454316753563
0,460385775631078
0,469021173143297
0,469037062180326
0,473287026749283
0,463725742421853
0,477970210931399
0,46805513973803
0,479247370914767
0,470984271188321
0,489311632158774
0,475911488842079
0,485613150972273
0,491986829663186
0,492978695615381
0,483179082968507
0,506002433854213
0,480676816913407
0,498799126721255
0,50065009244577
0,519612765971243
0,500182729311282
0,515388802605845
0,500279939273787
0,526408873191349
0,525118458006221
0,519968888692246
0,523808140996812
0,529254453457437
0,529196485872476
0,547370105141051
0,533266593533665
0,552951292710104
0,548672781431318
0,547737754074875
0,541316220334564
0,562570116648096
0,544061683033864
0,575896150221765
0,560668036062932
0,574230628675631
0,561227886029415
0,580270409919309
0,582450370319414
0,590540969796885
0,578643535864548
0,599707357440184
0,596187004179104
0,603142341318469
0,586038086397483
0,612861001574975
0,622626008855155
0,610235366247388
0,591818546656483
0,606704836358464
0,590867757662419
0,598493966035856
0,600326738958069
0,610973057130452
0,605036284156194
0,611943186500319
0,601539248943107
0,621850822648333
0,585238177166545
0,601223221190916
0,599571743579064
0,610316111732495
0,596687328029024
0,620979759159497
0,5996356176305
0,60241498107914
0,593680437834223
0,603832394870189
0,594817330888783
0,620045690034759
0,602982866247811
0,609969382557254
0,610314204971842
0,612580794490431
0,610511256621907
0,611505769737904
0,613173165075724
0,61494571155954
0,604300258230124
0,611859821651822
0,591739750089784
0,615958124299438
0,590937571734466
0,624918206454013
0,610194100530492
0,621539764129905
0,603528260730329
0,620848590608416
0,597947285818569
0,621287285543921
0,602391114012579
0,613101165236643
0,603766436846717
0,626400928652262
0,611049457298408
0,616892435189237
0,596516753293352
0,60650021295306
0,597581580165338
0,611304122352905
0,598201487065338
0,609928555532219
0,598030292608974
0,611176257993855
0,596211316781961
0,607655111830713
0,593305030768905
0,595455367432865
0,571997661480029
0,587051084949298
0,575312679767107
0,587833641607688
0,574253326097778
0,582327888333236
0,571853801380735
0,573092305718025
0,554612168222612
0,565162850596312
0,553065888701652
0,562768986606409
0,536304469679131
0,545048755867495
0,538419611899841
0,554408775546628
0,522011478534322
0,537635435315011
0,515717594092161
0,528162508990053
0,506711873515596
0,512320578144364
0,511793708570012
0,508537405182245
0,507928621871544
0,510792233926283
0,481080400593808
0,504983418691984
0,491100747072697
0,494038467415554
0,476727815124616
0,479117388636744
0,473103392192781
0,478184986299917
0,467808523429383
0,464889587019737
0,451153026637548
0,467391505284638
0,456948524763998
0,456220098842112
0,444329066253213
0,454041755286156
0,437332083992492
0,449326016830737
0,443844172622076
0,444051904275873
0,426328261217495
0,438037407121462
0,427949634583996
0,434398440913199
0,424922073361904
0,429817786452827
0,427410544572255
0,435540983510442
0,414303896912208
0,430012781501417
0,410505573399418
0,40935898044491
0,401233034202993
0,41716655935707
0,403310369474111
0,413847128030799
0,40564756897674
0,406216185880602
0,397320696083818
0,407928292330878
0,399007503379837
0,406091567838195
0,397156844916236
0,405597935886594
0,388524561141679
0,399062399466398
0,386960763771093
0,387226165666205
0,385668397570374
0,394324431790499
0,386501919311089
0,383598452656963
0,369429889695059
0,387048056231426
0,376989085172358
0,382124875153596
0,372359651613211
0,387869788676284
0,372245608621154
0,380442754691211
0,373724236514643
0,374400658793713
0,373838362955579
0,36428325857935
0,3642991476525
0,373607368578113
0,367678567331042
0,369330242727202
0,357057709897619
0,369657703641435
0,363886203286958
0,364313331968535
0,355393948580955
0,360365363146441
0,350866495210449
0,359468934409016
0,358343756564385
0,354172713773846
0,355168882691743
0,355655441761115
0,346196393793668
0,352810481874419
0,345671220067045
0,352553565024099
0,341048195129602
0,345694653885799
0,340723275173726
0,349520138414798
0,337406908760058
0,347861379416922
0,334818867071071
0,346548330260277
0,33419561835379
0,341999908449993
0,339688264219153
0,342713018567475
0,335539873654496
0,337730019154246
0,332027287220709
0,340538495615828
0,332954107190353
0,3309616713157
0,328363713757192
0,333773221260612
0,331960238537507
0,329178620973528
0,326702217910702
0,328401967074315
0,328521741029
0,328131663763925
0,327164741368711
0,327154038175591
0,326604442963118
0,332888486424575
0,323821514639106
0,331843384877196
0,325681515683133
0,325917980339948
0,319069354637234
0,323093269682717
0,324063702391097
0,322246470726093
0,322271740017024
0,325412063403943
0,317194106114194
0,324641155732446
0,316590544964613
0,326955607679308
0,319186593178097
0,323930948675006
0,311801503580928
0,323616299750796
0,313436790679892
0,317388787298146
0,314409854297673
0,31877176823024
0,305880817279757
0,316664533737772
0,311803352589786
0,323737227833755
0,312951480156159
0,313983899728798
0,309493859153
0,317750376108457
0,3081107533553
0,314690601092679
0,305859202023892
0,313130967613097
0,304410708435288
0,311874120261134
0,302975685681428
0,309647925537185
0,305293573724347
0,305095625491003
0,299950610345381
0,305073498993374
0,296217525427457
0,303278816475025
0,297421084554201
0,29695517056971
0,302483147696668
0,301784818715575
0,299429773736076
0,301150043846234
0,293897026478093
0,30446147696413
0,291358582893456
0,294649709982904
0,292446928250082
0,295008558919179
0,295743941493878
0,297544052653935
0,289526237915935
0,297226407386519
0,290905920028037
0,299064745526028
0,289842710642907
0,289563758413756
0,284502865080139
0,286816751955865
0,286382358920698
0,295122433437919
0,281809690344316
0,286983775663219
0,281822535174162
0,28679429451946
0,27618619174681
0,283501489302498
0,281196814417952
0,286045035195745
0,274636780352795
0,278498953787543
0,274630482561275
0,278854694619912
0,272254249353627
0,271769408744268
0,268837622060557
0,270204948852258
0,270001081925572
0,270828829432363
0,266990458124308
0,274878088515986
0,268489006591434
0,275616008883069
0,265799188230184
0,269289108321601
0,264919728562539
0,265989387868406
0,257997522354399
0,267380747541369
0,259395782103942
0,260627326842512
0,255482406303201
0,262976142313088
0,259249130019605
0,257443899167118
0,251984869206491
0,256203006271441
0,249658636682647
0,259064357275963
0,253140117247908
0,255445716920428
0,248129919670181
0,251709699793432
0,245361358140854
0,247619098430494
0,241338508722277
0,246839482790568
0,243898445335538
0,245071071048353
0,237752040133189
0,244260439400582
0,239684318093501
0,242843182347396
0,236152083796259
0,243073538240249
0,233657889068259
0,236326097345886
0,230926948313688
0,238035869209744
0,23099551751217
0,233163432124109
0,228645411193591
0,23193872867337
0,227756765364424
0,234759317932278
0,226803745771118
0,230749970500334
0,224296668224487
0,231353808525205
0,224717114372389
0,227875075891766
0,220157304152808
0,226329256356577
0,22093210257846
0,224937087388151
0,220524770853764
0,224148236450076
0,221716861782039
0,220569421117662
0,21391394374279
0,222553436080509
0,214722599660558
0,219249699144683
0,212834937951191
0,214013002851423
0,21588387763543
0,220281952285472
0,212176990307875
0,215150003860658
0,210761451350999
0,214860261185563
0,2080512866625
0,215256576800352
0,20858544980939
0,212662326498899
0,204332387613945
0,211224379615635
0,203946039312793
0,206522180902882
0,205612974497587
0,208418846470503
0,201051263956157
0,206029957612408
0,203667004694442
0,206277542661226
0,2018731770957
0,203427761817004
0,200940585848423
0,20139998983025
0,200736447899289
0,206057803143436
0,196917664261363
0,203369922778971
0,200526627644104
0,201087407584824
0,195410095384754
0,198387887350775
0,195430553308041
0,200156354529683
0,196338202930102
0,201110271827912
0,19397129824579
0,20080996130375
0,19614656851496
0,1983715633293
0,193280670527601
0,195056957425923
0,19269609833712
0,197455001196114
0,194943822390574
0,193749460160962
0,191985435492222
0,194925714737954
0,192178211147891
0,199420034650642
0,19325141193224
0,195477181596245
0,191371880391615
0,193192161503028
0,190982514632773
0,189579607759228
0,189234944983988
0,190186201687828
0,18534517951391
0,188816883750722
0,188275765445896
0,190157006530389
0,182424176794434
0,185605795081443
0,186057613726872
0,187641156696959
0,184754887717968
0,187374527884522
0,184020503133275
0,187842340087556
0,184204819997509
0,187651589809605
0,183075247993945
0,183924896568147
0,17774744421161
0,183783450720539
0,180000244264814
0,182044346963624
0,181001669899224
0,187721843385218
0,179926138206512
0,183510181050952
0,174861728418794
0,180417126157038
0,179337464285597
0,181530695533821
0,177107874534495
0,18004868564887
0,175809429318416
0,180660690703511
0,175008786410562
0,175452027447639
0,175096887930953
0,17756789289027
0,175281296492201
0,178756968482069
0,172826334078769
0,178551322682127
0,174273131453996
0,174051436063091
0,168609381236255
0,176683053586107
0,171436399635007
0,175986524190345
0,175506047438842
0,177666402413283
0,170329027409317
0,17289542983249
0,169406848665844
0,174937833430585
0,166972353022213
0,169631996069763
0,170311866679333
0,167942661210628
0,165223227828441
0,169930613252986
0,165428300792545
0,168165622857437
0,165971687359862
0,169766385533698
0,164197006094522
0,167780780175581
0,163736693901223
0,166243342416556
0,163540797750889
0,163846044836664
0,161775515539141
0,164410571949345
0,160179927229065
0,163986951914668
0,16198484339466
0,16173796734147
0,157842970624549
0,159856620858895
0,156548394261581
0,157668655773922
0,155103907668971
0,158720616099167
0,15475111837109
0,1588749393111
0,153697249907686
0,155064041647155
0,153296282292287
0,154939909030262
0,153629193156591
0,153761744145515
0,151756349198933
0,154222453132899
0,147772710356963
0,150995121981763
0,147376668371659
0,150659776186827
0,146178454586113
0,152168531775367
0,147691479855087
0,148895570123674
0,144476614307795
0,149501489216413
0,147976460777076
0,147434712050186
0,140590518234245
0,143707594837534
0,14229070044456
0,14417763566477
0,139666683797498
0,145628941673776
0,146733799616449
0,145163972429384
0,138716735299312
0,142808169598348
0,137113676027994
0,139373678940931
0,13881767419985
0,141131127362022
0,135911331441648
0,139188817781899
0,134058871492687
0,137241494805168
0,135749401260194
0,139068062290458
0,137904019856876
0,136518541050782
0,133109165536628
0,135913842740232
0,131619285934162
0,136272185906807
0,132778545106894
0,131312856554924
0,127927300405863
0,132080401904297
0,127762639244279
0,132552988378157
0,127728346322253
0,129869561153696
0,129415357226777
0,131538402478568
0,128332350431541
0,130014721921986
0,124978799850617
0,129990541141274
0,127683673330114
0,126827369554866
0,124346743609201
0,128170581885742
0,123523270697764
0,128499488572204
0,121701774114672
0,122381737594461
0,121784256841975
0,121534582226317
0,120554241900805
0,123110582808757
0,120952295468208
0,124513307677218
0,119746942618303
0,120928603989411
0,119103030558623
0,119809997808303
0,11793096579038
0,12106503048835
0,117748367597792
0,121027451632088
0,118301621624362
0,12255587475287
0,117516688988175
0,116652380464462
0,114378299890591
0,120002796921281
0,118267859053295
0,121884761809984
0,115694927202094
0,119043604839049
0,117315758744907
0,118878209804202
0,113489472869129
0,120310243698428
0,119923252503885
0,120044888764474
0,116498972323589
0,120638684936268
0,11470258506635
0,122506123916971
0,118910891428871
0,122163134951983
0,120223721247889
0,123449783368557
0,119128295243942
0,120911039280306
0,120905796348817
0,125350617529554
0,113592562385779
0,121922573614503
0,118142024802144
0,128878691578532
0,123145542346118
0,121596256218224
0,11952425761449
0,119169564766894
0,116578447361473
0,127740311343091
0,115075108308733
0,123357406421513
0,121622570410434
0,120966703163246
0,11694349134571
0,118190869845878
0,116073110570001
0,1207952255582
0,108135082332389
0,114777682839359
0,113940774248307
0,117881807647041
0,113380677879389
0,124444204751535
0,109957727672533
0,115128096101366
0,116822180027148
0,119508916550473
0,11718877370746
0,116549256812366
0,117429501764028
0,115258515921626
0,109405128214514
0,109564908464005
0,113603537782009
0,108134145523323
0,117015508995056
0,108717688510725
0,119566443622289
0,104903005951233
0,118087929752473
0,0998877039710869
0,127397220811317
0,103339588718471
0,121941504216284
0,0874950975936675
0,13276300153828
0,0971215690955671
0,130018058756678
0,0820971274447317
0,133005759842672
0,0885886776800756
0,127119296547675
0,0860649627213781
0,119961385637075
0,0946976879565475
0,115515071816407
0,0988383508900695
0,109383211704674
0,107978406453544
0,103170552159338
0,108763652496776
0,100655248834258
0,110449690626729
0,0993085141939301
0,107410470560397
0,0987671866527376
0,102353971558886
0,103954241562026
0,100668850519175
0,105186127007019
0,0992236381010022
0,101134340873341
0,100474148273321
0,102885591623203
0,102279815502273
0,100999482007754
0,101943990613536
0,0994577072344976
0,100140034698878
0,0998953132364493
0,0981803104361943
0,0984729507946482
0,10001155569841
0,0988935520070373
0,0984209631678479
0,0994487556286933
0,0964335168707258
0,0959951789711808
0,0992862059176101
0,0991295084027051
0,0973932446426451
0,0975264447164606
0,0987089995985554
0,098757391046716
0,0967907701940452
0,0956640131818785
0,0987456756706668
0,100817031362394
0,101972203007961
0,0971986144549599
0,0977187822960497
0,100496767880938
0,0975241586457774
0,0997918332494637
0,100527380164654
0,0985333507142591
0,098002203837864
0,0980200556753263
0,0980331673836851
0,0966645867459805
0,0975976526029867
0,0995700974770146
0,0983994859404885
0,0975902290003326
0,097984721131596
0,0977055862729203
0,101621242829515
0,0988814794373404
0,0995430433179602
0,100587141050806
0,100031131738537
0,0969427056110233
0,0981684762698795
0,0981488361885968
0,0976171907611511
0,0977238211713364
0,0961726360011167
0,0954257018276757
0,0989609148774435
0,0957197638722842
0,0979987344839241
0,0933467920699072
0,101653045280362
0,0991916825471132
0,0968125510614109
0,0975222875543433
0,0981822084786289
0,0974271472052817
0,0956988432778455
0,0972924256732451
0,0968153913403589
0,0982813086972303
0,100590307895189
0,0976402120348989
0,0992250488314882
0,0984525321237908
0,0995796995016371
0,0961259756500858
0,0975716139655581
0,0950754846306568
0,100013613527418
0,100233520390613
0,0996509324257113
0,097125978395654
0,0969988517335913
0,0988040064817353
0,102108246216707
0,0989699049189049
0,100542223907924
0,100915804632231
0,0966156784388315
0,0954368088733753
0,100593844127369
0,0990295680620777
0,0988136514511424
0,0976868418064231
0,0987504051786698
0,0987898745878928
0,100318930215612
0,0997400365857966
0,10162420152157
0,102905627348419
0,102034986745237
0,099582247000474
0,0991411544848541
0,10120739669827
0,0999921052313545
0,100745201793703
0,101211415255232
0,0991838223100137
0,101100315554982
0,101774946783302
0,102339033341295
0,10169499425184
0,102043831044651
0,0997716730143152
0,102328633018955
0,102877397825338
0,101553649858665
0,10172341354009
0,102030226492903
0,102439414641297
0,102583027134565
0,103296224526864
0,0999494381454525
0,101725971809865
0,104594163570263
0,100665411172341
0,10185134018602
0,102383441075909
0,103961191003456
0,104140318556854
0,102845299234846
0,0994857996104756
0,103774097135584
0,104247007027838
0,104673230934999
0,105555888667874
0,103457384622692
0,102309577345723
0,101754194947583
0,10388405979056
0,105202174642935
0,104594916998761
0,105532065284919
0,103159092824891
0,103440576156447
0,103164935399854
0,106509424738494
0,103867733978616
0,105786535217664
0,106981604207796
0,108509650561114
0,102820171916778
0,104373856032221
0,104405286671731
0,105698557361307
0,107830797324173
0,106463563588479
0,103342606011234
0,10685401091457
0,103366105832517
0,107117147066988
0,106383626382761
0,105579742973506
0,10761365827349
0,105046789393785
0,104507085116029
0,106948244229542
0,105941215283956
0,104534998123141
0,103145757737242
0,106917532360758
0,106104209325321
0,106163843797317
0,102680376418932
0,102680155819594
0,102124124515947
0,101799860252138
0,101995652497238
0,102560027692368
0,103035774418019
0,103165034125623
0,10077961610397
0,102960985270999
0,101846439185608
0,103070531520032
0,102730842633007
0,10651418658884
0,102600821483591
0,101126371425334
0,0991014622801929
0,102872786439844
0,098915115341527
0,101421777330956
0,0985644580579294
0,10063846991031
0,101963359473453
0,102270481783975
0,100145220683407
0,101262060133904
0,100196330992992
0,100027403255572
0,099196646145694
0,100848241134783
0,0990655398188119
0,100544978549733
0,0988371219347605
0,0999678950597801
0,0999131509572958
0,100413023513604
0,0964506636461252
0,0993077828828062
0,0980987718413531
0,0970409259671143
0,0968968135000043
0,0995150121043421
0,0980310110279556
0,0990974268522568
0,0968659424814206
0,0974523111706453
0,0940409646776613
0,0959437729912068
0,0962767023416012
0,0947686725308938
0,0946151174525227
0,0985518166146802
0,0961679003020185
0,0980267135771169
0,0939032313637973
0,0965217677019933
0,0973084195430105
0,0972682763348109
0,0951360359520079
0,0944608924350165
0,0934808828773399
0,094691441186501
0,0964724912643642
0,0959571840331256
0,0960528946669728
0,0972533877894804
0,0957351491526531
0,0934697458985774
0,092979830672573
0,0957371138837095
0,0942577584750913
0,0959959498362768
0,0967175759065409
0,0962013033977542
0,0940156910237322
0,0966473661199421
0,0950993633367253
0,0986942160512708
0,0966230527223413
0,092774095941559
0,0947421537212053
0,0941528581320339
0,0958253269407602
0,0929255828576611
0,0936830064809916
0,0939803784019109
0,0948916218784418
0,0959991732453311
0,0937183748881209
0,0938166586957859
0,0925509515678873
0,091699109111305
0,0935954511047277
0,0923783891640943
0,0927506106805094
0,0914019301660095
0,0907382150230418
0,0919465219293136
0,0926356309073969
0,0920601187938776
0,093147405102984
0,09079217904914
0,0910578610282262
0,0914186638233307
0,0877990518490432
0,0930444304311081
0,0899454520266095
0,0952449546935895
0,0892424714564742
0,0901732887600909
0,0906617801533037
0,0911429913735934
0,0891425123147647
0,092273823005856
0,0891172398793951
0,0865236604688499
0,0871588573584094
0,0884444686086716
0,085771261168808
0,0862169496596039
0,0900298834265931
0,0878222743213024
0,0859085434172197
0,0890548673807405
0,0867724026027071
0,0866444890371376
0,0861334405620523
0,0878620729828346
0,0825911473099167
0,0885130522130083
0,0845157409791365
0,082923878123368
0,0854509879397359
0,0801560261187598
0,0829217950112416
0,0836355960375534
0,0812742294197534
0,0821676890684972
0,0847217312513899
0,0830582273641134
0,080695636531072
0,0817855884792955
0,0812529388976703
0,0812106059488257
0,0812885182624052
0,0796965503635687
0,0785815750061881
0,0801108103243735
0,0810581669978888
0,0804348932629023
0,0776970886892649
0,0771481078848563
0,080006145008943
0,0805290166277018
0,076815815663846
0,0766756744500733
0,0851500961367037
0,0729509988149711
0,0807063586848506
0,0745215746387449
0,0808002239177229
0,0760007604067529
0,0788576899790453
0,0752761418153837
0,0769133843877042
0,0782064840996653
0,0749479961316424
0,0762177456609704
0,077863258919008
0,0745557880792828
0,0767775431285519
0,0760424700673828
0,0778886180388797
0,0742332088183531
0,0750808736042349
0,0734765274643778
0,0779690958313659
0,0756813989868483
0,078621558794642
0,0756472352215008
0,07756838465491
0,0761991353884472
0,077282421168551
0,0737177537262875
0,0749105864427551
0,0727390872614193
0,0742778564189397
0,0745889955153986
0,0732048631098479
0,0753241800603106
0,0724016463520367
0,0730281272359228
0,0714153080380229
0,0749347034428561
0,0724297692075605
0,0736801779507361
0,0737650575718143
0,0723671163061236
0,0709324536109156
0,0708672727268553
0,0744351058164149
0,0728325828076878
0,0715792058207775
0,0727895242260123
0,0692539015532256
0,0707799895995558
0,0706293202176231
0,0733282344240898
0,0679514691874844
0,0801745573331219
0,0660144610524142
0,0720879130238676
0,068667950931032
0,0697568249114851
0,0709108187646519
0,0700580327992309
0,0706710023960158
0,0716034507611787
0,0695497026610775
0,0710185481237066
0,0704261790636248
0,0691559448578055
0,0713984469168
0,0702307386797702
0,0685320134173529
0,0694547093118533
0,0691657660547583
0,0682144232325382
0,0697385770699902
0,0693277843695504
0,0742405142039777
0,0727403918590293
0,0655942072095947
0,0720466279150452
0,0644712360510277
0,074633525580308
0,0736517575266566
0,0631890021805617
0,0733072385816846
0,0645886284787031
0,0733081466884306
0,0650697798589524
0,0716473147462758
0,0631306336804058
0,0741421655489384
0,0662929840847492
0,0748908385564377
0,069653337773335
0,0708602509083214
0,0692746833447436
0,0706602217656908
0,0690650990719453
0,0709901166980759
0,0677136751716645
0,0694567537693925
0,0690394841013484
0,0663472658896999
0,067020206024518
0,0717081429239372
0,0651956080677483
0,0752810089515301
0,0625764258973313
0,0691101754375
0,0668439563064575
0,0743304976792804
0,0635893465750254
0,076826463364779
0,0643945242271287
0,0680585545093939
0,067344019561172
0,0656089807500883
0,0709527906441729
0,0667339206914016
0,0682350737722088
0,0685665628561066
0,0654293456796212
0,0674838945662028
0,0671409638300701
0,0663919503404613
0,0677083825815836
0,0691789817249028
0,0703936267099236
0,0650524346522448
0,0664994545392597
0,0663271709428749
0,0663916261999854
0,0679100531019134
0,0697203243778382
0,0736282864706175
0,0675953954380683
0,0714417560301407
0,0676377923813996
0,071697397244098
0,0627967081815817
0,0705733051431806
0,0643398369217826
0,0705472170840869
0,065279366516647
0,070583931887308
0,0674627780731405
0,0707568757618673
0,0647343151050494
0,0680888685909302
0,0651025263966276
0,0713703712232494
0,0654690828535543
0,071727636423768
0,0682077655021253
0,0681645070203418
0,0681012464840691
0,0693691618756746
0,0748533159858969
0,0645820161105233
0,071571385367554
0,0656930591090122
0,0957415887162668
0,0506264272369901
0,0743551366240791
0,066036089734456
0,0703169366163128
0,0712302652992579
0,0671746018572858
0,0712571841470233
0,0720464066428965
0,0678451842996279
0,0707150160990583
0,0671951341195723
0,0713555264743188
0,0694752885192303
0,0697611753585608
0,078179533375332
0,0754013874761005
0,0658817540673952
0,0742244583926913
0,0645820923073397
0,0814782050766423
0,0664185472872289
0,0680036515673128
0,0777030278112777
0,067323407627572
0,072086204002492
0,0707066531766985
0,0739338908372331
0,0703009522752952
0,0742556608800688
0,0690058428780148
0,0734227958448275
0,0717560883971953
0,0729786727534519
0,0735029231801039
0,0710687797977971
0,0781353339475245
0,0714066196612386
0,0734469133857436
0,0798794485456904
0,0675043461892066
0,0759214659303672
0,0723141504542942
0,0741373541759236
0,0716318295869259
0,0824662467424497
0,0729977834828013
0,0734687940123906
0,0851250618872151
0,0700022556654006
0,0745569325076486
0,0789219827073595
0,0771457371254779
0,0801442643710314
0,068722024012651
0,0998685878684496
0,067959987160924
0,0888068342789125
0,0743474965897017
0,0746423678565144
0,0801913710301493
0,0757212073328402
0,082403567636136
0,0777049032410349
0,0843124392783886
0,0689819844582639
0,0880120796701149
0,073491575336027
0,0973712187500145
0,0717614556291093
0,0858388267540246
0,0782697955984921
0,0820989911887869
0,0802565071803458
0,0889709475993892
0,0728685536974053
0,0912683199292912
0,0951592270234752
0,0778650558537948
0,0884600769552999
0,0750758605665365
0,0882408216882146
0,0993779533262009
0,0721408676222952
0,0906180670688072
0,0793848071698589
0,0932594696115714
0,0816908617974175
0,0958711994678255
0,0879689838571232
0,0842867030424298
0,0923919143500183
0,089374232449956
0,0875519977656594
0,106200926322034
0,0821656011823666
0,0966774630650751
0,0853130625227756
0,0986261356946574
0,0812750073882205
0,132731336376345
0,0762422999263976
0,118449609016009
0,0833652418515421
0,106528974657026
0,0941987645623059
0,102393300790238
0,0958636733607804
0,111096085680985
0,101242826264675
0,101438717351015
0,100444938136148
0,120712428837916
0,101308168188196
0,103721967244609
0,113177326466901
0,10604187159548
0,125752190414295
0,130037224459462
0,130997378133287
0,118298924523876
0,11811439392313
0,122731701477402
0,135718727495737
0,110637919795756
0,126705135726608
0,119162452193213
0,12772990268975
0,123616540824844
0,132434355129663
0,138889176838323
0,12931545072948
0,134237009824854
0,131711767811862
0,137065756590086
0,144940394829455
0,152677651369011
0,146292009238762
0,139332532733647
0,17147023300924
0,137110369446694
0,150465189415702
0,143863417231685
0,149354838592973
0,157788745532594
0,151446305736004
0,155872304678726
0,15275415460616
0,180054688058949
0,15974289844593
0,168616929995407
0,163560525459169
0,169982391039792
0,18564381318463
0,16692866100136
0,326510162018688
0,160273999055557
0,213071499545937
0,184294237477299
0,224360627404152
0,215301591766839
0,212451208332903
0,219679164507286
0,22995795090105
0,223461009017949
0,243756640321334
0,241698529788089
0,253673203574154
0,2635795788396
0,263968906938455
0,271985833136882
0,308942275238283
0,281447910099532
0,310822248206421
0,296122874193828
0,309953025670768
0,315793828726407
0,332073221663602
0,323261659513699
0,347199041677656
0,341375085016288
0,368328880173319
0,366572375761358
0,368341170441156
0,385414930022553
0,387890199819037
0,417466751287394
0,391127989179692
0,440762102691159
0,42122736724711
0,438843779448694
0,440994411780679
0,449309037891892
0,463860183430329
0,457135749035714
0,494244463599211
0,476686215588516
0,494009365188687
0,486693860892041
0,503117021196013
0,505472530472832
0,520127969001214
0,517032395831503
0,520702660997383
0,545066836121653
0,537199080700862
0,719976769729095
0,530034452117193
0,534443106459186
0,551595879557452
0,543346288349356
0,585606535068564
0,532649340263032
0,598277540452902
0,549015313593274
0,54928863612939
0,545335384911599
0,563856839909353
0,567050132186365
0,560716301281325
0,561522835034024
0,557222280760861
0,592437924671786
0,567008873559041
0,609684373321196
0,623672830910377
0,546212556033114
0,564941357842392
0,555346830052018
0,556766153726181
0,55628505610702
0,556412747985776
0,549074632852775
0,575384689291992
0,541923636764398
0,556110389674621
0,535337617556709
0,558538518092108
0,53274965135435
0,523973974699174
0,514858064938865
0,510844514428044
0,511359870145805
0,511865338775121
0,498795993346076
0,540793958835184
0,48425224696162
0,501007610828237
0,480636958645259
0,490109095018121
0,485533192668112
0,489241443234934
0,475156009938186
0,477267563763272
0,467047409330815
0,479279343135999
0,464545096629945
0,475400782254787
0,456877098414422
0,47260460835553
0,462474315466541
0,468999679218702
0,455479844270617
0,451933569387424
0,460475324617182
0,461714193832669
0,461121336790639
0,461901952501107
0,451567284978381
0,46445951080776
0,459142020582139
0,462918517212065
0,452345611428065
0,463106062389918
0,452977940023076
0,456450511584847
0,44802698487204
0,451708038042016
0,455331379441605
0,454840036786362
0,445814222025237
0,458228498074948
0,448625358369753
0,446797783546446
0,44790494314756
0,445249065789928
0,446599602588848
0,444268335899026
0,474258656998742
0,449137256297124
0,43618127981784
0,443210286235967
0,426778047322142
0,436378605462252
0,417644819804946
0,455675659449782
0,433809207041144
0,419362592428824
0,417060177803345
0,417169350385928
0,422379022820651
0,416006264016949
0,395848793132285
0,413680037084654
0,400220567662112
0,443024143263157
0,441044828151535
0,424947160776671
0,41729232368783
0,402059019271187
0,397851110838046
0,395150244188205
0,424827736442412
0,387330794983942
0,399912763156112
0,395511206126856
0,405676690033843
0,396724328356778
0,383738332181705
0,394218760208286
0,383219491623188
0,400830813627462
0,394259014517272
0,37895262656546
0,380683481300279
0,399148122099364
0,373588546588913
0,422370433264934
0,372581907188936
0,370339971066637
0,357250035821921
0,362724533194026
0,362586793002288
0,361863010289721
0,385096768088988
0,351563090030165
0,358298173262524
0,345191193832663
0,339314794831014
0,352207694579165
0,340881924622908
0,352293225998925
0,322692243291965
0,36137079098899
0,321688852103532
0,340671561952732
0,328459000188143
0,348835584652547
0,330949949973507
0,321070868271217
0,317833949280476
0,328410228986999
0,337632965572884
0,317480235024224
0,319640372494315
0,314758966552248
0,304392043788667
0,314656043887611
0,296665984108867
0,304216011527701
0,297738769317044
0,309543144752919
0,311995811309787
0,308517928128123
0,309256477757525
0,289768891157152
0,287171302662001
0,292694114939329
0,286938974589954
0,286942844360513
0,285085430268859
0,298556320489704
0,291579712207567
0,27668105360432
0,316467300449629
0,285530506052823
0,288799142871653
0,295369728832211
0,292185740842043
0,300652711985684
0,312173716927583
0,307997868543095
0,310716560785693
0,29963179983939
0,323199614373389
0,308533451053356
0,321704732555121
0,317610966779702
0,331335984924781
0,326272624599392
0,34446544369544
0,345626780867098
0,352054848315742
0,356728270137544
0,373233334064101
0,370080096915697
0,397976567916481
0,370886443520495
0,408501216221262
0,396794723537467
0,420238490716158
0,417577997653943
0,416822981508637
0,436522853325823
0,432838107263607
0,440128788709222
0,448018233204384
0,449763841393355
0,480161334092693
0,457809339735217
0,473072216718887
0,473280160960869
0,488372382536936
0,480556432486806
0,502547750840768
0,508335098879572
0,492365731935745
0,515707424787805
0,509916927908062
0,521302866336037
0,504449138965982
0,516682109962334
0,523614517661468
0,517939560717748
0,525568408932836
0,525576906774685
0,540694158341754
0,527949298554315
0,533006390636067
0,544039394801705
0,545006462445095
0,547917308653006
0,547208638771138
0,552349672898434
0,557269833177459
0,5637785530789
0,566357219757108
0,55489040347218
0,592420139052725
0,580346503508352
0,570941746074361
0,58450438597615
0,590686402851007
0,594818093329964
0,593614289899053
0,609775234174006
0,604358119740333
0,610487239820127
0,612199221331082
0,609740430285086
0,627364340250807
0,616511387205325
0,645983587085765
0,62523195248323
0,634744889258649
0,647065313670508
0,640394741918655
0,690652999393803
0,633079220208693
0,662554080379337
0,657416074712712
0,664278656776575
0,663827733228847
0,668147018001498
0,663986735653716
0,671270993771816
0,66345586773526
0,670290339817145
0,677097060085479
0,667519028607515
0,673158101456142
0,662211783618555
0,677473841576906
0,676552082133633
0,669280636435924
0,666226030486874
0,666437461215416
0,668731154793858
0,669966286599697
0,685251926204793
0,66910490042508
0,666900805834706
0,657728092727167
0,690736360054541
0,68089837592066
0,666095610239581
0,667675577679163
0,675168067387391
0,667300510646004
0,684110229386793
0,671960775695204
0,68197521014724
0,681016698885465
0,684293482687696
0,68352988152616
0,692708985852066
0,690159396957312
0,69724751185837
0,692030157931559
0,701443618467464
0,704557416899653
0,713861925734266
0,712107145380167
0,708117228194367
0,717615853399127
0,7082334802117
0,703268490099624
0,710765153211713
0,712354001212883
0,710616772077396
0,701430684207868
0,71644526656991
0,698829761216242
0,686786532562443
0,679680494638525
0,688326428119288
0,670513701639001
0,679405562611615
0,669743129248496
0,664805201990909
0,673320615301465
0,654307196325579
0,6545526327056
0,641946905492379
0,647717794672547
0,63584290034646
0,640411474451931
0,637857954711247
0,62545362890493
0,632342273379805
0,630831160240213
0,621094670718005
0,627631577575613
0,624162322650379
0,625330769049678
0,615024998278966
0,615593252416493
0,620527891282583
0,6180930665417
0,615706528930891
0,612084937129647
0,612727958402061
0,620657555123772
0,611646831569033
0,619538931415898
0,612165845993725
0,625676782759544
0,605060078361879
0,614217371934071
0,617446188387269
0,609903426184412
0,611436957329033
0,617021553116387
0,613721180740425
0,607400158125069
0,60945355529464
0,609988398971339
0,610725052759878
0,613311250898267
0,607891047187509
0,609714064781728
0,605317809512159
0,609552220179509
0,609969915760638
0,600760740619694
0,604233305773613
0,601236969864659
0,608228255534604
0,605537617520577
0,616154890448476
0,613671599942
0,615773485610803
0,61249649456223
0,607155759378632
0,612318316481016
0,611720288884186
0,608217108795783
0,607426287464185
0,602620171301416
0,601449772073271
0,602093425579691
0,59879582421695
0,59859436011631
0,594431931412856
0,587889949392485
0,584294306268605
0,58034766707666
0,572310387795556
0,567009221257174
0,568711596197841
0,560484778931762
0,551845938237179
0,554127496467202
0,555491135223189
0,547452370903949
0,54364033700661
0,537935391204883
0,536133268917154
0,538188247353436
0,532491815463832
0,531361729104855
0,531886674062549
0,528447002555923
0,524021815488127
0,525261563814184
0,524594986712067
0,524978011738802
0,52707779720874
0,525387347686629
0,524233867442235
0,527596894243107
0,527539633023776
0,527968577044422
0,531638796342477
0,529414928419401
0,535942220973987
0,536559035254439
0,536082142558552
0,545703746799566
0,542878622448319
0,542894286146114
0,543600182507987
0,545675081256583
0,54976621277232
0,551377293987724
0,551381336429088
0,556023246120045
0,558776087703109
0,560309931368958
0,55588645981977
0,559592925209319
0,557480089990497
0,552216790283952
0,559823116922266
0,559421160163599
0,556921480198914
0,558698408116178
0,556638834973177
0,554903210587616
0,548595277606674
0,54925537677233
0,551118487540865
0,548194690127902
0,549491362972491
0,549650897078068
0,542665184426476
0,541593546331006
0,536426312116125
0,539046503296732
0,537238675989955
0,535225785942769
0,534573398062382
0,533128301267005
0,533151576833968
0,531219066092573
0,526696139568087
0,527751767125048
0,523737306018376
0,52364965575329
0,524185647967371
0,521758577207968
0,517370004565477
0,520856801920381
0,520619684047508
0,515442489612797
0,51377925681919
0,513960707938485
0,513404045811262
0,508486348479567
0,505473297897524
0,503455695568091
0,499325155413564
0,49674228554564
0,493470935223906
0,494984400488455
0,490805762669165
0,487551499615116
0,484372124224451
0,479005107354997
0,473776572529406
0,470475232930757
0,469001053977768
0,462934309091565
0,460829503264045
0,460269524285354
0,459679753942291
0,457554865541098
0,452776559054018
0,452516327083885
0,451444710405869
0,452641308502419
0,450161342024494
0,448261865130175
0,443790678500323
0,444933046095199
0,439874701060258
0,435662449374403
0,434816164181271
0,43090206876417
0,424096094014381
0,420352707218774
0,416390949183061
0,4092115727028
0,404670380271373
0,399248103890155
0,398509575064426
0,395737238516786
0,394695773029378
0,394285248558547
0,396911336961899
0,401284602002738
0,405852388335143
0,411724910046847
0,422581672598287
0,434071748711231
0,448972393951628
0,464425410941659
0,477399454689484
0,491249967559809
0,508904766906821
0,529071164829695
0,548915449013595
0,566595679572617
0,587151603789013
0,59772898127545
0,625352965933234
0,641529129345943
0,657100648889211
0,674515632440237
0,698176029464086
0,713582281161823
0,725329277779885
0,73997174783235
0,762459767162612
0,777027036831788
0,780855534968049
0,798148311799858
0,811247083967805
0,82245266434993
0,830199827890547
0,838011394700456
0,852695273183221
0,860997280448594
0,871538755353807
0,876091127980174
0,871420253750669
0,885516886300167
0,88392789922982
0,880834339132854
0,887065445292572
0,892054514897739
0,880408512059077
0,891132613035309
0,892517190168204
0,89273512052297
0,894512882201989
0,901749964983214
0,899208119813582
0,900434060069185
0,909740891638667
0,91466374386834
0,911387782333487
0,916754016588147
0,926458134767521
0,943640065208168
0,947074456526411
0,958230567085624
0,964416373115803
0,970158124026688
0,971645086434035
0,991293084935931
0,996278092912067
1,01047403128202
1,03594604079619
1,0481833693055
1,05049476077419
1,05502766541466
1,07919973820896
1,08956710356505
1,11142828076596
1,11335056120003
1,12339410222309
1,10851777516966
1,11994391656287
1,11891422396863
1,14149240897945
1,13192924206874
1,12756087058535
1,12591924950555
1,12869682097431
1,12684180659627
1,11873511816495
1,10355044909728
1,13013314546257
1,11418342143972
1,11897469405447
1,14125990613746
1,1575714029604
1,15847415262034
1,18826332382939
1,19379405996629
1,21929339899791
1,23501278673121
1,22835140243679
1,2602595792292
1,29428895273475
1,28437264830771
1,34662160184898
1,31534891318592
1,33806774114797
1,39279583173567
1,39692056767145
1,37816413749665
1,38903820944758
1,41349567595426
1,45052664601887
1,48827119344681
1,54363904550577
1,57680634722414
1,61396469461608
1,55430485797443
1,63217201535367
1,6340558916308
1,66312623807341
1,67192208901346
1,69206349060933
1,76497345802706
1,73205269366824
1,74285321667596
1,86335490331423
1,87699455320509
1,87788950830239
1,82299691468939
1,9954223563895
1,78019642851934
1,93649045566062
1,95736214979191
1,8616023496154
1,75961545380613
1,97111782574671
1,88347308793703
1,80432116359283
1,81580256525646
1,88400492778492
1,92253586293597
1,90859736713729
1,85226247638869
1,86802926158973
1,85437261888324
1,84799390762581
1,9061907564368
1,97220233135529
1,87347010034763
1,93026271587859
1,90731260998498
2,00480086415831
1,91694311771546
2,3002088052718
1,94417373263842
2,09351719657476
2,14354127250172
2,14329001802546
2,26988876435816
2,09312737760838
2,13604226361062
2,13411577521368
2,37409097470647
2,00178848142385
2,15794236553127
2,14850386289901
2,41835635367539
2,4935972813881
2,34107713380297
2,10899757988055
2,40262526627312
2,34949107550207
2,19624897762544
2,43742792189592
2,28937361366207
2,61129487088085
2,33977827836607
2,56439106245364
2,51183826064262
2,50511097270493
2,32297455684294
2,72394140402441
2,28417893471486
2,2525242128473
2,17965775342612
2,35148635399497
2,10602711376081
2,67035040825031
2,00673368222486
2,05639674446856
2,28237019573615
2,005164013148
1,96337161185911
2,15969140011526
1,88226158952154
1,84001609477467
1,79103090670151
1,77960544333892
1,69968504174423
1,62502919490034
1,64081759127699
1,65141558500857
1,60360691955853
1,50719364469857
1,54255788212157
1,58565812868664
1,56336096488545
1,52327274982906
1,50087691111568
1,48269021274379
1,50524941988023
1,55754477042751
1,45069762160474
1,44930794404365
1,4560278970676
1,42766817271558
1,36178777080608
1,36906351666614
1,35263298755732
1,30446457297625
1,30055724077147
1,2495900049202
1,21723932278495
1,22005369008832
1,14437150917726
1,12633813177444
1,08091925823124
1,04103579193186
0,994804769488639
0,959362949664874
0,913622789409301
0,876232409426149
0,828023556585475
0,803268521950758
0,76934985692795
0,740539850699218
0,712294509272702
0,682128816925442
0,654591000391011
0,639537248015927
0,626864190122202
0,597788397029204
0,577543841307486
0,574011424283872
0,569292072101263
0,559159534338376
0,55481277031453
0,543287391320956
0,53851943452489
0,540651175457293
0,53436988652848
0,529286020743089
0,525784338688103
0,526809282572222
0,529706498960385
0,535417102069614
0,53187313693953
0,534846054417881
0,541067627139241
0,532573117357667
0,540609437027666
0,530382105163967
0,525231692089522
0,536252901072498
0,516931037030123
0,526789397086059
0,525400391820478
0,511993763591811
0,51064265689897
0,510050766550657
0,508491189250858
0,491763198979422
0,497266707452811
0,493580825715602
0,494590269158629
0,492517194742261
0,485310715534965
0,49277116584443
0,497238936357953
0,514558032024391
0,50000304795984
0,502841776584124
0,506084182968816
0,510262892551537
0,505972598815583
0,519047686190272
0,515409075846836
0,517910843897343
0,525197962556171
0,524937345777565
0,532991973404325
0,541789045736032
0,533921696567488
0,537223069548922
0,53328205646131
0,540566110826845
0,532309654149401
0,539005922729312
0,540078166575822
0,543335675611108
0,542224029607309
0,549143497588906
0,555489177813661
0,55909321095194
0,564690991765574
0,570861170062881
0,560996900015026
0,598955652352909
0,597518510005234
0,612081336406143
0,616496676999815
0,650565709720005
0,660970642463047
0,672779646729454
0,671075193052781
0,697899194427
0,701189277364662
0,708765423221641
0,719211984107673
0,723654582086599
0,704916263838527
0,704978496883581
0,696429088856592
0,688616845255729
0,666922346447654
0,672266383017879
0,641185017429236
0,642940498390339
0,633850476196221
0,63692814477028
0,63149714910933
0,641494147340704
0,641415050994043
0,656683214402706
0,617659817376141
0,651654507716188
0,643821532770539
0,652692802110196
0,621958801786474
0,639011256359589
0,634536642445106
0,617779986324068
0,611350684232072
0,610027723236793
0,591527823660075
0,596020191960654
0,589572637508393
0,597787488033792
0,566408018860038
0,577297509515925
0,574847700201328
0,56504497093059
0,543539124825124
0,555580578964024
0,546146919550001
0,56511894748473
0,571360161814674
0,559830483860542
0,541133845961003
0,541692472420001
0,529693361354407
0,543323010965147
0,525881018730554
0,524694497405835
0,532345655480383
0,524353985745473
0,520251973307951
0,520302678787335
0,500540384027319
0,516327089747427
0,505891535247119
0,517945698158855
0,491724177894871
0,494905632429015
0,498614686227691
0,501222643683445
0,497913963253748
0,482354774754301
0,476996874712107
0,483759580941648
0,477112903969294
0,495423588308331
0,47987413658787
0,478825685109163
0,480510470654497
0,470548596691027
0,482039575138295
0,478424534816797
0,470072700942212
0,487016457171256
0,474866053372353
0,475165748001926
0,470592061004591
0,476993673297736
0,471390960570863
0,501025609237684
0,477180513109729
0,484845963990947
0,483257392430247
0,48061573668701
0,489832562418138
0,498283570871413
0,495614341599503
0,497735463134836
0,504911463611741
0,515715902693549
0,50022273484929
0,515290182352168
0,49480542064722
0,541081131903429
0,502501559595779
0,522701626223611
0,524707926911097
0,552963158189507
0,544010566523796
0,569242140950098
0,558935421015135
0,601236844343588
0,583483457864045
0,623583368503867
0,595710238982962
0,634657235765958
0,640871696198538
0,67441387120181
0,683048452536576
0,708253976827962
0,732328002247784
0,740837484492155
0,726072774729201
0,812091463865736
0,815863076256729
0,838517980792513
0,819477775425391
0,823874306155331
0,812805248644767
0,847142252365388
0,827773212063498
0,853103368145743
0,850710861769839
0,901671025985227
0,87136566986696
0,823943349839241
0,813289114100335
0,822250815580402
0,794548741029022
0,808956995737175
0,800130620036917
0,866483264252124
0,795157374432613
0,863693753588435
0,776206506766394
0,836630728349109
0,771245355578232
0,817442813659908
0,738682616709565
0,788973388100779
0,765578510762816
0,807017687955016
0,782623656794794
0,761111225243061
0,785526812169532
0,761807164666958
0,754864585721884
0,760008176620099
0,739947839601568
0,766387460372422
0,734471736009392
0,723249918747098
0,695285993561092
0,725922415495674
0,723034528542813
0,74485948998431
0,721474347917521
0,786600544642238
0,684180893564679
0,732987716430538
0,677747223930174
0,73558763243032
0,693364951188399
0,743251916502936
0,7227083339856
0,745440105745273
0,665045157658003
0,788740468255256
0,726783423968061
0,741657442698653
0,717640389645938
0,749649041227709
0,673514864112389
0,835175867746154
0,726022228499679
0,849004094201553
0,761278643223563
0,804300318525191
0,823876721431839
0,76687530738126
0,810545689159058
0,802736006377576
0,755078845520753
0,802188719500457
0,766686396160031
0,915637863820106
0,822509850709845
0,826023274438728
0,71702689195878
0,779983935210119
0,804597429298576
0,839409323987722
0,811336756421252
1,04460149331941
0,880113240893563
1,00770833025219
0,828934315293736
1,03203983499573
0,892175507611641
0,959197017285466
0,885561644570141
1,17707871816169
0,908779953310362
1,45699179388595
1,0444674204822
1,147454273586
1,0010966397067
1,13813336182177
0,968591842134283
1,03145550008901
0,846325050469807
1,06879645331582
0,832530663330223
1,04615686022339
0,937304272224492
1,36784213229375
0,855962301461086
0,947464328402693
0,828318894564965
1,08746052246958
0,89701445220591
1,25116105355898
0,897003744711139
1,0689554381705
1,00583262152788
1,28325640576125
0,87248610143111
1,12829906381295
0,899506375018215
0,854786268263853
0,723314255209345
1,27000211960661
0,795228155700111
1,22099572173729
0,776316286391757
0,892956130748109
0,964607695122743
1,47069089842226
0,815634061809414
1,51526655020628
1,05907411089298
1,00049203667865
0,715750198791607
1,26756296640712
1,49341632803129
1,47424835830936
0,808660190905256
1,47398813721881
0,743356489675577
0,909556367923124
0,95713385577556
5
1,42227464764854
1,02955664208915
0,957365492298336
1,1784661515505
2,00466288253998
5
0,541890672707375
0,972364276605794
1,05495710052081
0,68071933710129
0,756129354454249
