3596
4000,36533379555
650,420452594757
1
2
2
0,0609972715400163
0,0515030513110812
0,0557293067042414
0,0555783501724693
0,0442470836572853
0,0555642565116927
0,0512935376297741
0,0527091627776595
0,0490160980044027
0,0516905080726762
0,0490392023354102
0,0541300808162109
0,0587293752239133
0,0587041059908855
0,0480046970944546
0,0587270926938287
0,0412799563401248
0,066841374984355
0,0564709224735567
0,0584778045833193
0,0525273830369192
0,0531677117203133
0,0471630519123481
0,064658594403903
0,049769035752362
0,0530054905442107
0,0543555616469221
0,0619849103761764
0,0502801754295582
0,0526792182914287
0,0559362324185931
0,0523738452627672
0,0468853481292794
0,0504891888705123
0,0446033780786697
0,0644935853030787
0,0527086201525628
0,0526440286046063
0,0557754660769267
0,0572680868373926
0,044511852584533
0,0590139854034924
0,0466097720671223
0,0586836479769376
0,0554997684061495
0,0500996487582667
0,0502518278937865
0,0555088063339069
0,0509516378212356
0,0520773327455954
0,0518405841624898
0,046381043038863
0,065124675349792
0,0531230843843847
0,0627834702855908
0,0531963039741535
0,0499874085359105
0,0589784598630671
0,0449809366497701
0,0495326498365216
0,0508367749436543
0,0432045616646811
0,0573621961646257
0,0464904910658106
0,0552664526798089
0,0450795887814753
0,0540411080567561
0,0447367115965493
0,0673212107713346
0,0446699104434313
0,0536449142598014
0,0553801476742784
0,0427662469523036
0,0635679249112524
0,052354759537679
0,0484557789075168
0,0506328332008558
0,0443390806027704
0,0471256114644495
0,0499176189980784
0,0479691071053462
0,0420706268642241
0,0447605549393983
0,0517199247394047
0,0756213153957383
0,0290805626956883
0,0554299573765809
0,0539260984242316
0,0427841866773699
0,0402162348849436
0,040618705807588
0,0400132964568137
0,0421640214111808
0,0530668557895623
0,05099719031785
0,0521700034441491
0,049334981047244
0,0563653093230518
0,0501522697365756
0,0595451492182527
0,0262771703462168
0,0937863142718177
0,0148673945594859
0,0763993199172333
0,0492482595906498
0,0402368758723741
0,0702175687318792
0,0305053598810928
0,0568084688065495
0,0321444455445304
0,0494174492843354
0,046077241445761
0,0595066639174021
0,0360208596214515
0,0530577486358404
0,0574110171131972
0,0386109051664427
0,0436892014264664
0,0348164533640421
0,0347655050583111
0,046068852963216
0,0770642298461303
0,017138772837838
0,0513217243636752
0,0416632048160919
0,0411771093435044
0,057839296062095
0,0547486334490206
0,0283707321439066
0,0504027561658746
0,0343687202133263
0,0459196791399053
0,029424816388304
0,0666711597240355
0,0328597319338113
0,0412743833623162
0,0488065831433919
0,0396189830873383
0,07175365359561
0,0224866407952193
0,0478509219288537
0,0454821595559049
0,0405521572899852
0,0556458276160622
0,0452064130921984
0,0450591761326395
0,0526986737884508
0,0489885684585712
0,0324363223846212
0,0503041693760298
0,0399219183103015
0,0550192473920112
0,0550242095017503
0,0432101573254634
0,058782133261988
0,0779888514853478
0,00293906794555837
0,087101646892631
0,0156173722080101
0,0471389590811395
0,0350933457279326
0,0386377382428255
0,0485833868859125
0,0450247212630429
0,0412932766828446
0,0443885816241711
0,048161600653584
0,0412286015510965
0,0473415907229458
0,042401630820737
0,0470435276362406
0,0248680582543186
0,0737605216541444
0,0387863524855649
0,0267815183607812
0,0611003075016812
0,0392020772709441
0,0449209740641133
0,0402614645602636
0,0652866678201388
0,028358370757651
0,0477988516643779
0,0435262716432984
0,0518682787435202
0,0502797083212633
0,0532245810446943
0,0367747183829603
0,0568713321596741
0,0312033449695747
0,0522996451947205
0,0539040435721084
0,0662487191808829
0,0224226006303896
0,0548994788516407
0,0445145654980125
0,0497728852564587
0,0506809161535133
0,030411176086453
0,0533224079117278
0,0416126482095949
0,044600924238304
0,0436356953124584
0,039545854052236
0,0496227910981848
0,0318687929437868
0,0584741214831091
0,0451051839315014
0,0400789458892023
0,0483211406359596
0,0503575269955904
0,0494601942571359
0,0466404948947379
0,0761152145339778
0,0153516587933402
0,0502323301964344
0,0398699888651936
0,0586664129477133
0,0428936928243299
0,0447988947201428
0,0457491376491913
0,0423792073312329
0,0449413877171175
0,0455859521528943
0,0485129654108221
0,0519864723871594
0,0419059593488012
0,0494090520855981
0,0427646672333388
0,045679663363734
0,0478403190111386
0,0426226922433217
0,0404616207562575
0,057218417045681
0,0444772055427439
0,0378959462970016
0,0672171831570124
0,0305078218267454
0,046206100309889
0,0438863200509085
0,0473814810197744
0,0437453058458264
0,0459395785120678
0,0431841446331136
0,050928775927138
0,0447622772122282
0,069643569701855
0,0466241446967787
0,050739174921358
0,0476028879583593
0,0414006933230749
0,0727925966682632
0,0215686296871696
0,0590975861147756
0,0327195956133423
0,0635675322132202
0,0315381765653953
0,0712715138832328
0,0389022200411353
0,0435109134896752
0,0410055020801825
0,0691837521584683
0,0323046028840127
0,0614604012181811
0,0351946258918718
0,0792994934103291
0,0405074949928401
0,027947634543216
0,0591156616948436
0,0376324186846671
0,0373385010692836
0,0728197222687465
0,0339207815381745
0,0893248461629071
0,0432697027249151
0,0545786705811645
0,0240133087455456
0,0772037061451878
0,0434738157437451
0,0530074006193705
0,0592761475021832
0,0392293260620667
0,0779598486129346
0,0277324189405244
0,0710561579112015
0,0674808241530696
0,0489481118237193
0,0908977918585274
0,0266090042728343
0,0627405271363774
0,0292128415399453
0,0594496589591972
0,0505078997854708
0,0906793986732732
0,0333997300760325
0,0898045007124053
0,0290477224802135
0,0806915842408462
0,0471243017289677
0,0552126437394766
0,0435022349203032
0,0744392892801018
0,0450114915874845
0,0610483525706658
0,049739142575138
0,060561849917939
0,0619794797690896
0,0568293658247806
0,0667951809310883
0,0672394409708627
0,0474061679397948
0,0915803463747645
0,0373561480904177
0,066628265397896
0,0597731480434453
0,0575365560103295
0,0528304819009623
0,061671348777408
0,053374224483453
0,071240190259156
0,0590200142494268
0,0576294146911843
0,0616051322276575
0,052978103021705
0,0570184285247992
0,0666470816972251
0,0654612720908553
0,0616858226364129
0,0649289950570368
0,0676447589739193
0,0618990427118876
0,0945149510653385
0,0465743481408817
0,0668637162344229
0,0747608873965855
0,0502506661216464
0,0687504892570258
0,0653437541358856
0,0728451079787075
0,0632849853110501
0,0705970232635837
0,0776846678216375
0,0667967060764667
0,071706685152647
0,0743857548456014
0,0753119678822173
0,0802079123074703
0,0909517680511541
0,103182205758399
0,0935744083205158
0,0683979919707637
0,0825145536657812
0,0638385499850058
0,141578043081508
0,05554170319886
0,119741200864317
0,0554081882447498
0,0894219469070294
0,0872233810807044
0,0898580296550818
0,090424684940315
0,0891640862277491
0,0922492373801464
0,0943925522013694
0,0980860043165738
0,095974373357
0,10205109803383
0,0945332638638866
0,120895335068054
0,112586085477324
0,0887942699561508
0,110447666052531
0,103573800614119
0,113180170021711
0,136517743492054
0,107111877253405
0,156610818247603
0,0940531006747117
0,133854646830025
0,117386928366686
0,104036296512214
0,129739719226963
0,113557978529406
0,138969617106008
0,122108053474891
0,13160285259878
0,125144907512531
0,137226071854412
0,139858208602819
0,144984803639045
0,139443557591013
0,144107328748015
0,147877591358698
0,169130279638003
0,134464762771401
0,166490809869681
0,149536775697226
0,214849330449233
0,148412518366042
0,197594191234355
0,130716818055745
0,183236880783875
0,149581566733137
0,183899571007936
0,163914564674429
0,193527691739342
0,177607229197921
0,199285453501463
0,177043511390033
0,196195440500037
0,203885628851058
0,192515569032567
0,167206406268902
0,225949249134925
0,186389798210505
0,236827566422385
0,180746780934972
0,218119463736805
0,195107023643665
0,239517716111835
0,194467346322374
0,245718274079081
0,216750874451098
0,223638412207966
0,219720709758445
0,233744661186382
0,235565976893934
0,231942850838797
0,241714424681141
0,261774787219215
0,236570264651614
0,240246944209863
0,243213255877045
0,269495383732393
0,262776875350943
0,268307754930952
0,251881589327969
0,264228425931022
0,261295410945426
0,291381172220635
0,262334914723597
0,31397957093223
0,258884545666529
0,314167188931163
0,267266564460896
0,276194226887009
0,289814336856181
0,305558697882314
0,294809420023646
0,311441788375121
0,310890700052302
0,331692700180797
0,297546390818675
0,339922550158189
0,319562997227608
0,346491865190531
0,330832734123586
0,352691894318922
0,33821015055239
0,353334738137886
0,315169828374129
0,376453459174236
0,342590479250251
0,416038873623854
0,348846153580051
0,413591764807898
0,345229475151984
0,377078147554759
0,355141359283312
0,377776025725621
0,385644694301592
0,387063483525066
0,384223983262847
0,398410248127901
0,396251937160487
0,422489163885946
0,40964563432619
0,415921092718635
0,405372111019112
0,432011325418326
0,422697165174532
0,436086272173877
0,403388271817592
0,449223587511582
0,430389721061336
0,481598652875187
0,448158117722811
0,468232481900312
0,429997119764304
0,486445928635672
0,454916924771914
0,487406425837658
0,459822461243262
0,461382428569999
0,446997159001793
0,493665674924171
0,464304875999318
0,520157100178012
0,500923843363796
0,502431686204282
0,481236043691543
0,534978820968833
0,51169939450079
0,556430795975429
0,473942890639864
0,562352765146301
0,529275685794655
0,556462055198338
0,522214929016856
0,549951291021178
0,544261068725919
0,581481714627945
0,540380206085801
0,546619162264036
0,543508723742865
0,569395785482861
0,555417991755128
0,591920308789311
0,558593578673862
0,620072743578389
0,585054588909728
0,595776953163135
0,565489637565126
0,646846640930571
0,613224367527515
0,62482957350638
0,581931451452382
0,649930240086969
0,607321280534422
0,668051109409373
0,626979083609296
0,652288197169377
0,635243115364582
0,660232399338963
0,601241339416619
0,659102138523369
0,638273549036818
0,675798859424909
0,661637298808843
0,679986623561645
0,678630819785436
0,734782461127637
0,657502786851138
0,731909616788917
0,677733810569198
0,722192349421119
0,693969784957127
0,724553836564678
0,711627455569163
0,751072901160953
0,706954467610989
0,76205813112613
0,716009065242124
0,796589365865848
0,712339412009044
0,831064868162891
0,763741623963572
0,757497561863427
0,70780341449395
0,799124957522151
0,760289544908293
0,831418835287842
0,72447815549955
0,825141816168262
0,752831915431401
0,770749557021308
0,74667912433692
0,790047847647203
0,750343822987662
0,813810486715187
0,781393298043193
0,836567133818807
0,748670007742503
0,852144409539569
0,85314200976128
0,844289749787878
0,8128692855326
0,861060689683553
0,769762818333362
0,878650784922612
0,88791403264313
0,886447897539475
0,846405585562908
0,851679736791545
0,843748903134475
0,929911294513074
0,84491084404854
0,879690665225877
0,817939471348833
0,93042141576058
0,882274807107593
0,877895304903177
0,847815431120396
0,973343058883844
0,886013588401985
0,942959005589958
0,889287536829319
0,965583460930973
0,929167782265861
0,952338072007017
0,888103262896691
0,936640008265009
0,884256610650511
0,936385234270035
0,882281044468051
0,948139469465235
0,907114771083099
1,02709253476919
0,964713077896691
0,998159966349074
0,927204268314464
1,04900025554556
0,978299842579993
0,95805236266526
0,972068224205164
1,10918986078348
0,998452971940164
1,04101454953529
0,953548493987334
1,0295315081324
0,96391075581653
1,03403430455382
0,979018100630709
1,08901087805188
1,07572407673849
1,06818217187024
1,01123964928715
1,04023382922245
0,995873763344859
1,09122306309225
1,00170970720043
1,03529187293102
1,02037065470725
1,04952452001369
1,09000191505744
1,11590023756483
1,06171726951794
1,16461658753308
1,07102941346283
1,07138261723559
1,05334149619288
1,11368228584319
1,02968741078763
1,0677682230976
1,03470513889203
1,11921823739
1,12771459273276
1,12466710717699
1,06244754887657
1,11890590933159
1,04540287244331
1,11853374477493
1,03834219836238
1,12769206018574
1,05868216364518
1,17875105061532
1,10744749758962
1,21133913410304
1,13467514681092
1,20168427827915
1,14150063248537
1,1706364875011
1,14176426140055
1,23943839377678
1,18222940656963
1,15612923366194
1,108960979467
1,19128835684189
1,06846027371044
1,09191198724327
1,13437010232524
1,18597978118884
1,17999945119965
1,19554429861979
1,15717085423789
1,14911024857665
1,11696631039567
1,22203823712155
1,20875818441317
1,18036612178492
1,16272631339795
1,23592254050798
1,21803503793086
1,30406757263766
1,14684788896442
1,18305865016191
1,1815868955407
1,23507861542831
1,1996721990109
1,28229065680781
1,18587250045054
1,17906964272391
1,22668465976074
1,27016352884374
1,26776674637761
1,23961393297249
1,10146037810636
1,22197522562709
1,14744773880507
1,20077253966993
1,21870770054676
1,1871292301976
1,16201120488255
1,19435522160657
1,19773847559089
1,246563699282
1,21067707599615
1,29689807896113
1,24502562775683
1,22978044375481
1,17741280377188
1,34013330824453
1,25750600753765
1,1858972783414
1,14252661384273
1,19281708760515
1,18170545364841
1,1883120602611
1,28711315029049
1,30455148546737
1,17301840779567
1,35429052200777
1,29133737288015
1,2466712142197
1,21786975333822
1,26590125436265
1,23629857382631
1,24360438934309
1,22515583464723
1,29668067320589
1,17992565938639
1,2225136405004
1,21574205137208
1,2389025773968
1,2252923496211
1,28160796323766
1,23245651589307
1,27610088037026
1,22401700552305
1,19181343767114
1,14789731962121
1,27773562942159
1,20076187086154
1,2510919337395
1,25040296366426
1,23098070838994
1,28398771375493
1,2521773109889
1,21302557853159
1,24807766353223
1,2946745844898
1,2184395474077
1,23491323903538
1,35035942963575
1,21735535411834
1,28107574985595
1,2268607995198
1,22605135023081
1,24048408251317
1,22313143439785
1,21650599498145
1,34883503496148
1,27835853330884
1,23386635257346
1,20832899143491
1,25128457911216
1,29701497353543
1,27100285273692
1,21922069240919
1,2352840755543
1,26816789617035
1,28341065334309
1,24434932947784
1,25673582328713
1,25487866699179
1,27303851279228
1,2024082177882
1,22089869838341
1,21906118950667
1,24040362328718
1,23036998707229
1,2245202418278
1,27806865541245
1,24082684902314
1,1990768832221
1,30117710322362
1,19700343718768
1,26161722498652
1,32433172214922
1,24770802393234
1,25519438367986
1,23031875837373
1,17509713279505
1,24016083686883
1,20743875560516
1,17670242128972
1,20909868370533
1,247249372518
1,24431107456306
1,22374758295897
1,22558426710463
1,22358072486322
1,19624312258405
1,24439534391282
1,22699518738926
1,19132137431057
1,24443703300189
1,26496540164603
1,23150065556733
1,1869223631165
1,14765065193225
1,24754280499067
1,2437003175256
1,20585700207724
1,20881972022383
1,18359297021914
1,16484745877758
1,16602256990578
1,19436990231746
1,23452226672899
1,16557194536682
1,19308053819843
1,19124318287131
1,26422033837393
1,26763103944845
1,16760266369693
1,17832924386021
1,17616051005253
1,19224967805262
1,26454169887503
1,15695939876086
1,11571098351508
1,14666244673107
1,15663383644777
1,19171531546002
1,13502867688651
1,09885842810661
1,12559080466499
1,15242366316877
1,13051328564194
1,14761572064094
1,13707611908519
1,10096977848824
1,16612868125604
1,16245153993713
1,14479033889154
1,12140440861182
1,13252292876891
1,13408252197664
1,12672679694546
1,15087495265792
1,13030570471843
1,07177209055204
1,08217950008026
1,11465449220416
1,07420655314309
1,0840489689208
1,09501990718723
1,08492899258156
1,06912856499126
1,07992780745808
1,1058446614575
1,06823293502992
1,04300325643696
1,11354685197867
1,07198433584392
1,02705202630955
1,02986822445476
1,04563915896113
1,07618767885301
1,04878329469616
1,02854060820835
1,03653255779274
1,04916689044451
1,02308582789211
1,01075474498964
1,0506816876532
1,0090735667824
1,01254250668541
1,00059856550316
0,987139912278107
0,997873303332938
0,988875381507458
1,02649688236974
1,03479973676777
0,981220923292519
0,977214461065616
0,964849273870854
0,954500064079653
0,980410004330327
1,00347940951044
0,975436911022259
1,00786950663773
0,963547360474668
0,952517418191411
0,967396853975591
0,946964228591492
0,939926207890041
0,968709147512791
0,92868561842515
0,936107307543589
0,910277083479082
0,887895417307302
0,930313594140105
0,936262238668922
0,919055709031355
0,945644688400668
0,91649232891541
0,897313550711078
0,915177249444153
0,898526209161653
0,912415629316213
0,914374705613071
0,882960914107388
0,886625981993187
0,885279688886918
0,871128096146328
0,851457668877283
0,861100929136299
0,863092045177075
0,828067048427562
0,848381145172646
0,856783751636227
0,852578341705647
0,863449419836474
0,83722687265793
0,84329771939769
0,822959475115544
0,818519529470058
0,835667653952986
0,852563622846905
0,813200332935612
0,824764790710715
0,819251521623544
0,825756148763265
0,799418787610967
0,805223378179681
0,790454202298627
0,79857664067196
0,804931892722765
0,791361706192572
0,764604589363206
0,777518408764728
0,768531395491279
0,766437744307243
0,767531916291846
0,77468976499975
0,773743989722594
0,778120639631231
0,751156801498473
0,763311550889012
0,745004428657705
0,743843928552923
0,751957858867176
0,723876448617603
0,716542726603365
0,726664690855726
0,711772833056843
0,712850800430592
0,73527736658184
0,735835895715766
0,717183943068457
0,704870907255674
0,69910663219226
0,714694178386543
0,69745291477281
0,714997606998543
0,703690333390675
0,694505046935358
0,688044012112667
0,69460437957658
0,668890360891425
0,675353031099528
0,665758066026271
0,682727842044073
0,670825175420826
0,659111774811009
0,658402283974331
0,66593227372432
0,649179013697927
0,673174112727431
0,66212435000727
0,657582598536274
0,640402941478367
0,645997948742563
0,643281884783964
0,643508013622128
0,636056913652353
0,643484118525594
0,626789484649734
0,620475000663392
0,629564049163724
0,614064678424157
0,629491506351062
0,640614733686629
0,609525565845644
0,614567502751088
0,605430673783208
0,608439231431305
0,603858758354964
0,609902025117467
0,589777885917745
0,599914687571847
0,592934897527411
0,583090655088799
0,580130180604951
0,580693270130075
0,577978506281934
0,568103243573456
0,576365519972682
0,569291731031511
0,574817701715123
0,569264067779641
0,554310534165261
0,560054060215501
0,563272755932067
0,566100146153936
0,55778200375782
0,545807557921869
0,545940557218867
0,56188974273949
0,547489000494797
0,535754976150861
0,516904013762186
0,535214599429404
0,533105961895776
0,535462509162287
0,528653577046726
0,538802018401945
0,519352034322777
0,514629270321119
0,521273572119611
0,523485929908791
0,50826123400552
0,512113016351664
0,504054796347881
0,50588794683396
0,512833176012267
0,508547044288387
0,495593046142094
0,508618176045879
0,491642556364977
0,4831820938913
0,481335798499798
0,486113310340742
0,474729013281512
0,479964046858887
0,4744339690857
0,485094642117928
0,485119647022689
0,484539630237411
0,469778525617946
0,478409264564036
0,471938090353901
0,470748604411989
0,463976306665773
0,470918599704049
0,465161446252521
0,453231753520408
0,465527293600912
0,462625478514671
0,459232004345479
0,457036832474721
0,443041766225604
0,453922550710656
0,453071530594282
0,449832783102792
0,451894167963801
0,454253058512785
0,441640154956335
0,453688759923751
0,442984349215755
0,445309376520522
0,43945564607001
0,437470417960108
0,441753550276918
0,439445409720495
0,433846568235617
0,440856534762063
0,419227844865744
0,431450937733225
0,431203002667825
0,429995609283405
0,433700610930986
0,438752364661835
0,436621707296954
0,444923291745958
0,442328418490694
0,440329741111323
0,440857181957688
0,443759141881413
0,442531035015346
0,443363194889593
0,439153606053666
0,449018064046291
0,445418403064609
0,452679692807073
0,46065441898472
0,458899795229276
0,451140504184499
0,454075855639445
0,453123354523292
0,462959498356491
0,457684303551966
0,461082611508208
0,453725813237671
0,465010121713214
0,465109286984951
0,472320060679975
0,46229846688075
0,471422480471043
0,46356080639161
0,478466247734844
0,467180610525673
0,478723700357323
0,482036663645407
0,483619017966499
0,479183111174983
0,489185840071043
0,485872243477971
0,494678481715234
0,486068127783878
0,497980664849517
0,504135615384633
0,495678078380222
0,502136810500931
0,517502346053586
0,503135611419091
0,510198881202865
0,506852326421863
0,524084680448437
0,514345152188826
0,531002938339394
0,520523300977591
0,526402473813221
0,513477822762248
0,535655198649096
0,526835134253652
0,543764160716375
0,544313327016985
0,55297547793828
0,527395396237527
0,549226236775756
0,548721630989158
0,568549807604134
0,541009712503424
0,559099871076115
0,550914547394947
0,570283744253086
0,566258100092202
0,563227453533667
0,552215014096245
0,56674748961074
0,566279466589191
0,565547773628526
0,548367449863044
0,573846970736186
0,574268786828856
0,575068377821029
0,548183912099527
0,564692868139496
0,563405433593314
0,567376440142615
0,567424415816149
0,573412279843949
0,551707123041135
0,548701126589218
0,554720372117115
0,568709458802119
0,551094121477536
0,556132982951021
0,548331953595683
0,564099052719729
0,561134991087255
0,575057158773054
0,560005346992733
0,56100535801259
0,55920646803657
0,563898784745644
0,542314763278861
0,573499112232573
0,545692260517807
0,575650507127119
0,559167171177118
0,571370941636896
0,560683929232898
0,570314516277761
0,560451572096325
0,577124512048224
0,568450557093239
0,570407764040657
0,561910703044037
0,566933968112318
0,569883190110538
0,568420559772242
0,554521606524417
0,578356768776457
0,547615575678422
0,570407134389513
0,549736510251557
0,565622535140651
0,552097140619126
0,569714750614551
0,542819268890757
0,555645597846292
0,550952715217567
0,558084202973406
0,549136862148501
0,558291560547106
0,540001962538587
0,555811696236407
0,541182999211446
0,551489794773185
0,536735616580377
0,540185629496419
0,524582753791167
0,531191223159627
0,520593584328408
0,528323526598304
0,514296963315512
0,531036852371765
0,505789627375212
0,531695823509404
0,502215779861592
0,511100245022308
0,498836681016268
0,518941120998991
0,489277900603395
0,498608156698143
0,487238971941084
0,494613269693383
0,482500973149627
0,478363434769238
0,47300336777859
0,475955779132243
0,473883614349612
0,475648606849388
0,460940785463723
0,467953025190301
0,453279247914162
0,458225128790668
0,448754921553435
0,458288656455311
0,435222566603023
0,442313930193376
0,445817646715926
0,44269846815658
0,439943154166198
0,439206136357447
0,428653390600251
0,434772993525868
0,427586243340121
0,424386494761386
0,425501980593894
0,425200687145041
0,420926356408969
0,418626648739563
0,413524983778269
0,42255678737925
0,406485283427921
0,412696126556653
0,396440439944177
0,409704403690158
0,402772418279081
0,409519645736567
0,401329824724819
0,407210203525247
0,395756149047218
0,402008976288334
0,391576822670073
0,401643111290937
0,391813002026484
0,402216010263524
0,387862210752338
0,389174801678111
0,382808052579505
0,387645683514282
0,382239831213809
0,377413513899789
0,380082992387652
0,383191245073457
0,376477502462756
0,379923746074083
0,376470833138685
0,375353206333786
0,367255057793981
0,376466692277515
0,372395701801671
0,373683248179011
0,361703425220276
0,376427823496204
0,369564808225032
0,370097315919842
0,36610683219224
0,365961559433096
0,357808609970631
0,363360421266326
0,363290354147001
0,361594942056059
0,358637472288044
0,36005787922713
0,348384704531203
0,356969828282009
0,358346657180682
0,36053417748438
0,349294902580329
0,35827776927896
0,351940608691588
0,360755105082915
0,346621247513932
0,348571592688529
0,345904807674667
0,347747324214676
0,343959193418024
0,349989212591674
0,342104367404008
0,346017355736001
0,338950647622921
0,345932533102049
0,334760412129053
0,338559097940716
0,331102513265194
0,346935587243022
0,335399534133692
0,344367141236485
0,330143489385056
0,33667143836087
0,33012780834162
0,341596420275022
0,329238833272276
0,335149654578105
0,322390832273768
0,327917429484259
0,323189791421798
0,333829370055697
0,332455389243327
0,329354663442517
0,325661894695404
0,330391100491029
0,321456933194515
0,328325515047195
0,318377689697364
0,33385010477807
0,325219179836209
0,324175627102618
0,321409040293161
0,331272796010114
0,320518193466973
0,330858355524865
0,317856955608167
0,324551969390407
0,323307482718542
0,322158990582385
0,319099721791332
0,325133491924892
0,31788516224731
0,318724606081985
0,314411604839908
0,322979102383035
0,319888868743255
0,323039191734297
0,310991194991904
0,315251909516707
0,314054526893348
0,325196167165543
0,31554200017483
0,322235426359811
0,309315051256872
0,315959687783883
0,310153676959983
0,314578547615553
0,305396773074162
0,314539108203142
0,301683300351961
0,317568214160329
0,305979687538812
0,311075169563417
0,301920806931747
0,312103988767871
0,302585094981696
0,316399143157711
0,309201351646581
0,311301750163529
0,305130533767312
0,306257887073295
0,300675687957161
0,309565753303131
0,302520767140641
0,307083776872861
0,299543478237963
0,308553900797908
0,302039121183453
0,302983432393936
0,300601172076362
0,305679587267191
0,297478122593829
0,29914306803527
0,296251243380019
0,305236313484432
0,295198992254352
0,298276075561518
0,295953458604349
0,30195835454083
0,292393095329251
0,296123669712685
0,285867189029583
0,299471294862855
0,290766269150646
0,300553619785152
0,291875634566873
0,300342588912618
0,292049484334184
0,292376741231021
0,287812541383753
0,29390975500112
0,279425224798625
0,28857283837366
0,285118111762038
0,29305273384295
0,281685982827848
0,291635132075828
0,285563204688249
0,289898424262402
0,276815072183658
0,285036244798047
0,281210077025248
0,284811867609479
0,277161612545488
0,283609735996706
0,27334918129221
0,282435913143983
0,276183603068144
0,281784175718564
0,272001807899275
0,279963970627066
0,270412958663017
0,27944225608552
0,268444028837887
0,278270541218349
0,269994266277467
0,276437991109931
0,268425381135824
0,271937813698922
0,261325173010424
0,267179870975751
0,260439945500819
0,274972875384651
0,259762476536376
0,264912697758256
0,264339493092943
0,270431296168818
0,259500528476492
0,263988655940237
0,260502197787497
0,26360200014321
0,256220755600822
0,261051060544555
0,257734788365858
0,260485292312433
0,253817247700246
0,258118555223928
0,251205992820513
0,256746313449943
0,247142620122311
0,255484443459084
0,251238713391139
0,253391491867551
0,24470420567662
0,25568209266019
0,247718969811025
0,248622787563265
0,245695157973045
0,249289514945184
0,247607589216104
0,24432530027855
0,242357355576436
0,244772008464385
0,240239187090137
0,243788407676946
0,239670867170375
0,24595398129577
0,23854443164104
0,246630806985586
0,240467889526056
0,243058988032137
0,235408106117891
0,235937481843555
0,231643111742717
0,239852001587019
0,234889110266129
0,238702649860736
0,229518898640676
0,235899147264262
0,227587802133714
0,233547937376562
0,228224223689908
0,235589090869247
0,230884009001234
0,232512506128994
0,231010470755558
0,233725569912455
0,226105471040514
0,232367165469448
0,224485974386256
0,230628856824375
0,224964043274297
0,226161186308935
0,222239876380993
0,228605787763228
0,224298543586651
0,231596316307589
0,222487772585194
0,225602229337134
0,223200909955828
0,222089602172219
0,218063445047692
0,223807336736388
0,222607790301019
0,221636928144921
0,219561053752131
0,224140798321265
0,216077606279013
0,218697264522169
0,21395961330886
0,2210843992212
0,214651815910334
0,216910227231554
0,216472909497026
0,220869146777337
0,214823749868095
0,216956737258343
0,215649557119193
0,215332970527361
0,208210962088506
0,217341564642213
0,212135862920459
0,215436592853574
0,211717537725699
0,217092519418331
0,212977324572333
0,213962972662277
0,211130583595229
0,215738127648288
0,209316283158054
0,212500678148448
0,20864444891355
0,215597868417691
0,208607852646498
0,211014115569608
0,207863764128525
0,214834346872475
0,209320814943062
0,211765395342428
0,207877656991757
0,210640863450033
0,208649038711333
0,208473533571899
0,201510724273309
0,209347808440059
0,205288947000038
0,20791378230213
0,202078667012272
0,207117326517636
0,204010266163891
0,203901558320875
0,200977187047038
0,208841031575555
0,202106908126489
0,207136411801715
0,201004097939832
0,205377439948649
0,201246465798024
0,20081754444223
0,199134652847944
0,202095031838275
0,197458449699888
0,206477643742215
0,19794927986123
0,198027364763504
0,200038741171957
0,203005916924231
0,198128447644477
0,202046544385327
0,199429933784596
0,200262005691822
0,192654612001115
0,196600447749625
0,19724843548562
0,201137812305299
0,195621872435866
0,200666204180009
0,194610625231727
0,199515384525056
0,191766701941382
0,194445242684947
0,192263397673548
0,195132220083577
0,194708760550235
0,198099028364621
0,193390964216206
0,197523178862933
0,191171145287037
0,195329389910099
0,190875801712352
0,194286615504061
0,191055099363927
0,193326640295012
0,191487682008877
0,19347414270777
0,189119251633873
0,19244254812261
0,190866336201918
0,19022700952431
0,185331266249862
0,189235026542434
0,186501197092364
0,189694257736602
0,18532466128975
0,191174850107526
0,185379438388976
0,18572920186088
0,182471441384366
0,187624867413633
0,181565298483013
0,18861107851623
0,185927285039266
0,186488895100203
0,179532481900269
0,183081715552116
0,181034901212672
0,185293904337598
0,182922966433056
0,185806656628429
0,179913435840968
0,184196743355723
0,180248925092078
0,181616244316744
0,178516881174109
0,180510493380643
0,176451101493871
0,179453653480796
0,175685415758787
0,18194808814784
0,176389596880872
0,177915745670291
0,172785867470023
0,177204803024447
0,173999900001309
0,17562139395868
0,172581511830665
0,172898634378917
0,17099175983246
0,174468891842579
0,168046828329718
0,173738688537367
0,168567911124127
0,173918672204509
0,168439108000506
0,173976193747219
0,168061176424542
0,171048553351228
0,17167319502795
0,171468077702025
0,166648295963728
0,169675709804321
0,165793284915376
0,168959403368492
0,164541413963609
0,169412798584992
0,169198758405782
0,166855962249649
0,162517109767005
0,169071962686537
0,160173212596425
0,164443830313978
0,161600020504177
0,162177381389041
0,159228568258876
0,165563747410094
0,160820899672519
0,162029546468533
0,158323132110906
0,162564270139744
0,159318752312692
0,159799398087912
0,157427063395467
0,16213256272882
0,156254223485248
0,160916493920105
0,156730608541668
0,158677829738828
0,156494784071788
0,159283504147489
0,153854778909276
0,157058928587415
0,151116712703166
0,155226353105751
0,154819243144826
0,157082217415663
0,152954383433483
0,154872270415424
0,150888856505376
0,15360534091293
0,150189172067598
0,154326381004009
0,149316797429039
0,153614617850271
0,149039867188622
0,152026334035086
0,147105212263991
0,151591454721312
0,149085219418586
0,149776428319114
0,146737766441435
0,146552673494876
0,143526392627186
0,149431781452179
0,147764108712199
0,145927106080277
0,142922419345253
0,147568540157032
0,14426970659384
0,147750076369759
0,143461070944742
0,146726440273162
0,144175015168441
0,146745078508924
0,144250209092974
0,144708406471216
0,141977932178967
0,148961592881863
0,144933108563385
0,147546658303724
0,143291563659962
0,147266777645779
0,140489183302697
0,14410253148065
0,141090016536246
0,145970717889879
0,147461601698794
0,147666030078624
0,143061760022189
0,148219144779542
0,143711988850736
0,152528679554596
0,148507220201685
0,153460333694953
0,146858724469725
0,151057526017349
0,145780503502307
0,15300391349219
0,149669909563865
0,155581786290563
0,148989146095658
0,152872772183991
0,145902354435855
0,150995002951412
0,145790557646194
0,156451764110708
0,149062745044499
0,149143457150732
0,143523160345148
0,151046643327017
0,142382390110132
0,155276196447406
0,15012883555297
0,15023109611497
0,145123366680393
0,145965481524333
0,139355248086994
0,146874744634628
0,135238758694784
0,14226243861698
0,138778110248983
0,144571302232463
0,140689856845565
0,153000866412195
0,141158933163593
0,145283407780165
0,144821508874168
0,146654118511414
0,137943035552018
0,14437805081647
0,140676068885724
0,141698240484696
0,137094127290574
0,13514650211635
0,141466341188743
0,137680019982962
0,144481625207905
0,139790721499827
0,145590552202179
0,132716846196006
0,143902731744621
0,130793118492923
0,156225294738642
0,126254403155744
0,150918600705259
0,118932649292121
0,158995818594396
0,123100788859744
0,160995235822293
0,108692245156315
0,158956877312803
0,116821317810753
0,158864736832887
0,113874813541379
0,154305502328649
0,120700929118641
0,143593177214316
0,12601012727911
0,139000355482963
0,130963673664565
0,13273738715292
0,137585067681993
0,12651734268051
0,135818901936995
0,124333664998813
0,135728486547447
0,127124941831415
0,131236110937204
0,130976181021523
0,127182532341424
0,131558285957278
0,126400557467653
0,128446429345534
0,125492303717021
0,129694754292918
0,128291179630302
0,127261421159245
0,126890733757908
0,124579606402153
0,127140315648761
0,128363807182488
0,126778032485326
0,126923845357304
0,125678938291356
0,12500840859505
0,126194674335892
0,126660563940689
0,124706486859357
0,124512284292958
0,125181118073931
0,126542740868752
0,126699938963352
0,124419518090478
0,125801022204801
0,127708350707525
0,126494547751488
0,12301218199544
0,123760699051065
0,12496639478223
0,125318897639178
0,123361075960855
0,124884444989472
0,126344283907185
0,125369790832909
0,125125036409317
0,124599506350018
0,124239638431949
0,123933864136644
0,124781927678997
0,124187650181684
0,125306843968656
0,123975953941811
0,124445681312672
0,126319312114203
0,126025540355284
0,124866034909343
0,123360758361017
0,126352303012196
0,124392585761221
0,125806662846565
0,126039685286134
0,126101189029936
0,122633817776664
0,125416605948573
0,125699319809658
0,124720256353604
0,123226396578676
0,122523687521294
0,123253397752435
0,12458525942
0,122254973942495
0,126655159967836
0,123178524006835
0,128891626945949
0,127113189915853
0,123899181535091
0,122845708515188
0,123807069448306
0,12351242376446
0,125891047380899
0,125770835428247
0,125536135399037
0,123575671666156
0,125855745057795
0,124330006888657
0,124706447279243
0,12412977312302
0,127167357218449
0,124465685437365
0,1248828259038
0,122101247919709
0,124658210160641
0,124648738797668
0,12639129337533
0,126903329429879
0,125323328656104
0,125813818264473
0,128742391430993
0,126203014122979
0,126829810401015
0,127244525476891
0,127789249648707
0,124811413616086
0,127556603183782
0,125949660962853
0,124557055154257
0,123783770147054
0,12417379661822
0,125636285369534
0,128904898516532
0,12923359179128
0,12717004736714
0,125313234716208
0,128489255972738
0,126926818939013
0,126519625041697
0,127846951868262
0,127052741616464
0,127893219362201
0,127801085678745
0,1272707045975
0,127026454877958
0,127467319623222
0,127148259655934
0,127963417941588
0,1296006172013
0,1272875372165
0,130893885458157
0,129917957056021
0,128625859489016
0,128070745234604
0,128092280740516
0,129283648943683
0,128058626389184
0,127977755448953
0,128293854743534
0,126505251884287
0,127622042988126
0,126564429294853
0,127376043311703
0,127794537983933
0,129317920150271
0,128459656463739
0,130647704740258
0,128129132649314
0,130290566474934
0,129783529042522
0,129716337477393
0,129079626882229
0,130230387234089
0,12815343295448
0,128754053048644
0,131285496679911
0,131021755185456
0,128407915478126
0,131698171774653
0,132981315926791
0,131647522579633
0,129785495195307
0,131962968146481
0,132433097611478
0,132307854578419
0,13259380585913
0,133535284970439
0,130699637419395
0,13123033947165
0,130761541132202
0,130944525353816
0,132509611177021
0,131402524380636
0,128555146693767
0,131860522611403
0,130652722084042
0,134271359298084
0,130845721352354
0,132303388661795
0,134671057470171
0,134573773851292
0,131700217025515
0,1331249366953
0,130004723670796
0,131727269142558
0,130050489197024
0,131095165086969
0,130991768229874
0,129916604526843
0,129005819108623
0,130467076154436
0,129458167597495
0,126855570122921
0,129032224198329
0,129359795487035
0,128546921554265
0,130076680299576
0,129360438349716
0,128763436818436
0,129424501736916
0,128795170338323
0,128628014947835
0,13159813423022
0,12738971987456
0,12869508966981
0,124614860067161
0,129448285097549
0,127931180105341
0,126524604780154
0,126334977703657
0,126390901679003
0,128565043368067
0,128569422267023
0,124631738366042
0,126277707716232
0,125570606296488
0,127651721486636
0,125471963638161
0,126435715043222
0,125717174768537
0,124518444023081
0,126837905610376
0,126411917280233
0,124118284167102
0,1274149194816
0,123006145971129
0,122041288398525
0,12306914647365
0,127447846525296
0,1228297640744
0,126570088518558
0,125802088854708
0,125021249443901
0,123006151742752
0,124002906394897
0,122358356299845
0,122208753791803
0,122927168897241
0,123280434679781
0,123684014843261
0,123835752966696
0,12121763769736
0,125199789452133
0,121308612745728
0,121886376698296
0,123872235786402
0,120009233691438
0,121594216014782
0,120248008371425
0,119961168166294
0,121622152238257
0,120819786440793
0,1213685585556
0,122393555875625
0,122090179650188
0,119784707087317
0,121909273922143
0,117519920147877
0,121626062793832
0,120478549556511
0,120336412888914
0,124442631514834
0,122223342039164
0,118480259993339
0,122600463615961
0,120171563541756
0,122639741215683
0,124975334334743
0,118350967950626
0,121950554366282
0,118925236135828
0,122221405867652
0,11944725800805
0,119432455935879
0,119918728150453
0,120914911604997
0,121155849373936
0,118140320288893
0,115349741969638
0,116272183051574
0,117478144487138
0,119375286796749
0,117617751812285
0,117732708902675
0,115991300163254
0,118018423174402
0,116413906321647
0,117174347576792
0,115453106252001
0,118028810294458
0,116792190797364
0,114916596395195
0,114793941538486
0,11590637841209
0,117779782419741
0,111937494544829
0,118423262628521
0,113786019450408
0,116057877683626
0,113750077355939
0,113423377998475
0,112742415220068
0,114472301986985
0,111750890290878
0,113846586842094
0,113776057641796
0,113646659425514
0,112071442744375
0,110368640852717
0,113008070711689
0,11106070408107
0,11008311538115
0,111093599100804
0,110161959522099
0,107594270378866
0,109057131997988
0,110817491292753
0,107821484774245
0,111950995339251
0,109149180577846
0,10679639598683
0,105341275050558
0,105407298843835
0,105161195036259
0,105135710594567
0,105048643538966
0,105447984654519
0,107171013279448
0,105076304236768
0,103612063949954
0,105222098530465
0,105639465210333
0,102261586331809
0,103641800216901
0,102766046185324
0,102665363289303
0,103231145926235
0,103875179924225
0,102779073039825
0,100636753738277
0,100387801947629
0,10087669549665
0,1022741457985
0,101324098893711
0,0989009873845019
0,105429073726067
0,095035845540849
0,101553621648282
0,0963489352226898
0,103651998624915
0,100143735609428
0,103868179971066
0,0968629022523839
0,098069112859088
0,0985818243871381
0,100299798414105
0,098861193574672
0,100447019099444
0,0959313517783638
0,0980252338147513
0,0959057137047142
0,0980876538205036
0,096126336516839
0,0976454974791393
0,0980125668865505
0,0995044465054421
0,0973614362866213
0,0992176475417961
0,0958842009383025
0,0956633289269801
0,0956925338586463
0,0971463557468873
0,0954540577405042
0,0925744657226161
0,0961821761708855
0,0955347181987354
0,0942258113104548
0,093746235468936
0,0936014774522957
0,0924373308154126
0,0945277190999843
0,0929713777877891
0,0954082367604195
0,0937389948785316
0,0960276147097763
0,0945006920393801
0,0907995834614951
0,0913396547383535
0,0897229303454538
0,0915218819269693
0,0912716707076442
0,0924846402795958
0,0950364789708069
0,0887322927874458
0,0921535265908887
0,0907513178093991
0,0926387366897478
0,0859203063064406
0,100659343314877
0,0879813924599726
0,092921309009683
0,0866408538991067
0,0890161372901477
0,0907221256207637
0,0881485960628356
0,0913446773543203
0,0905454248205949
0,0885059851652077
0,088974052739502
0,0888889801364193
0,0883319972112886
0,0919374244754714
0,0875125227792323
0,0890737107601249
0,0895308161239098
0,0917717758638632
0,0891916712218657
0,0883078618899283
0,0876876659761978
0,095524161665116
0,091702093237902
0,0838041071516215
0,0909460054173827
0,0829490191191168
0,0932544015909187
0,0921863755175424
0,0813035125968541
0,0924003895764891
0,08390415151392
0,0916252049163923
0,084647032049599
0,0906851995288744
0,0820972736766431
0,0939050676367774
0,0830787485518578
0,0938009994384839
0,0887071762347053
0,0883786857661139
0,0874525272103731
0,0904311126516503
0,0850885836317715
0,0881930702574004
0,0855262502532951
0,0864775872944047
0,0861316151498741
0,0862111606668036
0,0863270417076116
0,0885349236843658
0,0830689132287923
0,0903782485141204
0,0835632033516601
0,0882025888063342
0,0851197614347131
0,0886053970364986
0,0802850054909827
0,0945086598386359
0,0810296823109588
0,0860347212277714
0,085156293978466
0,0848993683030418
0,0866136768224811
0,0839595836102252
0,0847784410680764
0,0825554911442934
0,085734391682835
0,0844516836051769
0,0871418377579911
0,0836598351464356
0,0863816088065391
0,0874851560039007
0,0896539549122777
0,0850819879536201
0,0869502673967843
0,0839834775998753
0,0844295741624174
0,0837137320684326
0,0845421896124628
0,0938936454149742
0,0872384995959726
0,0904935501617216
0,0841701840687875
0,0855358636139218
0,0809580820758371
0,0880312427496454
0,0803075405124446
0,0879352324563796
0,0822329308789259
0,0856356065086205
0,0844150372253235
0,0870913917930712
0,0831628023331806
0,0869146661049694
0,0816666278315396
0,0871299348764162
0,0842547784355427
0,0867321205721125
0,0842668970770194
0,0831294828477414
0,0829088391271812
0,0841353065385225
0,0892525139118663
0,0825562453569432
0,089421582061196
0,081458778025314
0,115132253866989
0,0693914200660125
0,0909561280444506
0,0835905504319649
0,0880868964718119
0,0843004810656239
0,085792188230504
0,0881140362848023
0,0887168759875644
0,0850817127508516
0,0873573411868586
0,0820131404268806
0,087900052909208
0,0870602513015383
0,0859300308363271
0,0916293700981806
0,0934593455160239
0,0822682041748742
0,0914373046172934
0,079645809912416
0,0974315437155838
0,081654745508553
0,0842113335104453
0,094806746400532
0,0822157141811482
0,0902660001834002
0,085983092986718
0,0922813790299635
0,0862593639243227
0,0906734699894143
0,0854778137724699
0,0916636337220131
0,0881732003453672
0,0897747460353051
0,0910000336105772
0,0875298739659417
0,0963786976337115
0,0884082400357107
0,0877668734768458
0,0975892434725072
0,0840488556283875
0,0903389520106485
0,0874995694839006
0,0915926833475562
0,0890951784708552
0,0985983824259852
0,0914464973496494
0,0923738798214214
0,096374414386271
0,0875920364819789
0,089362913937981
0,0950422015882555
0,094532358931115
0,0965423204960225
0,0827999635699044
0,119363001817221
0,0826564857568509
0,10137319307067
0,0909552935368577
0,0916956769069972
0,0952314034413465
0,0914568906530862
0,0959982139059338
0,0909748659694164
0,103908793264939
0,0811062103091241
0,104899664342028
0,0867636023056322
0,115893551524776
0,0905375263650827
0,102706276047463
0,0963548091175838
0,0982090879157507
0,0943211644192731
0,107298552039299
0,0922314635558433
0,107152237162293
0,110822394543031
0,0996110428689796
0,106216538353852
0,0891243064691249
0,102442956782011
0,11616403506242
0,0923388204508756
0,108327025367656
0,0975939424919431
0,109111698857146
0,0936296523377689
0,113179923355296
0,105386937452162
0,100284622260905
0,107730544934045
0,104988205760812
0,101386855168234
0,123850374772927
0,098937274070663
0,1139010451702
0,103541911969639
0,11585558802374
0,0990479096705762
0,1522565170516
0,0895703461602378
0,135560698815757
0,101874813335002
0,125807758992183
0,114835031194809
0,11961627517595
0,112137377353021
0,125982313579898
0,120047754382862
0,119934996202413
0,115156561911323
0,135749750242541
0,122602975958883
0,119198084469333
0,129843945381091
0,12342663088545
0,135510941854001
0,142965041503758
0,146117040971636
0,135311224219599
0,136290195305549
0,135169899192897
0,155801795093026
0,129263887780388
0,144099925071514
0,134437938404807
0,142692994310601
0,141945889737213
0,146788451251888
0,155974546693462
0,144546060475268
0,150227220424836
0,146721971476549
0,153594344487386
0,159531891384654
0,168694958328138
0,167544048069415
0,155295610042859
0,186835547680496
0,157491938968554
0,168963410434516
0,164008658676094
0,167643825628211
0,177326550829505
0,168826388204669
0,172902441959953
0,172188910817831
0,200912129456563
0,175375388639603
0,187007116019281
0,187799978079631
0,185031934718537
0,205034392718206
0,17403102880219
0,338893939651465
0,181043485846312
0,230428971581805
0,206223931053617
0,236693442846187
0,23093930435319
0,233821561008065
0,242787138847504
0,257317989983496
0,249701099192879
0,27065164346894
0,269529210987396
0,278286296934365
0,290828350474622
0,295838814860672
0,291662070754641
0,320833248297386
0,283735849892611
0,341793361253881
0,335092677941895
0,334462506045485
0,345414296611732
0,363524115691876
0,35056445316285
0,375677453706765
0,367642741535471
0,391311285196792
0,409325604591766
0,400383486460649
0,411651615671783
0,412841032696982
0,451398188302236
0,424414231648261
0,489210544158386
0,460739456336523
0,464081774589536
0,480158273237053
0,490346353818148
0,49683770091534
0,487628204350881
0,53437923694549
0,506763275554876
0,524985185162448
0,533798761278914
0,542071950732056
0,539744451836579
0,562357665650033
0,561161627060238
0,56807336255112
0,591446870173201
0,593954190945573
0,660450685282302
0,591293819555555
0,582953025961247
0,590834982403362
0,588792614855803
0,644897797600853
0,571681842730635
0,643162186662056
0,606650614041583
0,604107294506371
0,607564411359962
0,611856503406426
0,604846176247715
0,618782691870109
0,632125756139225
0,608077121555051
0,62662853345995
0,608773073877744
0,612114857511878
0,65013257759732
0,597088889106759
0,624368387222107
0,61040626782406
0,602140327508427
0,60156455977197
0,59973219888529
0,597440524052639
0,630987642020804
0,591240440261929
0,609462380449168
0,57480686768568
0,611339173555621
0,589131090495344
0,565146373225993
0,560251094030716
0,558914607535127
0,548960637241758
0,535098383013237
0,554942190341358
0,583425369780294
0,516135306530358
0,522909583590706
0,509418019033869
0,508683508850264
0,502218699394835
0,503460292272432
0,495578960655489
0,498486370687408
0,481124079730081
0,502170371553054
0,480589655494755
0,489765097300844
0,46946598095951
0,490650428026139
0,480167941816596
0,473297977603969
0,470730989343981
0,469338197997528
0,471326528109633
0,470330693797802
0,470118886710914
0,475043264328732
0,463922043325303
0,472551797271786
0,459432455764317
0,474173423645327
0,468094852415689
0,470161109970996
0,462812586774644
0,470575808415516
0,46395305971764
0,461954667582742
0,465734690814593
0,469510707228814
0,464523009587282
0,46489221041942
0,458585006068587
0,463662289006822
0,464742186269518
0,454609592041503
0,468512689735469
0,451236482563383
0,471306179306157
0,458082292263883
0,452519598741751
0,461577484980555
0,447693341696205
0,464320216182742
0,442163977886427
0,46739348865221
0,461635048096204
0,451777646351001
0,439390746721376
0,442238947718499
0,447566205285024
0,455115777671388
0,431395873260354
0,44690750748609
0,422436973416028
0,466488755688849
0,454416930344027
0,432145692899807
0,468257181476328
0,437326061267797
0,432054162000366
0,43191387728597
0,457500963256936
0,428052045800869
0,437647377635392
0,426517646628086
0,454262091830792
0,441104952877208
0,428001336377178
0,437764973193617
0,416887654940322
0,433538156757376
0,433726896249393
0,420455920591651
0,414900086363221
0,447021368763437
0,420364289215991
0,451941866459744
0,40144781197662
0,417492150035432
0,40363346549848
0,411719498004469
0,406017431360874
0,403959273655025
0,433529788579515
0,395415497059849
0,39804000782553
0,390525608868498
0,379602252608333
0,383319817051286
0,385020589600762
0,400905062002376
0,358301116316761
0,408815921271811
0,359799527603374
0,385933490017752
0,373887591642564
0,368832172591637
0,370088386058744
0,36486813533567
0,353507915030678
0,362632083162028
0,376676800332393
0,356684226438801
0,361294843466988
0,350687697092705
0,341535974318513
0,358717952365614
0,327772319168648
0,342007296066492
0,32498904032637
0,337488496165908
0,346119198685536
0,318135315758305
0,324804430743957
0,320496325664805
0,316672402934715
0,318891731628885
0,310899820340976
0,316145245958148
0,306549081707242
0,310162265782834
0,315084533064486
0,301963077095233
0,325331929286857
0,308091257480477
0,310222636060412
0,308895260349952
0,307834815989944
0,320553703420378
0,330827548113572
0,325529135641328
0,32246264007147
0,311970149190411
0,337346655969513
0,317998366540131
0,334124854493973
0,330996963072431
0,339595660611459
0,334297375795823
0,349832256081692
0,351026022300376
0,354368818182051
0,361813978237691
0,374194454406569
0,366318084229992
0,403627823176159
0,375000682980228
0,416180999841398
0,400748905324097
0,427737473410413
0,423166324645262
0,415130234958351
0,435586128420395
0,436319220366682
0,445292372820997
0,44955635463004
0,439704840436993
0,469259520217296
0,454964091577514
0,476443942948299
0,473552750568192
0,482243543502226
0,482288547380363
0,505360303294085
0,490204644154104
0,479139575584749
0,516086502666345
0,490653221546383
0,515030740519632
0,503324532281726
0,508193760181224
0,513807071205518
0,512229843837062
0,519943502984009
0,514352748332776
0,539985124183559
0,529929771109646
0,523939166934383
0,524772492303799
0,531123385060773
0,535479693718344
0,532747575459809
0,540577988878431
0,545990074807322
0,547523879181457
0,550334817809783
0,538766217836567
0,584053479282435
0,575225980136255
0,563787089715183
0,568799745516854
0,563279540456476
0,577584862863956
0,573477184778485
0,585515889811724
0,587794348642507
0,580208258739667
0,593610662231056
0,589930834265435
0,605910533014875
0,596266060046291
0,626935549524769
0,610649771379373
0,60975544431395
0,61629243399418
0,603297099204908
0,668132841550815
0,618419960554509
0,63721323220348
0,628688632484462
0,641633638213875
0,631802241116821
0,633133567853506
0,636706458324934
0,644795378597994
0,646248582242508
0,650119161430958
0,641968924155438
0,640604346635359
0,65055228848291
0,643754236197365
0,661876450198686
0,652097711131389
0,646855744328086
0,648477864582166
0,641545223812291
0,63549700785411
0,649881364264741
0,662124831641355
0,652401335807131
0,653925519967342
0,62973626048539
0,659781076934119
0,657922887566212
0,651394799883379
0,647269631011738
0,64613798197868
0,642884959135187
0,657082512615796
0,646159045733192
0,673680115103499
0,655325728048873
0,657563638272274
0,66073463901606
0,671941923820852
0,664937122253254
0,672960040595988
0,674599989844855
0,68374630705268
0,681616329210987
0,68707855478965
0,680442894621581
0,686143741847464
0,692915358427461
0,687357434541514
0,685628800060335
0,681034013332012
0,680485630491962
0,686803664526866
0,690726154678921
0,687812292493196
0,677955672184298
0,675885901098477
0,662529241119287
0,674971341018482
0,656133609791658
0,666257116120062
0,655001864216193
0,654296773300381
0,653936073451037
0,635949465622412
0,64466937645739
0,630462449319129
0,627533477503152
0,621428123131069
0,621824497946827
0,617972044198109
0,618591739070846
0,61856479083483
0,617152837612591
0,60973676306122
0,615017313860119
0,613533603712976
0,613236734848171
0,614178909872426
0,612197411888584
0,612633416117688
0,602334807244898
0,604743667313864
0,601619531818476
0,600483241338116
0,610288166011618
0,597767863700687
0,610194912107342
0,607096511944586
0,61200411321028
0,599643205019876
0,605092806762045
0,602789021632211
0,606123153101789
0,600717243983497
0,596138333904918
0,598923846030242
0,60385121747213
0,60028146658821
0,600000879685482
0,609875534636237
0,608262706021174
0,59263072760056
0,598126496215079
0,595456198529705
0,596920360529182
0,602361955709732
0,599011375767593
0,602963530540774
0,598415998679402
0,597932580650009
0,594435806411943
0,602675769708832
0,605802866479214
0,604306181238229
0,608759142786417
0,608114907164055
0,598512654529114
0,597515209099398
0,602142513728132
0,599580603502182
0,596282403299599
0,596986720150459
0,596069621255467
0,592151343616464
0,593134282127297
0,585359885667148
0,583097344956212
0,581685611025912
0,576206343268412
0,574543426309443
0,564813133976984
0,563238798826467
0,560398541553992
0,554941827369986
0,550253144043839
0,545729606321662
0,547767968776939
0,540067159683395
0,535825830510049
0,541268481822596
0,53367807971928
0,533214697324461
0,532735880698185
0,533662967671567
0,528990952556239
0,527744662375411
0,527649492131113
0,523963403231608
0,521467366738348
0,525500178328627
0,522498197151325
0,521474570434843
0,522844780588924
0,528187124347979
0,526820918783592
0,530853100633118
0,531682848258114
0,536751392803392
0,531670399076057
0,535955859607799
0,537159399789542
0,542091727669381
0,541674102608832
0,543998103611351
0,547509409115719
0,549371711549261
0,549083945485105
0,548956121276868
0,552940767634861
0,549800407636929
0,555868790753875
0,555677834217786
0,551433751669443
0,555336894691195
0,556783073324817
0,557682449752893
0,557801175166238
0,561081270564883
0,560615556938841
0,551126437434028
0,5544138187037
0,549558683283112
0,549247543587501
0,548267824290069
0,546311722845104
0,548206813794197
0,546529787217184
0,539567657007118
0,541511195454138
0,542798294953507
0,538452833755682
0,533786998924728
0,53139241946423
0,534093193605246
0,532950537666691
0,529188359504234
0,529690696637194
0,528523611979502
0,525421840292031
0,52298239376977
0,521123680712376
0,523193964783415
0,52104539850651
0,51836774362999
0,516352146091541
0,514796668095592
0,513886063603035
0,516722500107329
0,509903642992957
0,510682300174659
0,508966441389789
0,506045427084487
0,504283862514039
0,501968507714728
0,499030014100989
0,497685430095748
0,494772796377943
0,49281811121286
0,487148690131974
0,481647028403169
0,476200314226349
0,472172742744389
0,472544975273656
0,468239465245404
0,466480067869277
0,461969303675799
0,457461629988162
0,45703710738201
0,453702602030341
0,453881760955485
0,450662805454829
0,449995547981121
0,45365323343695
0,448024735093274
0,446203027186244
0,44190976192911
0,440966289526555
0,44096030831561
0,436622576252158
0,432775142262879
0,425350305927207
0,421734379824446
0,417867374272682
0,413186300057901
0,40457910906012
0,401437390901254
0,39921408216492
0,396286142282369
0,392706024933231
0,392004113347507
0,38974674189264
0,393923628274666
0,396962978538733
0,402204129003981
0,40730142141318
0,413982461771434
0,423367525555414
0,434948226392765
0,446524350945906
0,461431458217305
0,473030335383939
0,489841502296907
0,511288250161729
0,527385207194916
0,540446621137871
0,556387136760484
0,575299716407997
0,588881755195546
0,602456413501337
0,623714527753184
0,641522495671798
0,651744913375324
0,675465065770602
0,688185197418847
0,69622750890261
0,708972875313002
0,728517074173698
0,746539699295156
0,751475922995977
0,762183368640989
0,773771508355764
0,784118561843531
0,784954716289199
0,797748266249552
0,809309654350703
0,815442653878201
0,821034679252465
0,821398696127014
0,825539345222843
0,831806653222579
0,833244527084865
0,826050411568373
0,830549575536149
0,846341917102598
0,839058819818515
0,829650630650238
0,835547406257617
0,833524349757044
0,842057666072796
0,845295770383614
0,841503548357003
0,843293200747688
0,852173662921765
0,857227430732757
0,856744756388461
0,865521830852353
0,871008213668301
0,875266259820559
0,883268467567783
0,889358343833347
0,903221367307964
0,911966560270879
0,915129450648429
0,926249952803139
0,934067269788227
0,943970032162824
0,95875159302399
0,96758472838252
0,98771205582781
1,00479904370003
1,00385906026569
1,02083432027839
1,02806269906127
1,03134828205315
1,04325130493717
1,05213763062843
1,05227568129923
1,05198186301171
1,04157625179955
1,03334376989436
1,03830694309616
1,0352631841498
1,03547515634826
1,02878979333239
1,03658644306555
1,03341354839763
1,02320212544599
1,03094150353775
1,04789747058284
1,05737805548369
1,05789646292922
1,0803390375041
1,08705214636113
1,10200777623128
1,12907296689808
1,13525870470057
1,16283229578186
1,15976532661343
1,19573113123742
1,21803149317574
1,21790469961593
1,24680157331958
1,2400596398123
1,27565433153524
1,27555336194923
1,29641483964828
1,31980559583899
1,34104418878801
1,36665987779503
1,36797169447196
1,37646608745146
1,40025019374069
1,47190798127753
1,44307529476795
1,48439132788998
1,5251144191795
1,5104479688656
1,53825405103314
1,57374225674187
1,60710143476945
1,54824897828803
1,67922377932702
1,65440880821744
1,72444506477078
1,64178504288602
1,69559495553968
1,65772781698146
1,75980799347825
1,7282229547561
1,65292817668851
1,64901866928099
1,74571660519088
1,71562797475872
1,76420807883227
1,75282741368024
1,74346788766929
1,6804452721135
1,70079694040377
1,7269511937623
1,71702469787008
1,71671193841284
1,8059362491163
1,72987206310846
1,71814442501647
1,72990497338725
1,77530910570264
1,73658427552454
1,67481407778839
1,73629748798108
1,93062105183581
1,95096804552874
1,85064068679498
1,93663911903985
1,94646452794523
1,86835873247271
1,91719640690568
1,87167672732667
2,04857447112547
2,0278764682272
2,16140903122503
1,96536978151819
1,99629928557533
2,06884477277694
2,03282586087528
1,97745135726347
2,04933886300492
2,11861696691914
2,14632142848951
1,88884288985119
2,26998423713998
2,04783888405551
2,09020162434069
2,04393156961037
2,07016646288704
2,00472091670436
2,37220069621596
2,114323949115
2,1586565208669
2,31561973233753
2,35852458754266
2,10345803958984
2,31346021102978
2,11639535290428
1,99443474503515
1,95746012978852
2,12994286954005
1,96577319840274
2,0169686769787
1,84169643996772
2,03034978809212
1,83938943256917
1,83921188401481
1,76270249199371
1,81867899330573
1,63074057268204
1,84480637033384
1,6867914221197
1,77947297336152
1,62655049025745
1,70414657775953
1,62404320741596
1,65316763377071
1,61284410114637
1,6431893260114
1,57592517798218
1,56075604920831
1,51901994346728
1,59974102798919
1,50084003832943
1,53854409851687
1,50917734552754
1,47594059605677
1,47681226405931
1,50089849997369
1,49525990918542
1,47254314925741
1,39023072081121
1,4017915994972
1,36772539132153
1,39470445253584
1,3164849451546
1,32782263019205
1,29084433716166
1,28800355518413
1,19987893768597
1,20350556791865
1,12840254549083
1,1267891054243
1,06956686159853
1,02842733186363
0,981996117459907
0,971093598720182
0,925846481417603
0,89747404964807
0,860867069876485
0,839428722594344
0,808669291470369
0,782300568544931
0,759498992032968
0,7488550882884
0,72213945623763
0,721975052807076
0,691432969771889
0,699881484729127
0,676014108833422
0,675953191567402
0,656175506030323
0,66397617655771
0,665262283433252
0,650057706198484
0,660334191947999
0,650873089443847
0,65443102964981
0,652418195386425
0,643843739135613
0,654901561477448
0,649952725162285
0,641860257796826
0,646495076991283
0,65405378699842
0,641634715955888
0,636833594548918
0,635141074578024
0,626161955757291
0,620607349046389
0,609207938112311
0,614877060323726
0,607944980000827
0,597178559581792
0,602816118460698
0,592421114577702
0,598681637959888
0,588454384554893
0,604995803209441
0,605546165815619
0,606293412598009
0,600170829741064
0,617119781002048
0,601451134184659
0,614076370047944
0,616358550959955
0,612053646977793
0,616470099763604
0,62662908899182
0,625396589077669
0,620913593280365
0,623997570720164
0,627627314134668
0,625873413399798
0,613212035805828
0,622346124817042
0,632962934230939
0,62586883680718
0,625913870701162
0,629810467018391
0,636799980841654
0,624767682624867
0,629537543497409
0,636738275330415
0,645741441025585
0,642535300384913
0,649709629980485
0,662005962145527
0,669866965437542
0,679915317997388
0,699160949639293
0,690915405437138
0,736350547113153
0,735421646048682
0,765138091996875
0,760584277758573
0,769867101317692
0,788341242453255
0,790919761633085
0,803422432162416
0,810408912988539
0,805689782737288
0,803844647491453
0,783803346671418
0,785951731993409
0,747620128847812
0,76460275253982
0,751534417252689
0,753430757390368
0,733460916678185
0,739934093479615
0,736708148253361
0,742159609533263
0,717398015166271
0,727794368675209
0,724066711488763
0,755496586916841
0,746590266758166
0,755103381851567
0,742065996566184
0,740891661862544
0,728813763519048
0,729363121997858
0,698144809284088
0,728906688819068
0,708354418023021
0,696741861914821
0,687880596748447
0,699332942655754
0,68520215146905
0,714860528883033
0,674751539819445
0,676727589525953
0,665923075455124
0,691457007543856
0,670933577412472
0,677226454239445
0,657133332856463
0,679201265985052
0,659562853545962
0,656258447806935
0,642371773892191
0,65882390047987
0,643616750323939
0,65414216893764
0,625537615713187
0,652231126187469
0,646392526229545
0,651843866117962
0,62685624628176
0,634680062374852
0,628695272330206
0,631236305608835
0,627577908201485
0,63591055985758
0,624918771632709
0,62967311996856
0,624623165734724
0,612502557185431
0,584413594377922
0,630515537330881
0,602999305898923
0,611050124139767
0,609745957447719
0,601820991082245
0,581157329032542
0,611036655822402
0,599301291172556
0,625505911241344
0,594113247108195
0,61967892225439
0,593742617976469
0,588776210712551
0,591227814564903
0,596821431191647
0,597046231867078
0,60867876902821
0,598722954486037
0,614226428651509
0,616675274929024
0,618705356548231
0,603833647388049
0,612558945579955
0,594620651323193
0,614510440267196
0,634887379198071
0,642498165702751
0,613855198525355
0,653172261302905
0,628742252287596
0,652902913199555
0,631314847947072
0,66334235186643
0,622969305353868
0,662756840785936
0,656429564903511
0,688498685157362
0,656962072901686
0,735257119681436
0,677526146005499
0,711280131534602
0,741369294610056
0,719349642073013
0,757550155484395
0,760422494149139
0,762070336919462
0,822397382157083
0,805615019564807
0,870553739146603
0,860551917921149
0,861385350702043
0,861831132732151
0,937741935648155
0,866845801472651
0,981032907615955
0,908080377506213
0,943473957385555
0,912684957900441
0,966448121299494
0,896513753278171
0,920768512427528
0,889849033765675
0,971235424844021
0,919877274915
1,02848060340912
0,905566015060362
0,967775107283494
0,975666408674547
0,993395547223725
0,950768328342003
0,989354729502361
0,94206838622887
0,959721134911358
0,93598465180547
0,937111795592712
0,925459784630186
0,982931965461447
0,868691458130275
0,975657644660843
0,940187997082914
0,918179666550037
0,842277309554103
0,920147620518339
0,859408492733536
0,879673210422225
0,835291719747253
0,971039883130222
0,868743560889863
0,803043687423859
0,925043739260009
0,811632368439673
0,802759013082359
0,882008303044071
0,826070410865347
0,907145461036111
0,920690213944223
0,924973597196
0,82543865611047
0,945711893571362
0,863778170703266
1,13343236702749
0,89267701657084
1,11764750825625
0,81061919096685
0,930496448087955
0,844863607365476
0,912105537220433
0,788214039929967
0,861457462626836
0,865441854269739
1,00492359707708
0,821860760959653
1,10577239968695
0,979557394318435
0,972163939790764
0,871182705228931
0,971624075818819
0,890430886726793
1,03187051923074
0,98235251822953
0,970187369576314
0,882245161547035
1,12863347374073
0,757545837360942
1,02762847226275
0,927888068672959
1,08207737387948
0,960651522420602
1,23051528113193
0,962678216838711
1,10883632574013
1,02173528686591
1,1976371380495
0,992054882744959
1,19895863818614
0,958802359541035
1,21567706502173
1,15661677969385
1,42372285346623
1,22287839059332
1,37146566492381
1,20526143996485
1,12269128856393
0,954769111767219
1,39679953719977
0,971852652825169
1,46788984129092
0,940220689177235
1,3634709485037
1,20184268827854
1,18624180615686
1,01960282670827
1,14625652269917
1,04628989271561
1,17435564475804
1,05301816032779
1,0926221013635
1,00231180772651
1,32839734891939
0,866847161425242
5
0,885680837262057
1,06915470697376
1,20156515520999
5
1,11599625921589
5
1,10381310041343
1,07771276519914
0,981605975194835
0,928977783409342
1,26135234033517
5
1,05837611249409
1,22388638407604
1,17988915460319
5
1,04521893038818
2,61699013079187
0,794462673577382
5
0,655533805876623
5
1,15154196785966
5
1,01720811237247
1,81908458417754
0,927386252819935
5
0,719043778900898
1,38062391437376
0,902423047301907
5
5
5
0,514903208764587
5
1,35065348277713
5
0,77249266947505
