3596
4000,36533379555
650,420452594757
1
2
2
0,0740454138178047
0,0654881731715957
0,0620687006014658
0,0608542070615675
0,0533735673046895
0,0663951876620205
0,0655417959017982
0,0626543878649926
0,0669272636264233
0,0602044321755386
0,0590038823908033
0,0668960456400803
0,0631581591222931
0,0635122230420655
0,0658461911901356
0,0746005811670769
0,0545071154889431
0,084051889122711
0,0684818571388781
0,0680320124991199
0,0660710358782751
0,0670437271548924
0,0586732518807578
0,0768339442407048
0,0625357442385436
0,0722819894756278
0,0688582300407273
0,0670234518545542
0,0674560424807058
0,0575115378171281
0,0653213641538403
0,0666093481677088
0,0643344748608456
0,0625187865607874
0,0589920641604063
0,0768070823996232
0,0683291685363042
0,0697656320927856
0,0670865076203754
0,0580653759276644
0,0570962817198947
0,0703912851938016
0,063715528022363
0,0674183367478774
0,0659088739316133
0,0660133583169935
0,0594758389696726
0,0565971499929129
0,0665358333256234
0,0688938180350065
0,0640386381212978
0,058824937673037
0,0731037852556836
0,059419820136273
0,0750953919954749
0,0715869157902415
0,0659296051265831
0,0703409776387244
0,0588231259517787
0,068665779458492
0,0705584168229852
0,0616581814284018
0,064545724360601
0,0527110071242068
0,0722810501634318
0,0567443612466629
0,0576710110859595
0,052759908348509
0,0785118359016383
0,0617460061596119
0,0707712300525285
0,0725623241322634
0,048926508870396
0,0685880853170065
0,0708234196811579
0,067282079384856
0,063610610340499
0,0564125888670694
0,0631513113712742
0,070026867362538
0,051572206602285
0,0527744553568849
0,0564905443981258
0,0638234460044166
0,0750959778692262
0,0462229978802496
0,0702573689109749
0,0722888813207042
0,0466473277593576
0,0551751809566335
0,0536227387788432
0,0550662625951306
0,0565308496279536
0,0620679484989024
0,0690003857441231
0,0563631942754827
0,0609802187992796
0,0709041461228286
0,0623071025886952
0,0700342819307053
0,0398429081986341
0,10724359083905
0,0336627531000219
0,0899164513663429
0,0597723968816174
0,0397604217757369
0,0877671416369535
0,0430769708844122
0,0588853296237273
0,0460005703164739
0,0602077086076283
0,0558573442479897
0,0727271055949805
0,05092849844291
0,0736927151855231
0,0737584614670802
0,0486624705958982
0,0519044219571571
0,0568236150602787
0,0505895419473815
0,055616239437311
0,0878108343017024
0,0248981672155364
0,0720329056048053
0,0497803017629345
0,0527659497578073
0,0677902559964035
0,0644056189997905
0,0302381122667134
0,0625610608120598
0,046032686704371
0,0568392756361035
0,0435688246020962
0,096517372561801
0,038452436989693
0,051957826829537
0,064150464870684
0,0620738702128956
0,0794290926861982
0,0215980318100695
0,0574151983418684
0,0516265625126349
0,0548479662675899
0,0761168852154265
0,0478478934516993
0,0496633088775203
0,06367030994923
0,0614348830420626
0,0476363095015738
0,0640654896617544
0,043126770308354
0,0719786620166759
0,0550568807566959
0,0532808091148965
0,0741614355252394
0,113550765923016
0,0115211539794178
0,114387240753658
0,0150282275193501
0,0611409225018896
0,0476082827834634
0,0571557822034588
0,0642849275430698
0,0608452486003178
0,053181661194235
0,0495914148182673
0,0757524859301806
0,0494268782312395
0,0616735900449409
0,0549768045270101
0,0727318403306578
0,0525667741520541
0,0903230609137511
0,0457000214114627
0,0368254423262242
0,0744614275037552
0,0450477668738021
0,0587630127534226
0,0549634006332031
0,0838424999728381
0,0405891477552336
0,0646616941956341
0,0473182975296963
0,0556755140548558
0,0533054825505564
0,0635657715599367
0,0532577661588605
0,0693135781066985
0,0436601644377562
0,0727055499699035
0,0718031832581653
0,0716692287447144
0,030364772634224
0,0650669662536372
0,0493814419054583
0,06897255568429
0,0800746664685721
0,0443771737132718
0,0718603873956591
0,0522526539855796
0,0519035768704247
0,0575598120887708
0,0558770110090378
0,0666616668055362
0,052507881958857
0,0739829958018747
0,0580386030157358
0,0475006330483819
0,0560639637879298
0,0521091886821652
0,0513856486094077
0,0703392340778953
0,0777281118849022
0,0329648162219732
0,0647513159467462
0,048244108540695
0,0703181812451962
0,0630120068381567
0,0516263678536771
0,0484397756743635
0,0516861710452776
0,0563806695188338
0,0522337730194242
0,0542469110083934
0,0633400944616313
0,0521689210072449
0,0572175552415146
0,0533555527552386
0,060166617270371
0,0671859250741283
0,0573002159677014
0,043253602965154
0,069321617053917
0,0527794299133371
0,056578137893905
0,0765045648756359
0,0534348955387011
0,0569153122716452
0,0569008232901183
0,0589723876815948
0,0509727087297559
0,0554979622620146
0,0532093865203778
0,0693338562710853
0,0616365555274423
0,0796212874669935
0,044809913138116
0,0578890807357463
0,0668011270080272
0,0531505125043367
0,0798524263743555
0,0369636376306682
0,0689580363964266
0,0506571168606956
0,0699034937546687
0,0481115826217596
0,0953489940534703
0,0438029969912639
0,0561621244806535
0,0647336249340818
0,091778195768917
0,0410053757193667
0,0831099477151918
0,0521660887740948
0,108035945209167
0,0523740542999322
0,0477625106582528
0,0717087351051809
0,0497919098421176
0,0492472925484944
0,0779882671553965
0,0402040816565559
0,121204891305769
0,075601748337331
0,0456836053914571
0,0318569125593469
0,0822850455805172
0,0462560176204258
0,0662746493025331
0,0776956246511759
0,0540461176724237
0,0913576023152694
0,0427807663381457
0,0878762490027858
0,0674650902202293
0,0541128394748681
0,0999306442784942
0,0239410772387168
0,0732319304363785
0,0453782400670455
0,0628872317438744
0,0599268133846635
0,0983772865578172
0,0507664187234141
0,0922260151456319
0,0433546082160714
0,103450131082849
0,0542760606100174
0,0641146980184121
0,0608151659964159
0,0869488474337829
0,056059022133294
0,0788983340411171
0,0606794169679905
0,0762719133774362
0,0744447606965706
0,0618567100462134
0,0899734482229256
0,083708111809489
0,0475282749945199
0,100355364643079
0,0602237560090605
0,0762594305433063
0,0656749940825956
0,0651999642088162
0,0640451778959131
0,0648600519624489
0,0568776660701342
0,0848841213034671
0,0670271513494322
0,0665296734045711
0,0785103578908745
0,0709157618013074
0,073730773741622
0,0755182157983793
0,0772500969705651
0,0720437348033154
0,0792437244402943
0,0853219498867278
0,0776747174754125
0,117596216430243
0,0680227932290479
0,0827208774905872
0,103972923199695
0,0616787650915801
0,0802148217171619
0,08053904865384
0,0802386639120885
0,079492105531881
0,0768589165504834
0,0842431300625208
0,0862096252020902
0,0910347132415134
0,0895574878249373
0,085759019558342
0,0986526220952211
0,123075604192145
0,131779899983923
0,0920749634845433
0,0821097266973797
0,092467022666561
0,0895303907050644
0,153086537499935
0,0713789282349081
0,126998812241685
0,0771155634694374
0,104292986015828
0,102554286120132
0,111548510547662
0,102752531754273
0,108156878581705
0,112469613591437
0,117596810869434
0,116166133364736
0,123327310427524
0,117822309347924
0,113369324699338
0,146552774777655
0,146402340524435
0,111835794288776
0,138945909102456
0,130025908737418
0,133607976311782
0,175746236566991
0,137898133241708
0,173471722076986
0,128587382570078
0,177092065646163
0,140087289082038
0,129554232190382
0,160138719970339
0,142321226860297
0,169173734022655
0,155703850270654
0,163256690681041
0,167732931241058
0,16221763658412
0,165741980264092
0,176740767790532
0,16922388233303
0,187667262571478
0,173536118631647
0,209701777917515
0,173323988901363
0,211871168735092
0,192363239407719
0,257997492641217
0,183178057284762
0,222927876752737
0,165388364035304
0,222714373578
0,192980990943732
0,233143898299074
0,204739918528248
0,248384013341756
0,21660593791296
0,264176960564333
0,242640188008861
0,233389403608072
0,234973120538858
0,254353279676209
0,225202315203365
0,290001115238227
0,228942287366136
0,284893504730803
0,242814686347973
0,275742701536341
0,244577845867371
0,30808682294712
0,237304401845114
0,293444797024378
0,257170667457333
0,285785889835025
0,294391572446092
0,28762992486372
0,287731044681193
0,298650827808877
0,301727016999299
0,31186968316271
0,294903984677345
0,326140194456812
0,30107012037706
0,326503543196547
0,310933829042646
0,332950354696053
0,33077006543547
0,340221998152141
0,322729373814998
0,372392403558315
0,319050800709677
0,387251178268173
0,315177346723318
0,373886393311243
0,350620519443439
0,373143927929704
0,34928680490122
0,369289172799441
0,362623458517348
0,391273627622448
0,378432282805674
0,40363804985609
0,385990683346193
0,413919340206892
0,385713520715815
0,422452974121015
0,41249999092542
0,432975196666641
0,399497715698995
0,422725940477556
0,421059061594422
0,457720037480962
0,429319781442346
0,530786765432729
0,456905104760745
0,505827716780428
0,427929069576935
0,462895792647442
0,433276489044754
0,485494636857938
0,462319118966908
0,501584129529148
0,475699018339015
0,513865575915528
0,491594260962816
0,514093007811207
0,49199091702926
0,524655587293923
0,468914293467956
0,54832035464601
0,512141734599162
0,533063046006469
0,519018536369531
0,550392337646943
0,516755050089095
0,549132640064376
0,539754175927909
0,577150367956566
0,584639165835452
0,561449412963279
0,547211333045068
0,592729990083179
0,55822366992984
0,621816244459582
0,55834835531136
0,609570000488443
0,572235547392731
0,65600470283548
0,584545389761606
0,616037091423699
0,595693203636581
0,659103890778465
0,576416313483937
0,697367307410005
0,590373742365428
0,66391255432376
0,624448281196199
0,70470953550811
0,626449418911122
0,701790404072078
0,641191954507487
0,68993465223601
0,620358844416824
0,72786437644834
0,64917296683679
0,688784088582585
0,669725192715728
0,75262616288372
0,691647527400343
0,7469359630378
0,68550024855333
0,708314667909227
0,716787586435711
0,775278601377571
0,686845009085348
0,763586616754538
0,71246131703286
0,784299293866291
0,73509732090773
0,773385431331321
0,757140056439136
0,812793852203669
0,727465540475754
0,818164679377716
0,732564990195316
0,794972145196724
0,814996460406542
0,779483479343861
0,769923361757215
0,815646497909178
0,754527592867556
0,818946987021604
0,795900931517796
0,847260864966941
0,788143229439912
0,844184784373602
0,852281338781214
0,906345733664195
0,829336712241352
0,921066295300137
0,801125385534373
0,882246872740043
0,837727659243606
0,906890621384441
0,840501858524777
0,904332729354647
0,80400620153838
0,878252114245059
0,811629815845903
0,967449370317048
0,899158678549892
0,944164965277941
0,909498862265522
0,95023648401477
0,889005780133354
0,92283570183527
0,850139041015793
0,98696513124277
0,925758565068133
0,972254294314165
0,938859663304742
1,01967442713046
0,91300353281154
0,966206081403402
0,95773968880791
1,1057760191596
0,976341659770545
1,05031125832212
0,949740301191275
0,999265038367128
0,972987930131271
1,06082394327267
1,00254620380673
1,07180936394022
0,96148044960855
1,02949796014246
0,960197825224099
1,06423292498171
0,998340384894777
1,11446690810562
1,04529519276421
1,09713704054205
1,02898044942926
1,13644455598655
1,0449162195313
1,09565503150718
1,03030074487577
1,09686743997789
1,03756545143681
1,07105848910656
1,00795666317493
1,15912059581852
1,03533140448645
1,07989997061089
1,08735177721508
1,16184670723511
1,03579953600271
1,19719170342055
1,14161206162932
1,28652184680713
1,097206455757
1,17891371082858
1,15032007521562
1,15857675847331
1,11557447872162
1,16028715474639
1,09246751319807
1,33251903858516
1,17839830302444
1,18510351434665
1,19303941461814
1,25866720842096
1,11259724479861
1,21568897936601
1,12865106816735
1,2633584520205
1,13178277590251
1,27851598589423
1,11598926130154
1,23661695783485
1,21164857457113
1,31835129937338
1,17138330544405
1,25838308459654
1,14862813980973
1,23959561681867
1,13826784575977
1,26506598026963
1,20178312727965
1,32435089059027
1,21909872302341
1,29607171898556
1,17119317437988
1,19345973222631
1,22804864004207
1,41117069019331
1,20759599391699
1,32881747486755
1,26059060955534
1,27556593062578
1,25814786352237
1,24777482003402
1,23590531452707
1,45521663153084
1,31712152098258
1,39465483497634
1,47923341448281
1,56079570371937
1,28735883018608
1,49321242916346
1,33950876023553
1,33318496939614
1,27294556389608
1,42129310815598
1,27098609722328
1,32587667671604
1,31946537411648
1,40000496267093
1,28445272685511
1,32813544765876
1,31407629640547
1,33911961856059
1,36016766358432
1,38938585417207
1,35630947284338
1,45074738731495
1,34255102561404
1,44598763954403
1,34552703573211
1,39300388931707
1,36418786261178
1,55250043202406
1,31599393824948
1,27787920851691
1,35507606450899
1,37719711894056
1,37187979387831
1,53394707571088
1,46685049734919
1,54215939021613
1,31142040207169
1,35056588104517
1,30521854664665
1,45940334467933
1,40537174904886
1,27588421842981
1,29640336248316
1,51484643516213
1,40376190405433
1,50858205645496
1,36977889967896
1,41790169936046
1,40005067995918
1,42338447764298
1,32295684764979
1,37395357594455
1,33416729500764
1,52644552953024
1,31688867755903
1,39132957300659
1,47060902101815
1,38369767875697
1,38536047111418
1,5353768984082
1,547989925328
1,3840375368259
1,36610459781199
1,56580263897032
1,33243799075368
1,39845431554673
1,45867284003117
1,40582625509584
1,42831190572063
1,61172623072761
1,53665778716986
1,45732590397765
1,36514415932109
1,37329873981564
1,3626141384686
1,62264412986688
1,41449055564705
1,40580295579305
1,40614473471161
1,43082191842267
1,41870286041283
1,5634104115165
1,43155157273485
1,52222631456289
1,51402353365763
1,46302498783172
1,38745454321287
1,47702641546811
1,42041466793447
1,46384101060024
1,41220302205581
1,44444524596967
1,45666863172116
1,45241564565247
1,50162654599989
1,45621654161868
1,40805770282123
1,43782838402886
1,43527755476671
1,50200389318628
1,51323106721964
1,54734128466269
1,4807489329317
1,50477420276781
1,48712056936127
1,52619072051272
1,5383984226794
1,61922147676858
1,52546799843135
1,4799040869781
1,42691827655504
1,50343086573946
1,48740399954085
1,47207591498592
1,45650012811448
1,44784574059955
1,37484736954213
1,42920447340079
1,47952782951827
1,48911511661945
1,47403280806529
1,56349914007306
1,41490177536636
1,40064886377144
1,46761616531941
1,49177603640354
1,47952056675148
1,6146430709308
1,48826395899708
1,43122229614441
1,48315340265405
1,42522013911016
1,41779620856921
1,50710567975948
1,44361536336411
1,38758357523264
1,54162953791742
1,59715668524849
1,36489975695752
1,37662386556591
1,393867878292
1,41042934414785
1,40920731656765
1,45009617508551
1,50396572181977
1,45379255295313
1,43708450110192
1,47234447780368
1,43166149219689
1,55596472727252
1,46493025267088
1,3977821086782
1,53960774087339
1,61425392570904
1,45243726938019
1,34331133371804
1,36971629983238
1,50061162819273
1,5374239650791
1,44688462554259
1,36708407494549
1,40250857035854
1,4581705531596
1,49610495890324
1,47811635041977
1,41104095204849
1,35427696802003
1,40720852058169
1,3956942927566
1,3286929778611
1,37679343168393
1,33429018457838
1,31524664484183
1,33969978145996
1,4045029266544
1,40507432442285
1,41095682465118
1,40262164469223
1,35275898683165
1,38099957130444
1,37412316151591
1,36584836790725
1,35833032461078
1,40174831788899
1,3073283756825
1,33853461423483
1,43135941364095
1,32133654562757
1,37578973949977
1,30842515114277
1,3939648606042
1,35874274912656
1,27901700910428
1,3618890736132
1,33125014504594
1,28114121396355
1,36116425123086
1,32684626474817
1,31267652822068
1,34409737004516
1,29180565944513
1,24159633806195
1,27307176947874
1,25706207370418
1,33728444574543
1,27997056821848
1,28148205530548
1,26452683896228
1,26540211557788
1,25498342472077
1,25029763345354
1,23142955792035
1,22459738092927
1,24134511295054
1,25511585604495
1,22921840953329
1,22011065040168
1,21224222226411
1,204551643741
1,28566544596161
1,27381515416331
1,18614164598391
1,25142449449142
1,22012923583004
1,22599706429315
1,23057319682358
1,16246404152185
1,16786874367301
1,17480155866961
1,18608317992754
1,15326015022608
1,10602663762403
1,14913341507208
1,185320992169
1,19881648400335
1,14320901403683
1,12957196350416
1,09281100172627
1,15410735812554
1,1547021925239
1,14970228765974
1,16374961525193
1,15874682145619
1,12618130263922
1,15928460409957
1,09411995258431
1,09390253272553
1,055047193818
1,08394772164645
1,11319661725577
1,10594091897358
1,05223808082053
1,03491659579593
1,08696505545011
1,08877964113409
1,05933240102427
1,08661985393391
1,08587049370491
1,07279227520845
1,02615881669428
1,02061657846745
1,04033438452041
1,02700180785446
1,02131486846919
1,03454255402507
1,02392936294683
1,03799529799869
0,991205160932519
1,00993170204188
0,986484919012899
0,998724206684495
0,98615321122753
1,01712639367981
0,99165315448543
0,961426197861003
0,958724998201243
0,965016185623077
0,941972083988066
0,927758795281098
0,94441880633207
0,967290856712899
0,96402832730736
0,939215645065307
0,943571477630737
0,976685113369229
0,93564984775662
0,917097297529661
0,897946722179497
0,914214823455967
0,903603952296293
0,909633818456982
0,900429348270825
0,922798776781006
0,88258214722494
0,872013035742879
0,883692777338564
0,89493140074843
0,862998960040953
0,889289433365177
0,890852153145645
0,87359564406115
0,860671876040483
0,8452798877896
0,847357830151579
0,850621346175682
0,847759731018664
0,855869617238464
0,834659208073992
0,863940504120918
0,826645419903383
0,845084740540727
0,824931090150505
0,810857287777481
0,829200544827072
0,810013415370586
0,808916566959846
0,80888767169681
0,797589483252343
0,804499654373317
0,770818671690414
0,79409112978509
0,797227094960844
0,796372137908319
0,774098678412616
0,785993535029486
0,778709022022502
0,759848715368025
0,771073999447407
0,791744871096473
0,767330821163769
0,761673675197902
0,748867585565955
0,767407405057378
0,736930306652431
0,760715511899136
0,76062477693491
0,750192655429395
0,733652772249907
0,741586242803021
0,732868278109397
0,718071344603823
0,716799163140443
0,749259911448268
0,721956110606854
0,719029291043323
0,706953640582272
0,733722039358274
0,706702697204759
0,707735857186962
0,693894064832226
0,697337756349121
0,680630804502189
0,688113937873707
0,690837436322344
0,691958730452409
0,676018981886517
0,677647436517406
0,678512959725765
0,681054412215156
0,67107432039953
0,66668662903846
0,659255452680637
0,675153862658632
0,659694529863398
0,665421728883633
0,64536401434599
0,642721644979419
0,634643821465506
0,644634466418969
0,64112458392003
0,638503130457762
0,626952968847755
0,632501307175638
0,629205253430368
0,634445965934403
0,619539311462414
0,615440113696283
0,619607275970678
0,610803517940943
0,594676379396007
0,607946376043196
0,589758729646663
0,602735285129191
0,594942700088388
0,589828285896286
0,586865016778278
0,584837921167314
0,580053277402138
0,582749755635693
0,579040648127245
0,579609330379621
0,564524231257621
0,583089251159355
0,564304624313147
0,56285667869037
0,564975117501288
0,578049823327576
0,561710616054264
0,55937351164288
0,55520082217605
0,555454348368398
0,552626128498927
0,554734999753978
0,558786767137484
0,545301663845711
0,543789237601455
0,547339117757173
0,542042145812413
0,529449851036727
0,537350370095045
0,552228564337567
0,523631448937257
0,530348387098445
0,525483007993522
0,524774244842132
0,519767182569878
0,526909527589327
0,512283651214402
0,527639447745864
0,523415101986025
0,517652554497288
0,516586651921339
0,516189884955234
0,508535121609725
0,523234441412323
0,510098031183229
0,521316579991213
0,502545201603507
0,523587361600518
0,520427364014114
0,520471912877156
0,524102717352057
0,518858847055028
0,516878369654587
0,514288672728244
0,513406818560363
0,519495164617898
0,521015991048809
0,53470008392221
0,517792158178518
0,532518396457865
0,516425033525891
0,518402053538818
0,528864947454482
0,544564743068282
0,532875308777026
0,534245358402254
0,536208832448026
0,540482811121244
0,53578123465469
0,548550190125208
0,541430226843596
0,543065130550797
0,539584318536635
0,555136537752908
0,554754829846198
0,551589033681064
0,549133595448145
0,577854988085577
0,559205752847699
0,570461098508002
0,557386813831689
0,572668223431756
0,575011506563787
0,579490454260542
0,568086910837814
0,575415038015182
0,56515004379742
0,581348390719546
0,570856958727433
0,590908393786991
0,575372002817812
0,591171431687894
0,582804594070467
0,593157021808658
0,581305352776691
0,607692530499537
0,591602098836658
0,60728959039543
0,599188475984684
0,609672980810576
0,603773794043818
0,620097845092527
0,615665567078823
0,630901393310387
0,619187494062828
0,647696016424123
0,619113118891147
0,63733234929797
0,636316929918
0,639673198541127
0,636735236612399
0,657177415849117
0,637652934484595
0,6461626886124
0,645899420659885
0,650241737408608
0,639177567861551
0,663418384748526
0,634888040931225
0,638441546195426
0,638053221700112
0,647222075614982
0,633181857312212
0,641765725678868
0,641440418508478
0,637426661079172
0,641379031224151
0,637845532082124
0,626506401382531
0,632203450631299
0,625430499455044
0,63934247858087
0,618409043175074
0,642785594885474
0,627461257815537
0,63418091650762
0,614453666760132
0,640099050755615
0,635098465497306
0,632306068831409
0,624099566316264
0,628438821323261
0,629406235140551
0,642666245581096
0,612386761384092
0,637055307601113
0,622930285717011
0,646987622276089
0,620949450344163
0,635602541531486
0,620775972894786
0,636995589543122
0,622810220721853
0,652602360607443
0,627938760455215
0,633038410489542
0,620163167096496
0,642796182572221
0,634730400134025
0,640104058097247
0,615950779372758
0,62876550271059
0,619046777380176
0,632436927128689
0,615963914711488
0,630206507905655
0,612848326836998
0,634774824037378
0,61136945856284
0,624561383111293
0,611900976028969
0,626419663185475
0,61800682627872
0,612424408752431
0,608751629600969
0,607506000857638
0,600961570623718
0,610234824236663
0,596460758837739
0,611719425298996
0,593328505929758
0,595906150797476
0,580821573114581
0,594126427149889
0,575847334534497
0,586608284327074
0,565527850567535
0,575141004226588
0,559044963395536
0,570336519928699
0,556808845715466
0,569964768165766
0,536920165448202
0,564445255327155
0,547707199050916
0,546337279473101
0,538174691634067
0,541819867440391
0,526482950113485
0,52829587742213
0,518224255650881
0,532533873248907
0,514596820303826
0,524142671859525
0,514320324436645
0,510593648681454
0,504021583397579
0,515836597074832
0,495155978135384
0,49479177575841
0,485954370952924
0,499113288857247
0,480830551047602
0,484789455646999
0,479237662681216
0,485967433484038
0,463892811032496
0,481527042214446
0,469519486866637
0,474822017907421
0,467207237590866
0,47251518703834
0,458557432651588
0,465262572273305
0,460336001062234
0,46183819587269
0,450527334434545
0,459735065902253
0,451011725349976
0,461539706831001
0,444105558056123
0,448812176359683
0,441276421047171
0,447785846054262
0,44490237556565
0,442835433323724
0,435245492576863
0,451904730379272
0,432846251357241
0,438880605845525
0,427699809602183
0,429870618826941
0,426880421487387
0,427474897254486
0,419068980910969
0,434601066609522
0,423599387049706
0,430735620726006
0,418781701167355
0,42220673293706
0,418891234659426
0,426275684413539
0,413503586012497
0,41471032772474
0,403374887339543
0,413933540650725
0,413989402305548
0,407665910879774
0,401015689183439
0,412616245030757
0,398116205665595
0,407390899221312
0,397220744084257
0,406391829603309
0,396012682796366
0,408131872134575
0,390222383984732
0,405616208853483
0,396698433144787
0,397222873905291
0,391523820188061
0,402823028719824
0,391275469650896
0,393514341920161
0,388630868374081
0,391508184079116
0,386846708609009
0,388057140240258
0,38955947633461
0,386140151673163
0,381860058198725
0,383376331693282
0,376861399890268
0,381762583336939
0,372790339141538
0,378764383946208
0,37277111322303
0,379730837401677
0,377044943478089
0,385371944315028
0,364661052087428
0,37886587254556
0,370625854249802
0,369442567202088
0,368694074460236
0,37161274179821
0,372312296789782
0,369156640338466
0,360421231648911
0,371848393063417
0,362510254781197
0,363554071119632
0,367372412852697
0,367390729662397
0,360033693904996
0,369491943652794
0,364654293971611
0,365017972471978
0,360006358778358
0,365071235159403
0,358099200736295
0,367077361503626
0,349714707964083
0,361235511128473
0,352395663509028
0,358376079916899
0,354760487879604
0,358058352325311
0,356409841431414
0,360261257113647
0,352717652252504
0,361331995468073
0,357196972108557
0,359948874046344
0,353499168398738
0,357469316111572
0,349009999374324
0,353543588408216
0,351751320224833
0,352784503192457
0,345403399476323
0,356903174944989
0,345009595388564
0,356068432079042
0,347347430776141
0,353425773054252
0,348002983899068
0,348595655744374
0,345550347832937
0,352718934520286
0,33972543718178
0,349834518257706
0,339736635553073
0,346775921020237
0,341077322196277
0,34571027331112
0,338587763791363
0,343658258349708
0,334772254279852
0,342425998855184
0,333340907482155
0,343111603889037
0,333426515092889
0,336255654075001
0,336353259533933
0,339881971295398
0,325670799691704
0,342351718651343
0,333973889084522
0,339057359953005
0,324593905099469
0,334064795853511
0,330080531446174
0,330766770771799
0,328229982430967
0,335030083967441
0,324817662916463
0,331133689859234
0,322881587050249
0,321459407786076
0,322321565092461
0,33056348858209
0,320927657628627
0,324772816048018
0,318368001861128
0,328218390231891
0,321903743556511
0,325900426546828
0,322470677465502
0,326870976042059
0,319054198626936
0,320937883700491
0,31529725173443
0,318260014990668
0,317262331988416
0,317740972047516
0,307177334108806
0,321522176304597
0,309472479622821
0,313988576490985
0,312006042750599
0,31572471938594
0,306910429760547
0,307929562886221
0,299791958390707
0,308468027162294
0,304640013629275
0,308618621170999
0,303486740283052
0,305794126921027
0,298257283273982
0,303959110305798
0,299622881815714
0,309745482515457
0,300406718551353
0,304464008469999
0,293002280457243
0,300254281926658
0,292281066006905
0,299754617840624
0,28802901969042
0,293392267860453
0,28853390824439
0,297241845492311
0,291812663637187
0,293643339252287
0,288786826428656
0,289731239281116
0,283942119537409
0,294686557657022
0,283921300356434
0,289491805087286
0,284515981818229
0,292402282661041
0,281117202397771
0,282553687755616
0,284358627913851
0,284452045592154
0,275045749165573
0,277688172699298
0,272014839492127
0,279012008863832
0,276628266531669
0,279699667468316
0,269520022091132
0,277993246472939
0,272813301600141
0,280184926425018
0,264157345688748
0,270227582998829
0,267899028411546
0,270586970091991
0,263117361164799
0,268566195025036
0,262682465122675
0,266182500763336
0,26211960763219
0,268289468334364
0,261247024893864
0,268365284904859
0,261004202178214
0,263591151923053
0,261352364244036
0,265266883446064
0,258756065693275
0,260063272897867
0,251437526935672
0,261157842919993
0,25430098614559
0,256830017086539
0,254384696355997
0,262929017367406
0,250783919629683
0,256800527178173
0,260098404725373
0,257152856617404
0,253666871689556
0,256361275595419
0,252647079389183
0,256680397733027
0,249306997113657
0,252438389085499
0,245871046873624
0,255868928016694
0,248547972610698
0,249025171742496
0,244349380421913
0,24606170727895
0,243248460281967
0,249709218882941
0,244410219440206
0,242603960678648
0,239989935615812
0,248238358173253
0,241598166491671
0,243575723522892
0,242851026503108
0,240428010503482
0,239474585202838
0,244506514576663
0,236822781244002
0,24453905682467
0,23981920058937
0,244922394933522
0,23683790523579
0,240033111588554
0,23777894676956
0,238886878557252
0,234193536675559
0,242249991810911
0,237094271746662
0,241518484590391
0,235296961875752
0,241050330463346
0,235975769647882
0,239772068691022
0,232542124020865
0,238921397485696
0,234028754266056
0,235257294156479
0,229388197033248
0,237229913135825
0,232899803332796
0,2324070537093
0,231467679161756
0,236046384359073
0,233395669124335
0,234154268082385
0,228705234946295
0,238424349864256
0,228550084181095
0,232372274389645
0,230117848031631
0,232668416644921
0,229543345379808
0,233780177296522
0,227058877380398
0,233287136434605
0,229859185740543
0,229702721554556
0,22411198318311
0,227770995586239
0,224007917680119
0,226023531174696
0,224012653358411
0,228085991694846
0,222991454382159
0,226672213432442
0,221629594470743
0,22415848111831
0,221099295755691
0,227057547069428
0,223077018404926
0,226356871939273
0,219832813185096
0,223152480649989
0,218186128420802
0,222424657197804
0,222674515438739
0,222756655492413
0,217805914049277
0,22122004405634
0,217490788219054
0,219882845337376
0,216110286471556
0,220245920816293
0,215603805275789
0,223830005102759
0,215494567207309
0,219474247470565
0,213361414711351
0,216701256639472
0,212984281560387
0,220958451348797
0,214333690668191
0,219353730491206
0,214371700236874
0,214562207988937
0,214079945399901
0,216850893690167
0,211443460997814
0,216835415226847
0,21290826779107
0,220612611848277
0,211795818966013
0,213531033652388
0,213703382571049
0,21331661186855
0,208676072747018
0,213917495470566
0,208962850566896
0,211091390311386
0,206022541843018
0,212413996270787
0,20904480205271
0,213695372138706
0,207035387010973
0,206195766279452
0,206239712325489
0,210250408696183
0,203178373618689
0,207127465590388
0,206931161727737
0,207794051631885
0,201476542965237
0,207722530773494
0,203424114815939
0,202959836432063
0,203697483051599
0,205268619047825
0,203085257131509
0,204443904549167
0,199629308599893
0,204999100359437
0,197002259376417
0,200699619497351
0,197693892846768
0,199615754929861
0,196518984537689
0,199230864545304
0,197840670967155
0,200521978225103
0,193526423570674
0,197235480007242
0,194425799132609
0,197495037340205
0,193781977892992
0,196264780420261
0,194568608758681
0,196398740309842
0,191872561091067
0,195112114668849
0,189993590836967
0,193866138613603
0,18854481317401
0,193660471682183
0,191115045396817
0,194652947146329
0,18647972833492
0,18941311178907
0,183033549009424
0,190582880944323
0,186160829028559
0,191426386691713
0,191708796050642
0,191248628844445
0,182346945921721
0,187508018080527
0,18349335781434
0,185212463690034
0,182360926283594
0,184876263947717
0,179361677897331
0,186840152012483
0,181396522059368
0,184293621867883
0,180700050762932
0,183953600492885
0,183286692542317
0,18540868828235
0,180457667407495
0,182734437013069
0,177598134313603
0,180355296255281
0,179530753473726
0,18025136152524
0,175301015971016
0,181579253141043
0,174718308954514
0,17591819584078
0,173717660027717
0,17691279833472
0,176144670548924
0,177019176303217
0,171054972265549
0,177621149272024
0,172689084155981
0,177295287605158
0,175086566639467
0,176802430782968
0,17216899836142
0,174464887826897
0,171901016893788
0,174589673759653
0,167811443475755
0,171129356156963
0,170414985992776
0,171824297581248
0,168333193161789
0,171638515608308
0,166435186106009
0,171018680507087
0,17030406532204
0,171613149091139
0,164603641574131
0,169194165603483
0,167590615126808
0,168792673997352
0,167145148961561
0,169303623805125
0,166184262214024
0,173236052066376
0,166968545269017
0,165333204353513
0,16271294117895
0,167855223595207
0,165171456690758
0,170732316846666
0,165320692058028
0,170066615093729
0,166791652049159
0,166424086168253
0,163617938858948
0,16911631632163
0,17004281114327
0,172423520392414
0,163156050219319
0,167932302637148
0,167955399954071
0,175336100360813
0,167760085755061
0,172810618124994
0,169490432602682
0,175929373168694
0,167797453992054
0,177766843437034
0,175288570741368
0,178043622617719
0,168106220972843
0,175612723247388
0,173987423499977
0,174398918569806
0,167255462667632
0,177483029797447
0,174111572039898
0,172172134611072
0,165685045396681
0,179361696206115
0,163210846119272
0,174749480131372
0,172238109167748
0,173844504872456
0,166495475532326
0,167182178095423
0,167469908211619
0,17168126471858
0,157728561353881
0,165048426456538
0,163329844696548
0,169200203503495
0,16083819505445
0,172645166228854
0,162688465501738
0,167165263260252
0,166020961044415
0,170592100070253
0,162757140870067
0,166157589478636
0,166976335441477
0,161633312503437
0,158127995351232
0,162398011129324
0,162570572955432
0,16337730999658
0,170169630600973
0,164659872779652
0,171426694833779
0,157323181075015
0,172445230347246
0,155593912053704
0,175833952361204
0,150062957820406
0,174412003176045
0,139045769540368
0,182296400014912
0,146521382948244
0,182653102097056
0,132249526414885
0,182830504315713
0,138492381033736
0,182385413395621
0,135909042676015
0,171464865198525
0,142567454244785
0,16790925629991
0,147834811383975
0,162838038973198
0,157205190632674
0,154046264656325
0,159626072336739
0,151255097003051
0,160576841693839
0,14703665106776
0,156759941678874
0,150798684609397
0,154024559732906
0,153064296504052
0,149922229612534
0,153702559874457
0,148439019749085
0,151704484460571
0,147802425961036
0,150513757381942
0,151886203306903
0,150032338752162
0,149736477745616
0,148236613710879
0,149442218293354
0,149193706603319
0,148995819016498
0,149097213363998
0,148308670007969
0,149714676137231
0,148965709778379
0,148516659602536
0,147552560498682
0,147319860352606
0,147424588631292
0,147780597193342
0,147329802011945
0,147429969171147
0,148680503940558
0,146952082206241
0,145690214222633
0,148119763073301
0,146728498421712
0,147537119844326
0,150781705224089
0,146035117380026
0,147876362477297
0,150009511896069
0,148044573124038
0,147677962940411
0,147073444292963
0,146462765941937
0,146995536741778
0,14739805500623
0,145990625526501
0,147673150662662
0,146816960034376
0,145037491761644
0,14647617709385
0,148490550090307
0,146933366705932
0,147430383733951
0,14998878095007
0,146249822516193
0,145290058550061
0,145899341322032
0,149633102642783
0,147956791637508
0,148428204886947
0,148561909883708
0,149214329888522
0,147224645016716
0,145789542993814
0,145508098324084
0,14900902947891
0,149246928982552
0,149297191102186
0,145398036128071
0,149950527001428
0,148470758116636
0,146371863799344
0,146424688942982
0,148938186202481
0,143862713530692
0,14489760253389
0,146194234341144
0,145423282636833
0,146125592930996
0,149268889791376
0,14683398875095
0,14765448931742
0,147150772469106
0,148345003316052
0,145242534849033
0,149274030453393
0,147732813729402
0,148614037325966
0,148241775542997
0,148686293644564
0,147314456098738
0,147318419549323
0,147787520323383
0,151109405921447
0,147728178037961
0,149101448122238
0,147378530140276
0,147385986891559
0,14573267242508
0,147282081807471
0,149558148301336
0,148216651766805
0,148055973730302
0,148295623783818
0,148595605075121
0,150278188135825
0,149501117133515
0,151586322497151
0,149446459746402
0,148501259866053
0,150832662104596
0,148182069248035
0,149752012701264
0,150591852001656
0,148044072002192
0,150370346311767
0,150931106269503
0,150160159933951
0,149805962145093
0,15078719672103
0,150847496993079
0,151352911120384
0,149697737767068
0,151358709551115
0,151679937087445
0,15132783399089
0,151462388289578
0,15064953970215
0,151589714423846
0,152209392961997
0,152207853547158
0,149983341384398
0,149221349795254
0,152774009071021
0,152706484363027
0,15254239527391
0,149890835050013
0,150655836366897
0,151824110527687
0,153934158481076
0,150895103631596
0,150944483461833
0,151387597519181
0,151255318766159
0,152471973963337
0,153359568778941
0,151450503774014
0,152643262724905
0,155307774479694
0,154414473253043
0,153893664323191
0,153905123968208
0,151979593771601
0,154223891288728
0,152393162903476
0,155062349944296
0,154496052410014
0,152572468044764
0,15527784165247
0,157083532364161
0,154891090319499
0,155469583182215
0,1543619582753
0,153566349125359
0,153829174106929
0,154362902522265
0,154301566931621
0,154325693271826
0,153750970802014
0,154099920244001
0,154095500340344
0,154814934080737
0,155474758169948
0,155142322596189
0,15297593612134
0,154582715384352
0,154450602029961
0,154363983875939
0,152776201770331
0,151287063161441
0,154354396005434
0,155941357505113
0,153133340644073
0,151654472710794
0,15244800589533
0,152921091362834
0,154088858823212
0,153305954239742
0,151806161170841
0,152117220319401
0,151921903152937
0,14988949802068
0,151120128581989
0,149452633660459
0,152576367986729
0,154380180681734
0,147656933107378
0,151034356261143
0,150954970873875
0,151171067940507
0,146935234286038
0,148555235290668
0,150745069413852
0,149401828049455
0,148649723610973
0,15079696861892
0,150544626605127
0,149791010924779
0,149807749431726
0,151325714436403
0,147349127112204
0,148499361154131
0,149152355418416
0,148326332844812
0,148260223475109
0,148528629145098
0,14822793131933
0,149082467791912
0,145910010997289
0,14854059762331
0,149331693275241
0,148013423997514
0,146773448636759
0,14785928140704
0,145910448340359
0,147078715791914
0,148848747516333
0,148117128788381
0,144589238140737
0,144330734700301
0,147874144150712
0,146012873044501
0,145964568625827
0,146670186059984
0,144609124885019
0,147795044023139
0,145686181574295
0,146285616390879
0,146469592696232
0,145766653441645
0,144175309302952
0,143814439874397
0,14289780944604
0,144259881349028
0,143876829641727
0,144985565225228
0,14655215807537
0,144410248947869
0,142218437126122
0,143398306027316
0,14229364247001
0,14449588472629
0,143349173692154
0,142849758175962
0,14431819218187
0,144672259433729
0,13999865793536
0,143101613549858
0,143957590418782
0,145237831849876
0,145419544210168
0,142555794062056
0,142638562892038
0,14108347144961
0,145663306113949
0,139818591245863
0,139503769668594
0,139647743576154
0,140186343069908
0,143898986471081
0,141512260275745
0,138525201007443
0,140508933654584
0,13986605835425
0,140186780222373
0,139596360492865
0,139039338179203
0,139104273791902
0,138540897459453
0,140536862343541
0,137063586115502
0,138278039136623
0,141189484402614
0,138906674425832
0,138406261850898
0,139008181029031
0,134722586564686
0,138525036445643
0,133858017478385
0,137700061031172
0,13547077021036
0,137081854797614
0,136665867872742
0,135001468805154
0,135908941642357
0,136918040697101
0,135233577560563
0,133453119791735
0,134025072263934
0,132887508898634
0,134059917473704
0,134726899185902
0,137918008961239
0,134109850284523
0,130927971793504
0,130105078885503
0,132046702723952
0,128591146388626
0,129211409790265
0,132588286232131
0,127978267835629
0,133634383549594
0,129535762976974
0,131040282880128
0,129751932274655
0,125596721293131
0,128279931254107
0,12692229755728
0,127551361279491
0,126920165674646
0,128156521044425
0,125933927569035
0,126141015240051
0,125227400696946
0,126110234005753
0,125950410713486
0,124346777893761
0,124369192684255
0,123726257115916
0,121927529738028
0,124493759819264
0,124775623893582
0,122547957277205
0,121596723920884
0,124430859556652
0,122426666951833
0,122050625115405
0,122573414584965
0,12590259332604
0,116911856348481
0,124595150685587
0,11831949698832
0,122926013734794
0,118583000725824
0,123002309075128
0,118521871212503
0,122587306885446
0,117710676555925
0,119914947494863
0,120554228059638
0,121477292093077
0,115639097717194
0,117884837728814
0,116548997927238
0,120546001896317
0,116312318562104
0,119319923953586
0,118963227629458
0,119111890486213
0,117801236061977
0,117586847490261
0,119577958229273
0,118677147824298
0,116984397556733
0,117951422493263
0,115416342782637
0,112044359293702
0,112200463972935
0,11369337197571
0,11574556290304
0,114962911285114
0,119143392857758
0,11416573071441
0,113306352271137
0,113809568684907
0,116049413539063
0,113699428854444
0,112247327846401
0,114411324743512
0,114411050276674
0,112646881483837
0,111685189405164
0,112174977491248
0,110722338471825
0,11154009201211
0,113409931103313
0,10939320305491
0,11196739671451
0,111717373583288
0,110806985692266
0,108365280370299
0,120484628430009
0,106088617791756
0,110578434400853
0,108167269642267
0,108674824735561
0,11093545540179
0,109052482794936
0,111110127868414
0,111374425275612
0,109292953146992
0,110163221529917
0,106562198630232
0,10848214803293
0,111503648784098
0,10873530958677
0,110111247258994
0,106100806623404
0,106959464796282
0,106385268683639
0,108803569933329
0,107385158408271
0,112693700730358
0,110485068460721
0,102391186462404
0,110639963091084
0,102738532366714
0,111908531204216
0,109041436778842
0,101066281606584
0,110830172851783
0,101678850145312
0,109677932114721
0,101920335356901
0,109786735260841
0,100792750152684
0,11147448166033
0,10290569654392
0,110107475496269
0,10564016871464
0,109101429235193
0,105738439885423
0,108245295702593
0,103851937481493
0,107217417945292
0,106009666315251
0,108526539925855
0,106127644446807
0,103533226075825
0,105223147523211
0,109502548440516
0,100770737979758
0,110805271037063
0,0981443168239967
0,106693431963331
0,10206675414058
0,110471043264793
0,0993628419623724
0,113701389298844
0,101280978573005
0,105542582069632
0,10348999515937
0,104404579908062
0,106290001993108
0,103257986698861
0,102958820922911
0,103988910496714
0,102958378342921
0,104594019395939
0,104132444453223
0,102133873216604
0,105057765504522
0,104339902317013
0,106559709119673
0,101820332851318
0,105227020292688
0,104084502770669
0,104791974533491
0,103088354914804
0,102984440554501
0,113216499304732
0,103745687876978
0,107838343554215
0,100276026537412
0,106342778577651
0,095198176951484
0,105666570856811
0,0989591796022967
0,106077542041468
0,101534891667229
0,105124020336017
0,102270565774461
0,104874337892119
0,102332440994755
0,104245251566181
0,100054292180672
0,108837245090318
0,102094068908503
0,104002129580753
0,101752616041432
0,104084193187163
0,101225798924598
0,101206144857734
0,105735852828931
0,100427665111259
0,108839604253766
0,099350886836719
0,135736520071442
0,0882746974829498
0,111843327450312
0,0987980833261383
0,105092822230284
0,103096533669146
0,102605031382994
0,107767331753145
0,103829467653573
0,103138862004262
0,103718776955658
0,100896182780894
0,10595264367339
0,103981458325542
0,10276889060727
0,115369858861943
0,113029494677078
0,0993196117699518
0,109517064772805
0,0976511681824026
0,118577657016311
0,0984778667601585
0,101243719593833
0,11017971446932
0,101920191339958
0,105424250945433
0,104412531138457
0,108738554736762
0,103519430254774
0,106478466239031
0,102902427763775
0,106899355871605
0,107780991869561
0,106429176777118
0,107996078124192
0,107245036883377
0,113675133939554
0,105502384677635
0,105751176586529
0,114756116633168
0,103084891102021
0,108119196870647
0,103279231199496
0,107782247725047
0,107033447595653
0,118109072059862
0,108544326082849
0,108137587809025
0,116703072798288
0,105996836388044
0,106222258153347
0,11315701583794
0,109517071225452
0,114203651600227
0,101102021068607
0,135390366746426
0,100918850066242
0,121274438543553
0,109037364241378
0,105916041297583
0,11285484338154
0,108941670965809
0,115419198919716
0,110774318638253
0,121357083378004
0,102263280782565
0,123177848834418
0,106312844747054
0,133933467911504
0,107439107978762
0,119937853796042
0,112780027973133
0,115126989845132
0,111265925978488
0,123327457883977
0,107413332090307
0,126266145322508
0,130560833369191
0,116555436024318
0,125741282840325
0,111083594631464
0,123640182348704
0,137261861575826
0,111297073619082
0,126504109842878
0,113580467058913
0,1269773732425
0,114704759448141
0,134886945087947
0,126910169236031
0,119155098969793
0,126936553127437
0,122931345973385
0,122992239112251
0,141184175570289
0,120494215237747
0,133545307272217
0,126056800319488
0,138366628921715
0,119393301158711
0,175030071027998
0,111864396224814
0,158402266300768
0,124637987430605
0,143383705323571
0,136171135196403
0,144306571288354
0,138850453639874
0,153303457680666
0,14665679631281
0,143000591212582
0,141886680608653
0,168032956465253
0,150688267877891
0,148438902298099
0,15976436814184
0,149529426853215
0,169264540451187
0,180014067733166
0,170184449597881
0,162272010351857
0,164376383368625
0,167305157670811
0,183081543077647
0,160212944483651
0,17367622184225
0,168429067132811
0,177532716687961
0,174383653674767
0,180704085392534
0,19015995017403
0,177873522002921
0,188776577844584
0,18307202525625
0,189231625196136
0,200637363839138
0,212227689302486
0,202392492444882
0,194439509484108
0,226195922145062
0,192413565591637
0,206672246898597
0,202952877412532
0,210133785829359
0,221374002171474
0,209438542097043
0,215003855666463
0,214268578327268
0,240027973993405
0,21892758180229
0,231207595019319
0,234623131203924
0,234145828637413
0,250367442500793
0,222060773920775
0,387641686963837
0,239650005060574
0,280177869289114
0,263478615297233
0,300351150800729
0,31011211098331
0,302319148405051
0,302030888378311
0,321197320664433
0,32304382723271
0,339063229036535
0,347145672725912
0,356434485463449
0,364351330135396
0,37697543911754
0,373768861455565
0,414625979978246
0,394042287555376
0,433855241307366
0,428265362781863
0,42994319067605
0,448859334721172
0,472404130475
0,44887776968179
0,481574626768533
0,464622143958362
0,490607398414025
0,528457353886324
0,510442878365782
0,517116267481373
0,524392177003782
0,562677332270298
0,535842403894242
0,601538845595209
0,595493766202635
0,591421561514986
0,60443533353165
0,60420085162971
0,637089679752246
0,623500719408942
0,696383563060753
0,654891506600254
0,674597412355609
0,679604081873089
0,697919542013348
0,695929351436989
0,719379059776905
0,722752396489475
0,726598623517469
0,736338331185389
0,833731249461831
0,966772473670163
0,7909546844047
0,727621743705653
0,751330981240152
0,743857704915197
0,840334056976018
0,742810504226755
0,79265661686029
0,819114991796641
0,800193224117266
0,79488089817969
0,803589024412458
0,787115976924963
0,800786208585552
0,806065744082531
0,797875170751729
0,815684418416382
0,805863125569961
0,846354385643977
0,843334945734209
0,793311580293015
0,829055174936204
0,8205985613154
0,821165642487209
0,804518204948197
0,825600197669903
0,805787787253285
0,832540601365145
0,77307505638639
0,792570313394931
0,758847160784752
0,798193428204461
0,779702219943029
0,739918408696038
0,73298165450161
0,719754860323921
0,707287961826459
0,713818618332562
0,718006477578065
0,799376068554906
0,685582018066862
0,684354408136539
0,679948654858829
0,683814549980034
0,656687976800396
0,65188977481259
0,644509784627344
0,654517084132985
0,632810207798402
0,649981096464974
0,625190391312027
0,640973475168458
0,610647770111027
0,630200017313333
0,612928857358601
0,623562951775414
0,609630469246709
0,606642832623331
0,614378367710855
0,618823005163167
0,608988658523391
0,610120827574218
0,592982946533736
0,61286878776375
0,599957237011302
0,618034193989647
0,596937777867895
0,60593888602058
0,606767705853816
0,610536706138809
0,610725171373855
0,613583011931388
0,603983545323237
0,611387643901853
0,608008969229997
0,609446489554639
0,604887186675364
0,603090269020529
0,602249288139716
0,60312082882032
0,603819939320337
0,588640207716398
0,664330746587884
0,623111547173734
0,604449027236815
0,61690014790051
0,593376393700682
0,608295058640767
0,583456654540295
0,623978668943366
0,611278760209719
0,599316867625869
0,600138912846595
0,59156630777859
0,596732452929805
0,611868173804256
0,587017236312901
0,603567776717707
0,567168189263995
0,613863509638898
0,650490192826246
0,604316356243778
0,638037307816083
0,587372521778064
0,578348216433344
0,579841636574218
0,625174428067422
0,589004652458619
0,596940881529916
0,581508044572776
0,596889343658357
0,599814669381673
0,574601691841423
0,584805246096386
0,568069063148095
0,592034099856154
0,588154780772631
0,573420595685849
0,562612686618845
0,601283431601726
0,54699704975045
0,625910873127215
0,60050487608899
0,585091605466801
0,549687972070361
0,55342872572254
0,549255389653273
0,533898439867384
0,589175677178212
0,542113529491242
0,531227385536625
0,523136717595404
0,515242603558092
0,521086335927064
0,511048695441952
0,531083413351394
0,491914208769368
0,544655348783468
0,485575589830378
0,506910451684368
0,503818981666378
0,516172564046082
0,503654036927366
0,487873432933128
0,470232617878172
0,485617829117433
0,507052973511363
0,465085421858478
0,474012766499128
0,461356044225509
0,449728632274083
0,477733264523361
0,438183095032248
0,451127932770798
0,434949441690441
0,440956740257549
0,450864115148763
0,458769341700045
0,446379648361375
0,419572775766279
0,399601818875078
0,408023960678187
0,403953554870165
0,403097606324957
0,390994996995588
0,401223312167579
0,399577485220165
0,374137954677441
0,413263614654607
0,389468561525241
0,389773754375039
0,39459424356139
0,383884911600134
0,387826487415191
0,40261487233417
0,404908390315019
0,400222973702701
0,392202639936332
0,413983334352932
0,393031280447985
0,407452562961472
0,3958490553605
0,412564474258286
0,405915061665801
0,42190406411869
0,419645070473126
0,426259843967886
0,435667024064454
0,441080170100572
0,441346516725954
0,488555511332401
0,443490783827975
0,486924259725559
0,480552062154646
0,499068403153421
0,502389021584753
0,496310911702153
0,516078598308474
0,510187703362369
0,514719367981448
0,520013864290905
0,518110792205227
0,554356616288784
0,536388200694185
0,559290375479261
0,557254072052696
0,561500824714655
0,559489034196324
0,574740138577089
0,58411856808515
0,593148421380662
0,604716329603554
0,591182525698222
0,610082243783282
0,591032431994544
0,600245342358537
0,606011832422424
0,600681787688721
0,599572918748569
0,596324719119552
0,625274700073422
0,605181951007717
0,610890989249467
0,605202662043343
0,608731266567034
0,623189041433382
0,623893521475636
0,631483110500163
0,628849554574932
0,627791692499384
0,634026058413277
0,624014300189563
0,691484234326745
0,655347316537483
0,644416160055311
0,652417305447983
0,65445809184693
0,663269134528361
0,65035847280826
0,685540239373638
0,680377460548936
0,668937439317841
0,686263671185825
0,683976633141722
0,69775934021499
0,687535823868499
0,717267216167072
0,696231881209862
0,699660015160258
0,702979925475962
0,698976969889925
0,785220448761695
0,725788462604956
0,736149411446796
0,718107140560416
0,736369973935351
0,733387297293829
0,732577202842351
0,723111005932025
0,735589241524524
0,745755938688779
0,751026307873484
0,744759766686207
0,742248703806424
0,746607043866199
0,738058283449298
0,768028154103715
0,75209966054666
0,745635731747842
0,754605974908677
0,743506051555812
0,745270287275537
0,760494998194724
0,765707634346959
0,748188527665909
0,756613437251208
0,760663349542937
0,750683011074783
0,751776718733547
0,756380280176155
0,755355933589551
0,756956252550854
0,744737685657485
0,760122721282257
0,751177229035818
0,782120101398768
0,764658121833139
0,767195068598853
0,762226810821177
0,769172755123052
0,76367999883069
0,773174711269453
0,765524531726101
0,776003671664296
0,774184297480071
0,771870398011127
0,778809595879496
0,775678027468202
0,775720206448725
0,782918690158204
0,787592177599382
0,78303952828195
0,77890783081059
0,766751627109413
0,75829414631484
0,782656975357382
0,762529287280482
0,762991220743175
0,758320926952535
0,743476925736647
0,736222940362376
0,759217104077854
0,73620808630212
0,739915076611294
0,733791934323279
0,712919117969412
0,720857489966663
0,705777889988787
0,705191937648755
0,704761074911571
0,713540684003913
0,700247375265219
0,692709524720057
0,692063584285454
0,69491537210691
0,694469069650508
0,692316163264541
0,690567863738534
0,692260374818553
0,688834790312163
0,682033313514361
0,678316873100364
0,676303341478408
0,678001408006801
0,684202060808332
0,690290231367872
0,692417517924679
0,677000003790124
0,679151085131993
0,670524337571975
0,687511970871301
0,673193920545652
0,678751032313745
0,676344519438708
0,678078570857432
0,675812504804576
0,675861670119461
0,674579075506176
0,680381054407755
0,669608517925103
0,663413523547906
0,668516631223062
0,676203392693771
0,668195015478672
0,670285453108022
0,676452642293282
0,677841236752465
0,676397301794426
0,670796341696482
0,680479993439634
0,674456834855683
0,676850728850658
0,677233310814544
0,684578052046449
0,674901506292872
0,677391772378271
0,680646104510433
0,675887202906489
0,674964509358603
0,672689343736888
0,676028564103767
0,677810518199961
0,670479293026215
0,671099597767716
0,671910951784906
0,662944139900703
0,663140253173716
0,661051091877078
0,656070587111964
0,654541198182882
0,649021876542756
0,64378895506518
0,641600626450007
0,640625537513493
0,636877166667836
0,631511439869065
0,627233893262975
0,62111523659568
0,615844163769873
0,612953909232373
0,611630582691496
0,609473857839019
0,609381225964583
0,609035288861988
0,607012035339087
0,605427604535737
0,607246537298164
0,597064494045813
0,597427183067905
0,602072183119976
0,597949610989915
0,594592074907464
0,59498606475853
0,600546692154796
0,601325704605097
0,602816435712307
0,603392798477252
0,606515181652334
0,603640457062961
0,605507272990461
0,61112332668856
0,614064692506432
0,617011131743806
0,615138833059828
0,621486509633778
0,617658822220332
0,623847531201404
0,627031389983481
0,627927265095629
0,626564576472154
0,630440575613051
0,632676359741044
0,629552467332401
0,629815359596809
0,633737638186373
0,635271925962938
0,633539035835911
0,632235618095089
0,634694349486552
0,631981335717543
0,624159010983222
0,623851072935689
0,627231864836006
0,631244064920891
0,632534901046443
0,628752450887821
0,627986378398708
0,625490264284415
0,618604873308085
0,622008980007193
0,624008382075749
0,618465051333111
0,617821630808812
0,611956902387752
0,609641487257209
0,612632841590216
0,610628509585299
0,607568465935134
0,613025384270673
0,607087068103205
0,599917966086369
0,60304053891544
0,596894079079241
0,595898138854532
0,603456405626599
0,599832313742744
0,59418701196965
0,592569202626762
0,590673130562812
0,589118632721556
0,585887632428097
0,58961448758041
0,586119755824576
0,580445345892946
0,582576321116952
0,576572760101447
0,569934332969101
0,571057457414788
0,569337448067003
0,565126617045954
0,556168617000586
0,556157201184198
0,55356291984865
0,550225645910101
0,545125457539627
0,541666876331668
0,537826603480525
0,536085700172156
0,530189694486966
0,528550127818431
0,525756827090586
0,525661967549793
0,521999902231932
0,519045844695811
0,51824033401663
0,518550872011749
0,515793461661107
0,512282208193763
0,511828291713575
0,506766056171795
0,50226304990327
0,499393758013116
0,4940481711182
0,490918990332749
0,486161572420756
0,47983665969956
0,473913829490078
0,469098281732095
0,465412290866374
0,462806824734832
0,45913192331613
0,459191391338278
0,459355106749504
0,462763458748201
0,464166846742502
0,471245275903054
0,475542972490344
0,484381255697805
0,491695517214428
0,505403244825526
0,518437921007962
0,531334620387653
0,543189147801091
0,559712924345241
0,581276326708123
0,602705736823046
0,62059215509127
0,631219155457953
0,651184070589978
0,673126266645211
0,68606845751751
0,701525637106039
0,728670275010565
0,742825845194953
0,751121756627829
0,772828429143139
0,790084704296908
0,805827887131089
0,818297288815204
0,839306689146493
0,843582697748264
0,851712985332398
0,867748039212393
0,873693743599076
0,885257420001034
0,891731746195777
0,896117607128841
0,906592027302669
0,91837052103909
0,911765473064128
0,915939708546221
0,930594776728739
0,909786606343788
0,922128047764876
0,923940049030746
0,924528599761025
0,919290884268529
0,931042309256383
0,932810359271837
0,935375178623675
0,93421803852546
0,929967123960905
0,930757223292623
0,942005420233845
0,943822480512436
0,95107733769487
0,958839854155588
0,96701358166018
0,965587007103506
0,985990420183763
0,969960534439336
0,993739277564225
0,999292643088635
1,02840719442662
1,02735672791305
1,0395221629973
1,04510422480644
1,05216912273912
1,0785056028607
1,08658574912112
1,11012193221732
1,12421646198345
1,12834524275813
1,15856377899717
1,12929722368503
1,14045089222655
1,16078719900848
1,16816533552882
1,16758862657484
1,15163495844791
1,1626483735687
1,15122758965203
1,15403446812682
1,14810293679298
1,12870294718616
1,1509563255944
1,13279881094241
1,13701950375107
1,13987389508911
1,14620963522302
1,15870206187996
1,16119114418352
1,18331252757854
1,18767157550764
1,21860552372756
1,24388591712089
1,24287252155854
1,2735216395161
1,28039071578168
1,3080079917733
1,30925058493938
1,33708137596344
1,3593594914869
1,35324348517132
1,37495457637127
1,38459131599847
1,40708971569411
1,4232775866189
1,46151788069825
1,46579816435404
1,49103775429649
1,53307793191553
1,52573536781592
1,57692909495176
1,53455244662989
1,65178597713179
1,64939596327603
1,68770491079775
1,68946575153749
1,68323558238359
1,69355290965929
1,68851999735275
1,65523055002615
1,7874665702099
1,79295123486483
1,8425400378745
1,96229029966674
1,76216602317271
1,86950461370468
1,76811036771587
1,78504003609739
1,86243542489727
1,82531863174951
1,83393029332761
1,83124631292536
1,81399174021404
1,80027040215164
1,77547384514723
1,77905399530751
1,81057824436746
1,8279225196529
1,76064818824368
1,81354859311038
1,96416277175264
1,89730396268511
1,83604683013091
1,77175040212519
1,9001056800833
2,04116114173137
1,91177794795765
1,87606857238149
2,06830007017019
2,00893812442876
1,98311610871756
2,01957350310283
2,17471611740859
1,87606571121258
2,01953708617653
2,02606439423539
2,02689280386039
2,05064937166758
2,12857691001643
2,03209882783049
2,00938369402679
1,95512205319161
2,11757568665292
1,89818591185987
2,08367860899111
2,17684154401203
2,15869947995119
2,16918033134636
2,48064017160374
2,0333672691124
2,35445774341303
2,22251480946662
2,3147290750137
2,08687263501646
2,23830323947486
2,14613302817227
2,31206385684489
2,0342592824639
2,08851354112859
2,03522262408025
2,20129356181366
2,0345025109605
2,00883073549024
2,06118639394991
2,05895983230518
2,27325734196424
2,23043484425617
1,87915420236283
1,88420224574928
1,90908399138719
1,97430908264669
1,79392993267505
1,76025743875679
1,70248301557422
1,7029716743808
1,65944007224217
1,73128416655089
1,58204100732413
1,63844065926761
1,58857312126615
1,64417078695462
1,58896130589396
1,60170989891253
1,56912487093861
1,56033854070138
1,50489700462178
1,5240453043618
1,51840361728141
1,58437427589694
1,49357321785017
1,50882656592518
1,45200146476327
1,51520925723055
1,44907044923063
1,43483490228834
1,41141603989725
1,45891400102079
1,33600990710338
1,29903512826971
1,27116432260244
1,29320959808229
1,24049031038384
1,25038321567469
1,1793954734876
1,17389502688022
1,11397652143576
1,08717456131092
1,0630590218064
1,01634285245036
0,975127808761872
0,962590178191722
0,926466398849425
0,919143734520571
0,884854264969563
0,862117070763651
0,832606501836522
0,82050599338633
0,796965723520262
0,787154082433718
0,771273843271039
0,76298315227364
0,746693623229935
0,739996757468247
0,731120682417196
0,737501473618554
0,724879517778587
0,719834969572132
0,715328121966525
0,726129127554925
0,706401724350504
0,716453946231699
0,709212106081274
0,712655759472856
0,710562549193621
0,717447486800481
0,709961256761863
0,712877738671896
0,720396862032929
0,715019374330216
0,706794708164362
0,705690966337585
0,687152743870302
0,683284399431142
0,67665671907407
0,68786268717328
0,670475634106593
0,670249673218934
0,666649253924932
0,673296101109406
0,659371556279678
0,669543251088178
0,67077242466442
0,67295694875334
0,671688579895157
0,674715731781127
0,663397567301421
0,678927619687628
0,677873558735195
0,675491074493743
0,672064850115678
0,679762570604955
0,677395971652526
0,689704438920412
0,682878810562719
0,691917373949394
0,696919427571364
0,692363168856588
0,695973954304713
0,691082335904615
0,690063894796842
0,683327381692671
0,689872400476609
0,710274223632536
0,685533362680521
0,690913379603694
0,686620827564306
0,706210843697252
0,702825909578281
0,709312378188266
0,713686534707281
0,700455714013801
0,711023266633225
0,736629245647864
0,731477711878361
0,759836242390482
0,754873688200951
0,792206947951716
0,798976236153729
0,809984828098581
0,803258265081272
0,842996247160885
0,828366178878461
0,854817651808319
0,869413799685164
0,890648221813547
0,853756434146622
0,864054827158268
0,836868826093036
0,833146629127238
0,822219975594041
0,834121768835141
0,811824000852085
0,809747014034423
0,780315118440559
0,811528085712048
0,793688955370162
0,794617020452697
0,796891080995888
0,807362206442297
0,796146904512216
0,829962860031327
0,789988302512185
0,820453294453169
0,815723478890364
0,795827853135145
0,793172437405135
0,786272616780459
0,76675536339737
0,788197952963784
0,781424773368489
0,761326184144559
0,786438453014688
0,784693772331059
0,74656267636518
0,76968347571773
0,766287226991634
0,780726273734628
0,755139552767129
0,774790089555739
0,758603464884362
0,763652531018665
0,749133398000269
0,767768910648502
0,736121291048707
0,75649522978021
0,737594569864178
0,748103069713556
0,719859431841652
0,73923430382956
0,726692524308039
0,723505776213168
0,733013434239013
0,719017023576716
0,734411025232026
0,735919150053307
0,705959320075518
0,721933719796024
0,723126998224654
0,71363507244338
0,718791638720688
0,710487687982722
0,704442777628594
0,702165291163221
0,693178303480972
0,719910818875636
0,695980542474948
0,731858089263326
0,690973226892983
0,724995244341497
0,690569149691026
0,708134759714349
0,70555276706791
0,738027900134988
0,666814399942645
0,720536514434687
0,691869962729284
0,704705069502758
0,703434383497878
0,709340806187213
0,698355104027698
0,7341479269723
0,701312666455766
0,701369575842782
0,701241858704053
0,763002961957536
0,718063072737352
0,717027725500499
0,730498437739228
0,74737634731096
0,711381627544877
0,74842642580432
0,716834350112498
0,728902646695993
0,739319652175493
0,746816148933813
0,76986315898984
0,748870126564621
0,753539903211872
0,795940953194916
0,793100613018925
0,821171104129515
0,793274677640957
0,821008858084145
0,762703214703538
0,800430695605908
0,78427847600064
0,840153793195528
0,83765510662989
0,912096276540848
0,84699969362353
0,948819363208294
0,875133000234939
0,926853299867765
0,933892207022884
0,994989610161365
0,993309968544353
1,02838239712768
1,03616347259536
1,12477411581207
1,07787067502943
1,05647527333204
1,10247062577874
1,081159052106
0,988137198133584
1,04715241132756
1,04290869175001
1,10857028265079
1,11903050068266
1,01669723179197
0,952371089761679
1,06959568259243
1,05486940449983
1,06376012807117
0,97940897571289
1,04040862786546
0,969367067928706
1,18104552163355
1,01065284420961
1,04430044177357
0,983789864383772
1,12003227107865
0,987857821434661
1,00133652361665
1,09844849172396
1,05683809986347
0,984165045577618
1,01333657937675
1,07229845896406
1,05243330262859
0,995340869952138
1,07985000540141
1,00714217911902
1,14935539326042
0,979561927368219
1,04583157419094
0,937735751547511
1,09706012719515
0,910191311614938
1,10991760774947
1,09722293976189
1,06013167172885
0,967850697454439
1,06154529478825
1,08018476201798
1,12779189594515
0,900964115571604
1,08238142420331
1,06430306506609
1,10713183720704
1,01697109315563
1,09969485539636
0,926431048964779
1,18778364632171
0,995595232082461
1,12263704301153
0,937200732398055
1,04967986023834
1,02492103948221
1,03855291963281
1,00248562497409
1,13089170422895
0,955825884304584
1,01990192487975
0,95954205460139
1,20284376826827
0,976097176059341
1,14615061030012
1,11024310822325
1,3750980571599
1,08730017193001
1,19546423529528
1,08526603661578
1,27546971072422
1,34230746301038
1,4537959685766
1,25506349973862
1,26812620665635
1,04141816951709
1,5488512572312
1,26759828814961
1,27763689623092
1,04214999789116
1,25896515627848
1,11333290026561
1,35607774560445
1,51621455030988
1,18547700006855
1,30010589114772
5
1,19199415003885
1,39900688729152
1,197932730299
1,69141115371078
1,324315527656
1,20413977467281
1,05140797960973
1,78447298485744
1,26990862765954
1,18202190531922
1,042738445975
1,24705203705614
1,57278639750015
2,83125066863688
1,25796130518689
1,31605855218881
1,07115535203423
1,49705901549059
1,07534906164032
1,42692051245037
0,982428126437617
3,81312886540853
1,21784625612752
5
1,29972966441851
1,45673529654233
1,10884356138311
1,10211069613737
5
5
1,48336632426375
1,30750840277341
1,08774661949814
2,33690064390361
0,654915001731106
5
0,867474412968022
5
0,973317033208194
1,30312930071486
0,645002442237339
1,11468627208763
1,53267322626869
5
1,26454130667862
1,5658966662516
0,684093758157058
0,688888807702368
5
5
0,723400153323584
5
0,948575199409074
1,71189732507277
0,60686020807556
