3596
4000,36533379555
650,420452594757
1
2
2
0,0371675701507605
0,0336607069998146
0,0367958872515268
0,0343844143102686
0,0228522159589392
0,0406073765837154
0,0419211920195712
0,0309438789127622
0,0321662039150042
0,036389463266015
0,0330319335249532
0,0438905885067152
0,0408798974485027
0,0405961794188263
0,0249068053643373
0,0377817637587103
0,0231368092109761
0,0471880058061532
0,0448083113691871
0,0401809550828719
0,0323127978977896
0,0311402837719414
0,0300012692106134
0,0498061764394244
0,0343378602863667
0,045055791635829
0,0419729491380246
0,0413041988524352
0,0310229237992507
0,0323796186731028
0,0378032031278431
0,0336749197890507
0,0417657585140824
0,0316489306993542
0,0319688027821423
0,0489014695305034
0,0293620889595559
0,037120622261753
0,0405405682117068
0,0318110444778038
0,0343476832583746
0,0362149599779954
0,0291918626708061
0,0395381446121569
0,0403719589747161
0,0355376735411291
0,0309230737712218
0,0310636458902885
0,0286131697772623
0,0348114943271253
0,0364352463412705
0,0328203060959476
0,045352711842706
0,0328310388959873
0,0464431547570508
0,0388383785497315
0,0318952610076595
0,0419578379581969
0,0275060960027326
0,0340195979504423
0,0387675842177602
0,0318631500754183
0,0423090238716465
0,0263552388378823
0,0392503829903343
0,0266965068075547
0,0317734875969
0,0254989305398152
0,05300327244854
0,0255262276151694
0,0320403702143152
0,040351631094507
0,0244444699413481
0,0447314500461566
0,0303514087313294
0,0321206287561958
0,0411563313773224
0,0290316523817668
0,036839225369026
0,0342825029545705
0,0317469019899589
0,027993548906219
0,0261168111388112
0,0380885236796141
0,0550194468168516
0,0165518080843362
0,0366834379304841
0,0376084608332123
0,029068780939715
0,0303109202900151
0,0285535579075271
0,030525052387072
0,0310783341834019
0,0346475813919216
0,0357807008431243
0,0223124244606531
0,0303435818541274
0,0378543630179757
0,0362688064811118
0,0396776868443642
0,0152583238164704
0,0773633945211978
-0,000899348617290464
0,062869079472993
0,0318190631777478
0,0220504999912475
0,0571232500185539
0,00753609605154565
0,038332149376467
0,0187176165151
0,0249922503149015
0,0246606229216451
0,0400971212271371
0,0192629155194927
0,0288257670991365
0,0356813589578356
0,024660956361743
0,034238688335017
0,0239058223426321
0,0236412300553635
0,0298164245300182
0,0600442173679101
0,0122062991371284
0,0430179021341873
0,0233895807644112
0,0272332975629278
0,0404940893089546
0,0348501728411958
0,00972603802040807
0,0366694188718988
0,0180290796254266
0,033149963556226
0,0256939907871588
0,0459638747042184
0,0154925655473309
0,0273332221709216
0,028923561204613
0,0324985075253928
0,0476374395670326
0,0179918691337737
0,0404533694021192
0,0361531661831653
0,0285068530360902
0,0430527150283935
0,0228458076794543
0,0294866069241638
0,0382684421111942
0,0302087050995561
0,0171452859801313
0,0448584546877333
0,018155366118248
0,0423342082926665
0,0314411551789934
0,0298107550356564
0,0459399169161244
0,0635869672499718
-0,0329045233898777
0,0644609794204279
-0,00619495634218844
0,0412869773120968
0,0224936272367532
0,0301904745616566
0,0316217138700576
0,030469734046874
0,0315109261509309
0,019955137599691
0,0504370686715103
0,0178580140904976
0,0325238660606869
0,0207486581463855
0,0360254133138815
0,0107264507017036
0,0514381739175031
0,0294089468860339
0,0189587126261811
0,0553363852467295
0,0254160268729286
0,0246580309472275
0,0221512408992211
0,0445751237542497
0,0172572167671777
0,030179789772555
0,0207527393231125
0,0322601779465495
0,0285024298457723
0,0374124831346586
0,0260794812579736
0,0321818176277098
0,0165742011417904
0,0439460683020707
0,0483860046175041
0,0398025693165762
0,00797916358055958
0,0412286084289693
0,0252797412938116
0,0379526163095323
0,0439266146624134
0,0171433721663146
0,0435283391537676
0,0299494790875447
0,027032917945822
0,0299013051079891
0,0294892857784983
0,033902687807344
0,0243010603303624
0,0357677813657624
0,0329331822726402
0,0269666045982444
0,0262306455622115
0,0302387253981246
0,0416441650055978
0,0344770083831423
0,0639217390303293
0,0105332390937648
0,0374274626198224
0,0219137356984224
0,0446973675927642
0,0303797555932411
0,0207987179330802
0,024579528130517
0,0326729975849431
0,0322160728898325
0,034328864719372
0,0304926208396672
0,0296728602535718
0,0229930543065574
0,0251103784626875
0,0287367546637301
0,0300876326650714
0,0426286888551076
0,0320862392767719
0,0246892135841127
0,0417123694858182
0,0325053883352269
0,0238418260551463
0,0512452943053202
0,0220063512262456
0,0355462325204108
0,0314644507522707
0,0252540675729705
0,0295543124357508
0,0327813875689419
0,0275567786584533
0,0333957204410096
0,0296721733979445
0,043997451628484
0,0310972588157117
0,0292452379120734
0,0366770693750465
0,0245149452170869
0,0559296402648554
0,0125878967619536
0,0454590754298198
0,0220921318974174
0,049754227050182
0,0199768729382543
0,0499588331635805
0,0209536118879992
0,026557801022601
0,0312385514471056
0,0550056201261584
0,0191044199722215
0,046025792380981
0,0285984136070639
0,0598591348913282
0,0435044177380906
0,0211141466691814
0,0498632660369717
0,0327052217199884
0,0134901225523526
0,0463474896617082
0,0213665571017583
0,0834969739747401
0,0155748831299
0,0324173098283741
0,0150684442022564
0,0529375994702257
0,0367965089320114
0,0369238646938209
0,0432741901656299
0,0234767662800852
0,0595639219763004
0,0152906688080545
0,0548509940114099
0,048207598382277
0,0310886314313453
0,0881475635989366
0,0096982199792175
0,0401310207640813
0,0215507118584931
0,045659282720457
0,03070183447624
0,0735560482952949
0,0190321884265259
0,0711669736713191
0,0154732008667415
0,0628311697110371
0,0343573777206479
0,0385447993625489
0,0267297563073563
0,0616385158468693
0,028541426815651
0,0448963267690512
0,0278784055811694
0,0467604090754154
0,0410780478895527
0,0377106679610357
0,0524287523608699
0,0645523134970562
0,024502252694064
0,0693577396865633
0,0269523806787015
0,0429505044595991
0,0449097186565062
0,0449351524012586
0,0335010366260604
0,0418974667502802
0,0377534018789499
0,0471342353500205
0,0385350605144772
0,0334057801439329
0,0417548778018584
0,0418396541117985
0,0430832910994587
0,0514601596965028
0,0423676215551178
0,0460632199349013
0,0489226513723743
0,0500303579469757
0,0476792149296935
0,0781353820247784
0,0355411625593857
0,056036579934046
0,0745287713782555
0,0333102010533391
0,0466242944603543
0,0447250490768438
0,0488406717477773
0,0442179330211208
0,0507132715622424
0,0551426376669847
0,0505290580121241
0,0515538141773844
0,0595394597974807
0,065299856622471
0,0649809822335377
0,0664041979352384
0,0726640834212959
0,0553175045665116
0,0502838148438143
0,0637984082125162
0,0497167780672177
0,134163808808224
0,0379362208833187
0,0982362551037573
0,0435417875636183
0,0643327263273832
0,0645184212221949
0,0671712506801407
0,066962812222644
0,0680686576553268
0,0730991235006657
0,0745412219026948
0,0775958088817017
0,0764782030698888
0,077622393544266
0,0735395338046009
0,0936546143785306
0,101607350771848
0,0732494197472498
0,0848050554337329
0,0816007627730736
0,0860297188617894
0,113831393825172
0,0798762024898211
0,130345887901849
0,0657770781266658
0,11906791546332
0,078671370751958
0,077163201499817
0,0961842095859198
0,0936970967263467
0,110613859061259
0,095620686239529
0,105298613312146
0,107861123644912
0,11386967654528
0,107901290863857
0,112875074931301
0,106277401280758
0,116587096176024
0,114282897274842
0,148772673064773
0,105405575670479
0,140574587993049
0,122527781656094
0,170057714158864
0,125428028000192
0,174160299577518
0,101872313440545
0,153229230891139
0,115719661798621
0,152772685217174
0,134306037687492
0,158668447822508
0,149227592950271
0,151496180016154
0,153144677264398
0,159555624906944
0,155585387060272
0,156606034902335
0,143132007615112
0,185267781868718
0,149104772163584
0,187143041287885
0,160334637097547
0,181535073732221
0,156982864431579
0,209482396352473
0,159891489563617
0,201985587210574
0,167285878379967
0,19747718002354
0,18293744767571
0,194150684474855
0,207137374022324
0,192479373857075
0,197257505039549
0,203685176145657
0,198197950348638
0,208368081936034
0,199812267502072
0,237002713555089
0,237497887552055
0,21273313913032
0,221550968725383
0,230547679681988
0,213873997132452
0,247447511573272
0,215052711365862
0,2793462630489
0,214352130941496
0,275519460992773
0,231971048950109
0,242856446070532
0,2483103836924
0,268748569235887
0,248555983653941
0,262737585873414
0,273426130254344
0,281024996037275
0,270148417657602
0,284570724006139
0,277716179143697
0,302734737741856
0,274476473225101
0,306207362271945
0,284258598264108
0,317520680883301
0,285160174505218
0,32617154785659
0,31328210812119
0,360506516038581
0,313509336506093
0,391636950374513
0,313249493738701
0,316155331657312
0,319767719759646
0,320199340149311
0,330268235796052
0,356620444538952
0,346866641216129
0,347289967193616
0,35450249222724
0,373182337685176
0,371334130087036
0,386477028728978
0,369013687969941
0,392928559873777
0,372827783758987
0,364501703004956
0,378963017135469
0,396634906475171
0,390262477634052
0,415348284066845
0,392176137706753
0,41363002591032
0,413648882012881
0,452839744705256
0,433603171573586
0,414459431106586
0,396524977116376
0,457712126651833
0,420287212820726
0,456233326743219
0,447312342890027
0,472099604757326
0,44721391393375
0,463255989133447
0,446806078720303
0,497517021378899
0,467335865480418
0,516164632086039
0,465355763407589
0,514619081350295
0,48354205821854
0,523970827633767
0,48656965430476
0,499088519055559
0,486440289087312
0,519742573725725
0,505217705670269
0,559236253017742
0,528071830089431
0,551620382522956
0,509672746261105
0,56381574090428
0,506408797170861
0,572045656368937
0,535447119378187
0,603173189987279
0,556752036511238
0,577471636612648
0,548116879732358
0,600587851803693
0,579584552223565
0,626912087988375
0,584051153292212
0,647149207445004
0,607286586681719
0,632606689742635
0,575818067592502
0,67494799902464
0,583977517905367
0,659617649296276
0,601563562267049
0,692856660390877
0,617051409710463
0,672723878650338
0,626981422191896
0,722701074327495
0,662785190935927
0,69612882686316
0,655298969613582
0,708266934239512
0,670267567316456
0,690421543583145
0,658182370010797
0,706307832170165
0,684149319687335
0,707064442253607
0,675641739013014
0,739531722431386
0,69840671375201
0,719625397507361
0,685598489957123
0,742284445683711
0,742339537325429
0,806272187067399
0,741082523215642
0,782181304536427
0,723701616184012
0,783214589580567
0,727012773392917
0,765330581769539
0,747346712695061
0,790776895966736
0,760976528132961
0,809990858312484
0,747668313701242
0,805241427849983
0,761602122065276
0,823054288767981
0,802771305451921
0,872476099642158
0,826997649584619
0,861480142619761
0,789809052979278
0,888237351034473
0,828226711078727
0,897144892346997
0,875816373609623
0,891046542663547
0,829382147325518
0,969699578572992
0,840572586614271
0,897018937635567
0,831910548082063
0,936415450384551
0,883804079732089
0,951282504809005
0,871396396989522
1,02607685322071
0,837456627044302
0,972585896239689
0,922132246458792
0,978771682727058
0,886288297484913
0,897491950533495
0,893494219240483
1,00360004304259
0,974065188071348
0,911463346682796
0,835108788873686
0,923225269658813
0,897320740757101
1,03171100196181
0,978051937197101
1,03968638190148
0,99689934365039
0,983325820009057
0,908540456670048
1,00185654829295
0,979096784037623
1,03122256201601
0,972339458670448
1,09075480554646
0,944256495666249
0,994534506679765
0,971475948885793
0,998264285701908
0,998328227859357
1,10737940302586
1,0676111751194
1,03862069720967
1,03244478994221
1,09473149505858
0,99684514575053
1,07095468060271
0,993979140687916
1,05042155125985
1,04139840433694
1,152234510165
1,06116935851403
1,16842958333804
1,12367874179326
1,06999410822078
1,09346838577617
1,16301567320966
1,00158512277705
1,09033665688991
1,03667216627723
1,13116808285756
1,01278097479918
1,12768135756974
1,16554972646109
1,18061987378631
1,08931881323951
1,07585377876644
1,11349437603967
1,1749634932393
1,02333786383136
1,23403412530064
1,15488645942869
1,16900892175668
1,16690976222807
1,2618403712248
1,10305172683427
1,24338195667169
1,18720534735684
1,23863889645296
1,17788013427254
1,19859351650797
1,09896058981454
1,19253567916916
1,17744289194738
1,25521710987518
1,1892944964662
1,33453056132297
1,19347638382728
1,18932393863072
1,19258335828511
1,25370291722251
1,20263579431077
1,21751728445196
1,20081391402624
1,25966562918089
1,18710047124111
1,25727679021628
1,17309088260572
1,25116348199309
1,28326741547207
1,31298785440417
1,15594095194555
1,17650647332307
1,12983930932034
1,29546335074089
1,29080790109369
1,29360496872873
1,16890722332598
1,23391992011748
1,21350774457509
1,28017639375373
1,24904808116576
1,25443370280477
1,24333346090262
1,25429572926827
1,17117849287745
1,33931376630739
1,26977464358039
1,38579816955825
1,33481146702588
1,30779385794547
1,21249116376992
1,30703601707105
1,20350600968284
1,18713450924814
1,21171263102645
1,29388602876139
1,22932389847224
1,30422543181512
1,27247874852456
1,33494156349359
1,27427800910168
1,33770331728733
1,27128342979226
1,31297740994683
1,31889037684315
1,26019570079285
1,2397097164539
1,33025530713371
1,23464653911352
1,24389902812759
1,27847977557561
1,31098673156336
1,2520305689112
1,30921583268417
1,22580919924442
1,26747424034769
1,30815314261861
1,33909865363742
1,24057363616896
1,22551265782511
1,2313460491276
1,41558924197096
1,27893408313289
1,28242052360403
1,27827663067873
1,37177921237063
1,29981658587404
1,33095504736598
1,38489982469157
1,32658349237689
1,25759040548402
1,34830756336996
1,24025737750212
1,22069917149369
1,22870150242027
1,27363981973483
1,30453929884427
1,31172101999201
1,25809086833942
1,25132312885988
1,30248861072963
1,33086626967553
1,31695020058653
1,33559146717997
1,2107927995138
1,27805755808245
1,27387647940906
1,27343317132297
1,24274717435266
1,29064707883156
1,28215545448635
1,26309384698804
1,25161383361684
1,34919932274514
1,32538304280938
1,29069374899421
1,27394114698083
1,3794229958863
1,32896039346553
1,32505216621863
1,25728668992965
1,29809862229933
1,27559730954886
1,24123354945519
1,24540392711957
1,27465686899193
1,23157977167152
1,26788456221821
1,26335310784157
1,26996523581095
1,23506180618494
1,21470792787456
1,23060189836615
1,27083840054606
1,3254972355277
1,25099804469067
1,19952105709858
1,27854573942808
1,2601796682214
1,28235504484681
1,27009212847613
1,27752284619288
1,32886797001259
1,23205218435762
1,17927572499328
1,23836810705416
1,17518846528447
1,20558526034479
1,25273455280613
1,23134695718009
1,22341824266117
1,27774893174487
1,23918544579241
1,226082905213
1,2079593993015
1,2024387130099
1,25083378449615
1,22132743350164
1,21202706395
1,24428284803255
1,21659974743482
1,24604051290169
1,19497796420855
1,16829345149345
1,1615706664099
1,17304384362665
1,19865351061245
1,1397348555671
1,15188981826658
1,18620161707918
1,14531602381093
1,16430363566738
1,17040073718704
1,16563863402737
1,18417070807163
1,24617176199483
1,20741911894928
1,10392706779416
1,11864737488421
1,21993697530215
1,14421510613884
1,09554743661541
1,11381478746344
1,14454730586611
1,15416859856281
1,11878094522336
1,13939526445603
1,16153737312285
1,1259880221545
1,13750164852599
1,17742434134709
1,15334783821742
1,12805442726591
1,13322756117425
1,13222640651918
1,0662395740249
1,10139159340009
1,12360953520605
1,09249986706768
1,085766054945
1,07633626557
1,06343492458955
1,10541470506986
1,07330303545072
1,06463802111225
1,06252067981868
1,06226155045085
1,08663399496449
1,08171471576402
1,05922187201972
1,03492156665204
1,03935073845844
1,01583578277565
1,00394098834813
1,01309052757923
1,01635370856352
1,02730373945079
1,03747644332444
1,03793993780597
1,02437254101287
1,03071125959371
1,01545851838196
1,02998744809707
0,988612101207947
0,98323927082208
1,02325657541033
0,997312530213759
0,974315072135257
1,01755410090199
1,00911093006773
0,983931333986402
0,977979732807396
0,953107519048716
0,974863860946648
0,999554093593164
0,956845344284072
0,976080990468214
0,944590923648977
0,918398090982972
0,932594415031971
0,90838798417702
0,915477471072725
0,939413889601303
0,906386136499337
0,914763348052258
0,910381484171672
0,911221374704618
0,883650487016395
0,907644933308926
0,923064200428348
0,900769302788848
0,88106011498888
0,890143369012782
0,910382784284977
0,860825125445636
0,856797886767238
0,868776344878945
0,867245221392916
0,865144643451326
0,836456004757956
0,829806233166522
0,844414572538184
0,85361802982228
0,822190205125988
0,843830367876843
0,830217387192585
0,847130158488757
0,811389514192124
0,79224221495917
0,810714105854921
0,827013169426302
0,805321405384784
0,811165987497253
0,796642210462177
0,781388283799282
0,796209415201872
0,797536932643741
0,769464842946619
0,775698706845555
0,78072851891717
0,768467384831944
0,765037366998614
0,770115335225125
0,752031882152179
0,767393543847757
0,761090680142228
0,763628845758042
0,733479780291897
0,733728168412691
0,729335223932376
0,716384714839136
0,713156814361458
0,733681318447415
0,724013078728054
0,723681629760753
0,698933992924005
0,726868205237206
0,701822967401206
0,709389596568662
0,714355776919277
0,704945286848139
0,69472886840681
0,67922649912083
0,669284274936471
0,674267558388705
0,682499629289546
0,688342642849499
0,678297081099897
0,67723558959778
0,670121974878757
0,667873493428944
0,674257915492756
0,643830484190685
0,643389959208355
0,646797198202929
0,641257239471352
0,660045708687629
0,634056973054838
0,65186569199343
0,629521318357149
0,632258859315853
0,630717940493
0,619629888343962
0,622619839813995
0,618604110180298
0,607567728770746
0,62122273324131
0,613573496272936
0,613149867180895
0,61051398024771
0,612925221289796
0,602174744497501
0,602966855851853
0,599612157464589
0,593685389207064
0,600644604385572
0,585549634954765
0,577109562064147
0,588267534180004
0,582056539949741
0,577365191037322
0,558085454410923
0,572003704735311
0,563325440858183
0,564629183659315
0,548448191452554
0,556750388514475
0,551479892732669
0,556817342915775
0,553624435555707
0,548723016149267
0,543154983630558
0,533364086756099
0,536347155410954
0,538948960088617
0,545680628010962
0,536467081727869
0,525610430016975
0,539434837324166
0,523485607719977
0,53460779047286
0,520392484172466
0,520494268834029
0,52226440148975
0,519290744363896
0,507629912042342
0,511188442195757
0,497075765492164
0,511447301097447
0,493950372409979
0,499020876338458
0,495938877569157
0,50317800983509
0,481386600071488
0,493462085876465
0,482013055214641
0,490340574262948
0,488970054256796
0,488498339557624
0,474322236457026
0,482048947006182
0,468602479151615
0,473256076470532
0,467039879596524
0,471001149640758
0,466977078910129
0,460201067860779
0,457119915240223
0,462147592072043
0,453472506784987
0,451038708805503
0,451602058234873
0,454112804813466
0,445966841420124
0,446521447688258
0,437464003786292
0,445412289322986
0,434776941473077
0,441233499160818
0,440633477252727
0,43893715564163
0,426896616360091
0,424625165204947
0,429623531556332
0,433397195229166
0,427333013002071
0,427594765712845
0,431750562123669
0,42377471115343
0,423593524608545
0,428881916928393
0,414174072241329
0,416051361985986
0,41875890762927
0,415869711889731
0,413214293747553
0,415964867023443
0,406968707708281
0,42137246831659
0,40959442039441
0,406472477334685
0,41617025183201
0,409353157033728
0,40135227058046
0,409051035940355
0,401817484133916
0,413276981022014
0,406484107134062
0,410347012245599
0,4059330580101
0,405117890497582
0,406205819301088
0,41859768724304
0,41936983185127
0,410040559038528
0,406215251468513
0,4100803857146
0,413267218866541
0,419822966453015
0,421714909713429
0,424032529299611
0,416443599196386
0,423037450710091
0,41523086771872
0,430919888594861
0,416559011404883
0,427517369532021
0,438701258984686
0,429295019882175
0,432443265367255
0,440267771951205
0,436630685233609
0,451065911667362
0,440813968394833
0,448107978876204
0,442491594113404
0,456082136104266
0,449107477921237
0,458730696509105
0,444209870798924
0,451601925529401
0,456047874270832
0,459607586063801
0,462736334990219
0,481785574518275
0,466279080129419
0,481159870299005
0,466108936709714
0,479074879009591
0,473966267148801
0,481854681199162
0,475902471776301
0,483429604045524
0,478354875382487
0,488208340710329
0,493841981936757
0,511914830901443
0,495896034821638
0,49846076761921
0,506684421975413
0,515359207977964
0,507025840235929
0,524446789160759
0,515922389894376
0,541891613536219
0,529314913169897
0,532364830061484
0,528177181312292
0,532384513837499
0,532116065943899
0,540585098833558
0,535569127453442
0,542303350411031
0,545334787807889
0,554369294055616
0,553454581499794
0,551068302146983
0,544420019292022
0,555831190332614
0,551564997029719
0,558243638294409
0,539812875877871
0,555342604564883
0,564032640353092
0,557783466309518
0,551447762668862
0,567423629994935
0,540249771329226
0,554766919044993
0,556224711289032
0,559631988981753
0,547446376201022
0,567491827922274
0,539831273075544
0,553044405964464
0,550617549252931
0,565231395573007
0,546075090686085
0,555810978914184
0,550357724549041
0,557325759829968
0,546592081198372
0,557149711568432
0,549854893904582
0,556537202921483
0,562308680184734
0,554993558849345
0,552245993848903
0,558146591735708
0,561937985423248
0,566395945104757
0,550617342333043
0,560664762762417
0,54823472775605
0,57687460712636
0,556050671059939
0,567351315433091
0,555734094022089
0,560763368323118
0,551111005220477
0,578243650233005
0,549077159530331
0,565821643193861
0,544613021999558
0,553007516857138
0,53979710761712
0,561579043880271
0,550496330537917
0,563861905936995
0,540256493249438
0,55464889028483
0,549419134109436
0,555047043927788
0,536279876828642
0,557469373288319
0,529789343937826
0,541837171973142
0,540261221466393
0,549850740901858
0,525275877200093
0,543730645673252
0,531037818314839
0,538681299657679
0,512683040118376
0,527288812954466
0,503144781608042
0,512931060654829
0,504071917075634
0,521551718114479
0,499887176767482
0,494904917890319
0,50131113600327
0,50454417871452
0,476364272037257
0,487199185187151
0,468700221264577
0,478313696452323
0,465933483456021
0,470172104382933
0,466360665294035
0,466476026358367
0,451578332660928
0,465035630938327
0,454688314443227
0,450062570242617
0,445189194761478
0,44925145926154
0,440290999179132
0,441670570780546
0,432891407699728
0,435189608606175
0,437163582824017
0,432039950214105
0,427827942273399
0,422539322325872
0,419683089343576
0,417708900448203
0,412032731394745
0,417798989389039
0,412909460066477
0,41634825780276
0,409040201410654
0,405987387437437
0,396050268215995
0,402956182706331
0,392914550797288
0,399346763124398
0,392913186972599
0,395566636093318
0,385800926422235
0,394804774273395
0,38062985149183
0,39674078296843
0,380445899364303
0,387380438027056
0,376054705402013
0,384356317392716
0,372634819315433
0,389816373900158
0,37270822780427
0,377042426387401
0,369475120690233
0,376116000162633
0,367462149808712
0,370573981022232
0,362702286648455
0,371239261308409
0,360626320327036
0,374071823087872
0,361307380242596
0,370817185750226
0,352523599574439
0,362322484824875
0,354017719342619
0,354978740945193
0,343775646829885
0,353487452520148
0,351726661404472
0,355193928376812
0,345239202732635
0,354334022005366
0,336854203332975
0,345431220100741
0,34017528600385
0,351214781238675
0,339347568031382
0,345095453671834
0,334045758212865
0,346139375004239
0,339123149714054
0,34431495820174
0,332860920208428
0,340141192906915
0,336601302851132
0,337609681975018
0,32687244758872
0,334405006080356
0,325262254424507
0,338616647742085
0,324636868850829
0,334873565904991
0,325939756342558
0,326702278893493
0,320997126880072
0,32544823640473
0,324086023521259
0,328709999113745
0,317816840137125
0,325405434596826
0,31822505074461
0,327841739349591
0,312229102647652
0,317150934303956
0,314000637942542
0,317649439764829
0,318127981481584
0,316977854332754
0,313833603336192
0,316869225016542
0,309487277335995
0,317813052388634
0,309277742187638
0,310447490741564
0,306981747724255
0,3100985740485
0,3031827044414
0,312399461578356
0,317821727257741
0,314058168327385
0,305949490637177
0,309424943531723
0,305943263946131
0,312414950798632
0,306994883209861
0,311169808919603
0,300070382073063
0,306339383102287
0,30155237094377
0,308978520543354
0,297245537311863
0,306583382528369
0,299374526216737
0,300147395903015
0,298209363323456
0,300350173842367
0,295630814057147
0,310711744114971
0,295616180396274
0,300598580777763
0,288895394036623
0,304882668424497
0,298936212218904
0,301295554724572
0,293929447884136
0,302295641429188
0,292838340306499
0,300743158688113
0,295083000222429
0,29542586832012
0,287296500338388
0,295701293779344
0,284144209432267
0,294041380530675
0,285762673856699
0,289417805913788
0,290292185999379
0,29372119068979
0,290626689217597
0,293388493873439
0,288405372313078
0,289900359535794
0,286226048452279
0,289904677991974
0,28379174713257
0,28181390949566
0,28298987252112
0,293722331299578
0,277197977860522
0,2851494695144
0,279006073715197
0,286508469021065
0,273755490817254
0,279347750524321
0,278589025630298
0,280664425461238
0,271818924340508
0,278822830979524
0,270764879290109
0,282009239448135
0,269377315297327
0,275960899377613
0,272708360187849
0,274258075401071
0,272961778444407
0,283119258831427
0,266349433950407
0,273376559357527
0,266214548257759
0,274820733010274
0,265288023012713
0,273617879970636
0,265316229632081
0,272501416270259
0,267422180463975
0,269040335547589
0,260414695922791
0,268593309502225
0,262370937476143
0,265388934317389
0,2626264269144
0,261970074542475
0,259763753804421
0,26543862193124
0,251530260133155
0,260788320993581
0,255737564549196
0,258730585571458
0,25058900025983
0,25408167604142
0,249183777365727
0,25902317488745
0,24844008803315
0,252350697636265
0,246909965282604
0,254763428549946
0,246870119042609
0,251924203071289
0,247807676462043
0,250903268128921
0,242791993134668
0,245368455907731
0,24391877582362
0,246626589714655
0,241256533685573
0,242065929720473
0,236036340914821
0,242344342622099
0,237657057775247
0,235363982317565
0,232228848536134
0,240315628496559
0,23358468058833
0,238785421292088
0,230911458013765
0,23588427589091
0,226558885412108
0,230769952170405
0,227616934900587
0,230642722988029
0,226412467386228
0,226486819424666
0,22117649299512
0,230054303481329
0,220375947163882
0,226785642816345
0,219498467405811
0,222868310807824
0,218708552888747
0,223343596870177
0,221338076316111
0,220369334399357
0,215460239693744
0,221022551139726
0,209906788367953
0,21661209172796
0,208755002516347
0,212784035888241
0,211264216470406
0,213857585445305
0,210167967624989
0,212605931295099
0,208826150976965
0,208857909500494
0,20876355710765
0,208498020018947
0,202853637423398
0,208085714633127
0,202490964775231
0,20666603079118
0,203119571047017
0,206942467011425
0,200105089461677
0,203204298049082
0,196572034807982
0,202793517004959
0,201999537100448
0,199761379575981
0,193875903848181
0,20091570046213
0,19408366971994
0,199944223779735
0,193194785090446
0,196187005949052
0,192664915782399
0,196184423564253
0,188578195212059
0,192256068076234
0,187484251093936
0,196700876855725
0,190241014831547
0,190853916895475
0,184687244121687
0,188892987782194
0,185921192328716
0,187202754616362
0,182229644628349
0,188677247612746
0,18274198752284
0,184508997199137
0,182002411226166
0,187649986540047
0,181431263293031
0,186497774015005
0,18383554963042
0,184679498908565
0,179883734791989
0,185564146622802
0,181554022251569
0,179191050506206
0,175271299131057
0,183070283324718
0,180363363050159
0,177239558650949
0,174267834319432
0,179962996128424
0,176883919273719
0,184462043898678
0,176468711919706
0,180131232035876
0,173423985649678
0,177866251321606
0,170720281048995
0,176648214280097
0,174588103812488
0,174024019842233
0,172606243749713
0,173165859954099
0,169477314798244
0,176529620598422
0,173748415107523
0,176352545284816
0,167975684794566
0,172911652547922
0,16900096560843
0,170507256888192
0,168433925754237
0,171564391900319
0,16211105720724
0,17213029722869
0,166805587716767
0,167093585209503
0,164998893536408
0,16647082639022
0,161786091037879
0,16751498956767
0,161549538520063
0,166722101219611
0,162870128285987
0,16509288446157
0,160374368806931
0,163624236697993
0,163105547355267
0,164085057223827
0,15929928887535
0,164348873456169
0,160858223907291
0,164116805184662
0,159855090940567
0,162636314199201
0,158013388376904
0,163548800073965
0,15809711280038
0,160595288083333
0,157435602401574
0,158544038845312
0,158566495116114
0,156261672369735
0,153791304097479
0,159878904179282
0,152871747342571
0,155645157465148
0,155449799432406
0,15740776846067
0,152417215815786
0,158995107228171
0,151708852781727
0,155805579726015
0,151580614592815
0,152996689940759
0,149377450696039
0,154862141571922
0,150591240104435
0,153730069174943
0,151975919089688
0,15427686224721
0,148060547534144
0,152707135621947
0,147628239377278
0,15090227037671
0,145567123509171
0,146139243356758
0,145779142713509
0,147482518111917
0,142718059328856
0,148267364760442
0,146291832802915
0,146677943616491
0,140511870091958
0,144395608618491
0,138158489844908
0,145433158236677
0,14130201428001
0,142503447988001
0,140875582818369
0,141988952314977
0,13918618413279
0,141626480168381
0,135020875987334
0,14105772086204
0,136959275158748
0,140659388559425
0,135604696507088
0,137097766399214
0,133146271514605
0,134988138891877
0,131854808525081
0,136394746546168
0,132760725460654
0,137778130504591
0,133364926177739
0,135127270137465
0,130022968158699
0,131771944471043
0,129582107393397
0,131707934758251
0,132655874377295
0,131806919022415
0,127270916212323
0,128056900630096
0,124978735839478
0,12885578511446
0,124585527441575
0,126709589661568
0,124538282418145
0,127457547847335
0,122108480381297
0,12502853844212
0,124116016325837
0,124519381478413
0,118414017122912
0,121579809631387
0,117579457578242
0,123335351388581
0,118358648588645
0,123995719752047
0,122079073091411
0,121831513170283
0,114942351532791
0,120000875077283
0,113775323615248
0,119205131987419
0,114357006954975
0,114721013031363
0,110820271162114
0,11696086669297
0,113928196824091
0,116678097144796
0,112920939439965
0,114800755558869
0,111906304658137
0,11360198668799
0,113510633834456
0,11365077657603
0,106796620297722
0,113246043990659
0,109426327669079
0,111607332179834
0,107390435948865
0,111535790160914
0,106704634854694
0,108984317155478
0,101737826247234
0,108558250667521
0,107511896019335
0,108899957700944
0,104687977637418
0,107316491340037
0,103302444369576
0,108116025667948
0,100977981140947
0,100675080150582
0,0996500744245724
0,104320647151211
0,0998596361330601
0,104864548270368
0,0985125623733236
0,101040489139371
0,100061610893325
0,102610288822765
0,0976457146682489
0,098134029215401
0,0963524619279181
0,101621360026337
0,0972699317311268
0,0984926189652956
0,0950571815024453
0,0963281739901984
0,0944160972444167
0,098605784827925
0,0945226404642741
0,096290887731186
0,0930428646479347
0,100132712056131
0,0950220764646317
0,0979698317737844
0,0936327687353286
0,0964974778838885
0,0970657488832106
0,0953159299754134
0,0927954459198057
0,0970556051832326
0,0901420949352025
0,093998220334846
0,0895374435809417
0,0959731010975902
0,0960745501692864
0,0992821616331334
0,0935775814583615
0,0974491739662935
0,09280630074967
0,100471889868859
0,0981501372870431
0,103954993413741
0,100957901270136
0,103923705301926
0,0989627115775894
0,101166062511852
0,10060698773684
0,107205673049341
0,0977215691869659
0,10645501695007
0,0965401135356379
0,103533977402212
0,102834359316557
0,105619187409573
0,101183522596557
0,104719214385635
0,0981190391395116
0,106668158201432
0,0969175442246696
0,102637409403317
0,0990683629701903
0,106406676409015
0,0965588724551896
0,0969723049400127
0,0925819423675037
0,098672748632623
0,0885919610008168
0,0939138409967769
0,0916432561308044
0,0988794429772252
0,0922687143344574
0,10307584838221
0,0919832814776649
0,0981200663366486
0,0928202038390762
0,0972630088700232
0,0914859249454989
0,0954569139749757
0,0968477823231346
0,0973106920631213
0,0921784929487293
0,0901602029429223
0,0906251562800357
0,0879260897888647
0,0970756395048434
0,0916020746170989
0,0979955013456972
0,0842900802826892
0,0941973529516533
0,0798585297420994
0,104782049835093
0,0788490840431779
0,10142104577646
0,0662780300114741
0,108252376039107
0,0743645276760278
0,112678097216946
0,0607399006611157
0,111470844092136
0,0672640602717218
0,111456221113915
0,0621138740162661
0,101651233208411
0,0704295471749043
0,0953157880732627
0,0764634246551639
0,0911397877634963
0,0857719944734368
0,0827387506417632
0,0886754616334458
0,0823574146101319
0,0875819632407602
0,0743348223930725
0,0875614492522087
0,0785004156301886
0,0820911546269796
0,082243284688584
0,078416977529346
0,0819016456179325
0,0777625371563112
0,0797547511674352
0,0768866557202702
0,0817633918136244
0,0800226703097188
0,0777252669957302
0,0790610236110866
0,0776364642570811
0,0767575227359686
0,0770117076314246
0,0769757454200226
0,0751213203284329
0,075616171481432
0,0783227043691511
0,0758100306193603
0,0740765371999006
0,0764023781603083
0,0764758743140617
0,0769234808606414
0,0768160768660969
0,0768135846139338
0,0760294982783753
0,0743181541886273
0,0760469783374404
0,0768233604766156
0,0760784708579846
0,0762813349400047
0,0759547917864774
0,0761268467327112
0,07483289564535
0,0765538595053355
0,0764085157949825
0,0752582468644787
0,0763540600054022
0,0761527196246622
0,0759761953003996
0,0747521080850811
0,0759488699657046
0,0747662496253964
0,0754125358911157
0,0769023215881603
0,0775694978196675
0,0754034829732111
0,0738361367085669
0,0744830489241569
0,0730183344392343
0,0770690368216441
0,0764383013106512
0,076362092583301
0,0750288147115114
0,078443083658704
0,0767913037013169
0,0769603001663202
0,076092025639295
0,0757057091153735
0,0746433579561998
0,0755532373337427
0,0747938292605883
0,0776203668384821
0,0769765633224327
0,0765918257326283
0,0725275959740931
0,0786031473641577
0,0759659046761355
0,0747502091108978
0,0749511297511549
0,0753733520705957
0,0730037200697844
0,0743007357161662
0,074533286867264
0,0726709355468597
0,0755674428517986
0,0797859766579095
0,0747822559344535
0,0758638420106585
0,07628857479607
0,0769143527290168
0,0731638333497197
0,0761759477791465
0,0740885390876961
0,0769616602310682
0,0774842854973409
0,0786746925318994
0,0754972737101432
0,0770227963537988
0,0776763522180887
0,0794892824009505
0,078932483431228
0,0777857688427879
0,0769662342631562
0,0776173298019322
0,0761634625933837
0,0796058984064069
0,0770492237141551
0,0754514005611392
0,0762226089096859
0,076735264432258
0,0764302438810009
0,0789053472696178
0,078013012095287
0,0781558700674903
0,0780326481884513
0,0786348353796476
0,0775610495421137
0,0774242150400111
0,0789144659425319
0,0780096387798584
0,0775756301164305
0,0783925983755937
0,0791072102460778
0,0790603637065424
0,0778060112879892
0,0784038281888122
0,076433413224094
0,0788431244690636
0,0783467222799176
0,0793087137972209
0,0798017131625049
0,0822223125999474
0,0790196264814416
0,07831004727307
0,0802245392739439
0,0809133339873114
0,0808322733363331
0,0782533223962652
0,0781271196704287
0,0825752886005849
0,0777637494948286
0,0800611708136792
0,0811361282098121
0,0811134273174684
0,0794955289912837
0,0802003017455855
0,0789435673046648
0,0789109699640652
0,0801520363109699
0,0826647035992956
0,0810422064163999
0,0826438779682613
0,0801714697366692
0,0805212898021661
0,0814267939276181
0,0832689801666762
0,0822421516735857
0,0814501776460807
0,0832515863865489
0,0836500033671458
0,0816985785239063
0,0848551011596868
0,0824589869404406
0,0838869221703459
0,0843568488110694
0,0837520642129724
0,0796606854704465
0,0819608958762076
0,0817385776406707
0,0819028345205962
0,0836185917545426
0,084809633800774
0,0828160292758199
0,0846956360187618
0,0825446139540064
0,085461318920747
0,0828812634940312
0,0835004929942789
0,0855622972171266
0,0833835049214805
0,0827433872609646
0,0844706280843735
0,082706548464671
0,0831126644508075
0,0824611366011482
0,0823516002426026
0,0805682227552827
0,0823904237189491
0,0802811991128761
0,0785907170383345
0,0818188981378958
0,0809542961782785
0,0831500911081709
0,0822560118597472
0,0799571291615366
0,0812710578363992
0,0802840543500643
0,0793851194452953
0,0795770825761417
0,0797333046774206
0,0803823312235205
0,0832418383368202
0,080483196107214
0,079182060571036
0,0785603925125947
0,0819744076067648
0,0777427533108638
0,0786025852297106
0,0778022565533784
0,0775669277502775
0,077748854995466
0,0796266932609635
0,0794475841582399
0,0794122812391611
0,0775113838154007
0,0775602811640144
0,079022952503374
0,0792283875453767
0,0774395262156847
0,0783003864566078
0,0761115624005051
0,0779447556974288
0,0776087385985772
0,0791461796397931
0,076313183078308
0,0770158594356658
0,0767297996239488
0,0785259214787227
0,0762656775179466
0,0781307319963635
0,0768399714123739
0,0782237792375805
0,0771524400467931
0,0763805622710293
0,0761374718850327
0,0755257201117217
0,0760375682187608
0,0749394634307708
0,0751360357912306
0,0759090748239057
0,0737117987020336
0,0777979167189099
0,0749045729572941
0,0746644074855655
0,0764352519985196
0,074972878399135
0,0753230265200613
0,0754570615936372
0,0760410600066546
0,0742807773192426
0,0768505658451865
0,0752010817489717
0,0759535492922032
0,0767590305344432
0,0739419049696489
0,0731987493860424
0,0729450987645976
0,0762852454880245
0,0750877695879285
0,0747016622521327
0,076807365956004
0,0762610646983942
0,0734457471972632
0,0750133913438458
0,0757518216660118
0,0787155348177278
0,0769694139770387
0,0738938347116473
0,0745377181237622
0,0730088744616624
0,0772045289194832
0,0748882552207945
0,0739556823064066
0,073388923250979
0,0757001126306737
0,0767978603334309
0,0740187509660815
0,0731401979964467
0,0753631149076898
0,0718332537924662
0,0732634811805545
0,0743901489704353
0,0730532480378854
0,0734225399310009
0,0721155855522944
0,0735267580941162
0,073389016256281
0,0721440657700754
0,0731729953600335
0,0740803613502163
0,0707260190841598
0,0720565170110708
0,070678302443459
0,074547679683725
0,0699610573705892
0,0751423031703082
0,0716025185357688
0,0713434534655217
0,0716033387015498
0,0726406209511445
0,0696317660579224
0,0731634028068843
0,0703925258709047
0,0716282023180644
0,0701270875279569
0,0698175701418332
0,0705053383884573
0,0686019836656994
0,0719427971115187
0,070138193215402
0,0688179449663335
0,0686082954115974
0,0680684464069895
0,067004000335301
0,0677687553889163
0,0708456545511297
0,0650022028768825
0,0714738613023334
0,0667393305653384
0,0669166514885764
0,0674029750594659
0,0650903086791633
0,064760761621093
0,0650409913350601
0,0648028435230975
0,0646978920034295
0,0651424509390109
0,0644011747938047
0,0648054713821328
0,0662940230607342
0,064123956229333
0,0625093151510339
0,0650350119773791
0,0619986692836742
0,0650018422777163
0,0641180617064624
0,0649682548827817
0,0658245657337314
0,0608220936124873
0,0611064551215759
0,0635018857843769
0,0641479984676497
0,0622747941552278
0,0615696651009818
0,0685355052327065
0,0565030035155545
0,064951805833538
0,0573740304913628
0,065832047666356
0,0601526521396615
0,06256303554241
0,0607862308111372
0,0622274992963059
0,0591408306355882
0,0629681463324901
0,0605496186146655
0,0606506227217474
0,0588118962417535
0,0610844306125957
0,0598045606029456
0,0616917284636431
0,0583414485016113
0,0610433490425676
0,0612665165112351
0,062831824809349
0,0593561035659514
0,062578370941471
0,0590109300395343
0,0618491546733432
0,058036178837446
0,0623661341395192
0,0606372258940963
0,0576529761605847
0,0612065135681483
0,059479540668797
0,0606298536421078
0,0587053176155941
0,0611495930704809
0,056002693476939
0,0582734508265208
0,0576151056813219
0,059996230046727
0,0562963194471384
0,0585386998139545
0,0600940984304493
0,0570018225886787
0,0556922938534391
0,0576477778514792
0,0582627280087819
0,0582781282990805
0,0534970354046843
0,05904666496316
0,0540822587864855
0,0577761364548724
0,0568880515684021
0,0583831394137413
0,0532423757495419
0,0663198430142463
0,0530602838233711
0,0596157560801528
0,0560705729513852
0,0564155830145017
0,0565407608967751
0,0553179193886711
0,0553674763843408
0,0571407621063144
0,0559582817931905
0,0575139604860698
0,0566773156992136
0,05651010905741
0,0576407949834066
0,0567944526147858
0,0561061640246378
0,0555305486178883
0,0559723244212567
0,0562310140997012
0,0546649758223027
0,0557988265355414
0,062677107279492
0,0590244816788395
0,0518525124720669
0,0611689081135996
0,0518065917983283
0,0605678427338054
0,0595851577445892
0,0508387990010042
0,0595784060712675
0,0521785436517408
0,0575669304850279
0,052176328168805
0,0597888404588514
0,0480576972449304
0,0610454277832231
0,0509165706464964
0,0603325427660069
0,0562489169713384
0,0576114992733383
0,0572520609043537
0,057950643071785
0,0551832297865309
0,0595346214443591
0,0558820434630357
0,0556194426200748
0,0542347694260693
0,0546448760510834
0,0553331771486425
0,0579027370594464
0,0509198380263404
0,062557705091753
0,0525702447451543
0,0573884526232192
0,0525322472347777
0,0604165140113919
0,0512294319513172
0,063960997013912
0,0537949824779144
0,0572331670797427
0,053109583576687
0,0550300959535785
0,0571350521090817
0,0557437250606049
0,0554944862539043
0,053619727548287
0,0529699998269468
0,05356310767389
0,0563206100619185
0,053476548215924
0,0549382254159827
0,0572249358849191
0,0559742580174692
0,0538885304344787
0,0571363151247511
0,0549381331857186
0,0556511695020109
0,0562730596360729
0,056658764481461
0,0659767712179539
0,0569961543154512
0,0597655172487563
0,0549475680721486
0,0594930492643843
0,0523982930556399
0,0588990582320499
0,0512194033566758
0,0580821040064026
0,0519810364982601
0,0587751425230747
0,0559761851019197
0,0577180435660013
0,0552433012491337
0,0556659542869544
0,0523713979536846
0,0586955354107249
0,0556850680161706
0,0581011987098252
0,0549677908276698
0,0550382307756537
0,0543506352322153
0,055613335482919
0,0599448497321496
0,0528838906753241
0,0578503464204372
0,0530547253618302
0,0863330949627494
0,041582971388024
0,0659034145737269
0,0530921878552827
0,0581428406914913
0,058344288523941
0,056489989438904
0,0591839317978881
0,0589874884926609
0,0566456392805775
0,0599533329183727
0,0527427850701884
0,0598930985958997
0,0577173332186238
0,0574779017235353
0,0640076004500833
0,0639506772879183
0,0552977853856623
0,0628130326794091
0,0529185637027647
0,0675627434701992
0,0561848818389207
0,0565011913722834
0,0638538546457224
0,0553590189261357
0,0609071040077901
0,0584642295769556
0,0634778774761668
0,0574692098791364
0,0636722135858041
0,05889789620594
0,0610558158876508
0,0576358093826216
0,0617027898267438
0,0652967557585716
0,0599369755695184
0,0668795746374185
0,0584119594545114
0,0595761413276898
0,0679631131079736
0,0565775275746905
0,0638940262754751
0,0586136730129886
0,061921813271392
0,0613441733528407
0,0710453907260958
0,064934280319954
0,0658029023270919
0,06914106375887
0,0602382916091502
0,0641058817562407
0,0662524905049971
0,0622237404129696
0,0688856994768435
0,0551640487586653
0,0921260018655501
0,0556061239565231
0,0735193000285295
0,0621373464588974
0,0623929341583787
0,0689704281951342
0,0660546507908493
0,0718093528903144
0,0637258006892253
0,075408453430855
0,0567551271910987
0,076572798703112
0,059884373361703
0,0882407528176897
0,0602289717291553
0,0749903155365065
0,0672035692348625
0,0728327123082545
0,0659531988401099
0,0798666959617768
0,0616268322238036
0,0790982542351983
0,0834304400555838
0,0722910049801003
0,0750917555593752
0,0648333382775321
0,0793840922117288
0,0915438548826919
0,0632015493806964
0,0821055562023114
0,0687681842108955
0,0807340338812926
0,0685309370737307
0,0861592977111259
0,0799723146820336
0,0727723191244963
0,0785032635502974
0,0758254594889122
0,0739915688842737
0,0929253051396722
0,0713968653001796
0,0853066778564138
0,0757594749352047
0,0891739580990727
0,0708779722320202
0,124380820110832
0,0629490387960591
0,108406746621732
0,0744377664200765
0,0939692253667944
0,0854417133972169
0,091381861657265
0,0851436715371153
0,0994585730114683
0,0915787744362042
0,0906962831526702
0,0864262175554003
0,117292842739356
0,0937097866777824
0,0891727911197676
0,103320830806854
0,0955215410934007
0,110863368145336
0,122052986780223
0,118705825305483
0,10640739285651
0,107457556598506
0,109547816479204
0,128009047533564
0,0994875799815985
0,117120839582675
0,106264650135396
0,114951195632335
0,112277522144495
0,119896437439821
0,127000541511684
0,114988747901641
0,123431117933039
0,11809842923674
0,126901423244213
0,135861170105674
0,137166839529086
0,13455347517335
0,126710482024163
0,158663085387802
0,124242177996808
0,138876823731638
0,132798922829056
0,136661264178363
0,143087915294601
0,137874515859007
0,13952770086051
0,137465271072222
0,171193856425429
0,140323806664966
0,154637205913371
0,156647226820557
0,150040122722378
0,167260675483223
0,143974237435246
0,324936018819799
0,141118777177336
0,191198768342837
0,16675390316438
0,21133970866709
0,198617580564201
0,185795176012746
0,194784825278682
0,205285673374178
0,201801621085701
0,22107443076053
0,22074952493649
0,228674117202978
0,240392352827979
0,237222457671967
0,243929643792015
0,279758859516558
0,260036979112225
0,287690595001729
0,272508305215256
0,275453810625971
0,291152952390695
0,304245116703167
0,288024839779354
0,310229453632636
0,303317106636863
0,33048836468453
0,353657459906971
0,327736354679818
0,342207471315864
0,348173643632813
0,383453562182949
0,350818731273548
0,42954220909904
0,381252753785512
0,389260008975595
0,385806353300751
0,403347891724763
0,41446892216775
0,407841012434447
0,452315623579455
0,427915897178523
0,439648396571396
0,442001755062998
0,452318074414298
0,449801173952559
0,458641324044802
0,468488369558893
0,464228916020997
0,496142226273197
0,476303517981946
0,586986180510175
0,479800737655371
0,472152299679909
0,481979759663673
0,467826082167648
0,518536999046932
0,47643096457476
0,517124662844197
0,488170333638336
0,489142321191431
0,495966849272433
0,491999229275879
0,499152296863037
0,495314991596449
0,507301864144658
0,489133630170326
0,522730461087318
0,481951659831223
0,516828106360049
0,569150663849321
0,488692183751211
0,501994075889891
0,488924770425817
0,492835957745397
0,49349100889485
0,493577626052665
0,492097576847674
0,506164618794751
0,46932114344923
0,490811290886026
0,464091465479881
0,505057981448452
0,470394848692642
0,459289119309659
0,460262963157235
0,456899235580797
0,455021831066656
0,449238871653346
0,459769414023792
0,515714759562144
0,433973148154422
0,437732427689107
0,429293222244832
0,439387632034082
0,430992043456667
0,422432405399572
0,421641592227073
0,431336017667926
0,415774382921159
0,434945814833859
0,416754321866117
0,420152017660405
0,404044157959211
0,427309258456666
0,415149240032671
0,429395263780865
0,414228516426571
0,416652155169458
0,405194612422876
0,407504099608681
0,407304036138118
0,417197864025239
0,413248277291036
0,4123467925711
0,404992369689948
0,417138684498051
0,404124597958781
0,407822342969212
0,404265723932687
0,409224526441639
0,398100559069667
0,399625163498277
0,401482201602562
0,407725165483186
0,406540911126789
0,399721558683566
0,393465377400275
0,393573550019617
0,399644483599174
0,392460448151793
0,393134078813648
0,398112646195721
0,440571475637414
0,388180453925816
0,387640672256361
0,392247408607989
0,3796738199405
0,38665362851824
0,370597155592744
0,424792966540872
0,383299174027674
0,367983566107019
0,370339159437635
0,366112296433092
0,368685523221752
0,371083094389501
0,34852683457934
0,370918081993822
0,349918030411879
0,412246173065372
0,393621935187858
0,424064050147215
0,392276254835811
0,343705583662377
0,345644439891534
0,348415977299101
0,373342653904317
0,336600937295063
0,344615655650939
0,337476910233481
0,366553204001071
0,349172837308021
0,332264763384539
0,34765470694173
0,332507299595325
0,344301546795476
0,340788131819698
0,327309270218012
0,331665943230646
0,353616764966136
0,32520150275719
0,370963366533246
0,352191945986432
0,327725871409747
0,31332120092594
0,318314271445348
0,316732482644788
0,317760923285697
0,350649545032762
0,306439586203889
0,311878584897994
0,303050117773649
0,298531221330496
0,307102857421015
0,299363578094984
0,307126599295938
0,274603803478557
0,323720981568188
0,275582008319526
0,294113403339697
0,291739979399785
0,30089529014231
0,284105922126966
0,279733258009398
0,277804995660427
0,297281494767758
0,295060196567635
0,273864676753599
0,280938841626648
0,271551065200118
0,267203404994817
0,283718929702849
0,25790749746298
0,275230512337598
0,264424186985395
0,272036554049086
0,292907386302196
0,293184371292409
0,27115438000146
0,252234583957089
0,248908062481
0,258336508281783
0,249301513067518
0,25404454759057
0,250325557935783
0,257033850261793
0,259705892270162
0,249533632655966
0,279299840950142
0,251528568872889
0,262955359886579
0,262498996644789
0,261560933893656
0,272049092587523
0,277397027335451
0,278700702837155
0,27685762749519
0,266683865774503
0,290032885346352
0,27704703774987
0,290660824406723
0,284193150079032
0,300596964699895
0,293701791197575
0,30670219269199
0,308081822077377
0,31583364593486
0,316673520008896
0,328055348628383
0,328762424953852
0,364361897265258
0,334877965657204
0,376447428130019
0,359529942995927
0,378519715232075
0,378620316272096
0,374228754842861
0,387232955724657
0,383876185874117
0,396637013717214
0,403023817590308
0,395577305285182
0,427223832935311
0,41216102615126
0,424555784829282
0,425870167609343
0,438201898220076
0,428513578371637
0,460170049389594
0,45866201397764
0,45401140541822
0,480129835492429
0,447248290224682
0,460686931721249
0,455824299336035
0,466364886435962
0,466142868815266
0,462382201699279
0,47326354746035
0,470926457655828
0,49451180996278
0,475502455842943
0,469236039332803
0,479677826522172
0,486503973228228
0,486267621992515
0,487631501561061
0,495845961524472
0,502750189047194
0,499549695667989
0,502337380873886
0,501363998875215
0,559526631270193
0,519783753672963
0,507377229653461
0,520230324359915
0,526151843968493
0,540023674000381
0,530867156028436
0,548452360525736
0,545862533808159
0,54104537019125
0,548391637277
0,547953305762141
0,561128628437297
0,561186859387234
0,579871315323795
0,556809991457225
0,565036648911515
0,574209392873844
0,579219968391212
0,618919648296488
0,577562761971961
0,599871973426439
0,580679268152162
0,592884189702361
0,587266637482215
0,593434855495626
0,597164025613313
0,602515340582971
0,603766093455776
0,60548583797004
0,597332064849746
0,59652928657319
0,607930430559466
0,600311288945991
0,612171345782074
0,598147592696833
0,598443871075819
0,603822981187108
0,599321605195187
0,608693894159985
0,609505085832293
0,604112128783687
0,591520891991957
0,598994830469741
0,596414952906021
0,62524229682504
0,604147945950692
0,594133130874155
0,600900108997485
0,602921415676977
0,598926160636705
0,610934436374046
0,604252403586065
0,629011109940908
0,604328491900024
0,61477586158822
0,611516556926221
0,614487059992089
0,616748964514971
0,625243628887924
0,624677742411268
0,630545878353127
0,629478791758978
0,639238212029735
0,634022969532949
0,636825456930468
0,644449760704032
0,644543318158472
0,642178834495658
0,638362651802109
0,627147883792194
0,631413716106805
0,635403845427744
0,637803044416584
0,623744825379101
0,621008499015907
0,611140266029618
0,615687949560093
0,607421984512326
0,62337670751991
0,59676551857004
0,594666678944403
0,596181023731144
0,578866577368883
0,584093426578443
0,571385809419212
0,574805326072962
0,564911480511564
0,566803742701455
0,564622237820228
0,564384728236551
0,561746413028907
0,556577894306074
0,555414833776215
0,560406013208482
0,556164822211515
0,551247523459454
0,55227146819302
0,553409765867947
0,551457244920425
0,548499513638323
0,550067690990809
0,552634006906183
0,550909286757026
0,555471213520687
0,546276838200693
0,553376372093311
0,541761155022357
0,552025758311129
0,545465796644633
0,548413288472496
0,546056906956077
0,546951489891384
0,547842052568832
0,551203425387072
0,54399584173139
0,542872335628638
0,54399552400705
0,547764727830036
0,541447857895711
0,543449995183385
0,542270102144891
0,543754627716813
0,539508519826802
0,541837249284762
0,546645656365704
0,541033974657173
0,540755711004887
0,536388270742142
0,543932341247406
0,54235131093366
0,548036071795887
0,543474983900887
0,543549550951271
0,544408795727954
0,542682265775277
0,540081706668335
0,542081188505535
0,543358425251799
0,540423844177685
0,541597500901624
0,540786475112445
0,535782274770343
0,537547914118206
0,533003627259558
0,526976110385813
0,522258729616027
0,519143044076505
0,51520049528981
0,516574755180659
0,510342415846703
0,506476852622602
0,50072467286215
0,496910404285536
0,495845607584339
0,492826647132384
0,486180469683096
0,481381612373854
0,478673886087519
0,480354141125168
0,47561248101758
0,475248262092471
0,474052970844058
0,472347736900722
0,472538591134917
0,470894994645348
0,468286451813766
0,471418012714049
0,468572005095634
0,467774517463272
0,470624051019113
0,46552779282228
0,467316842981405
0,471806541262422
0,468817880952841
0,473139740868783
0,473638422092449
0,475117106282555
0,478164959396068
0,481569334875239
0,481811348050016
0,483152836072868
0,48652449872559
0,484513840907572
0,49260544301788
0,489590191776444
0,49244250168662
0,495132437833313
0,495466028404577
0,497931282722814
0,499499064199637
0,501150629107471
0,496086732972011
0,494280907157371
0,499366152643441
0,499851186441825
0,494790707016153
0,497629788717967
0,492960945825766
0,493655578993088
0,492036445448096
0,489548271157979
0,491739654896735
0,489877871274438
0,485324003454543
0,486409791307917
0,484658834148343
0,482322505747723
0,484385902758902
0,482480551511332
0,480661961623818
0,477652510301563
0,47423829878593
0,476846644098812
0,471922710342543
0,472261431865966
0,472386184621989
0,468051810406681
0,467177988415153
0,468956226624013
0,467542870752655
0,464157327895727
0,464482256283381
0,462685875047717
0,458686376902876
0,460923070997164
0,455930048040381
0,454832310580269
0,455506756881015
0,452780992647086
0,451186795140776
0,449588629799481
0,446904685119647
0,44863527697439
0,44384897156381
0,440417210409534
0,440472192940466
0,438091085906364
0,434020887854499
0,432598606857785
0,427255452604548
0,425095252481944
0,418651437672433
0,415094653048509
0,415814208678395
0,409578859295103
0,408016142148314
0,406896709054192
0,405220358681241
0,408871836375307
0,407314424055966
0,401637753754243
0,400386177997134
0,402996431778479
0,398308622525492
0,396522294131258
0,394382706382371
0,39542275275956
0,393071781079511
0,386982515333204
0,387612234100536
0,380316628892981
0,373618451264125
0,367688318809388
0,362961730057691
0,359331183322839
0,355436698568245
0,355207401780555
0,352344083958753
0,349654436204037
0,353069347288773
0,351855090904527
0,355071876706667
0,365195354714993
0,371191712761428
0,378242036444011
0,385253590265015
0,398121974556418
0,410183274143154
0,425702640323501
0,438580763779176
0,45417216011214
0,474058201121259
0,488963918294831
0,5093666656445
0,524708267936698
0,541243398297222
0,558564572360512
0,577804746148986
0,58998639657644
0,600527974223334
0,621340476082575
0,640736152596489
0,652732403708218
0,67175052619892
0,68119897139629
0,692740648153822
0,707078846322501
0,713594202595198
0,732497966403431
0,739131201733756
0,746443056892005
0,74994869534482
0,766503092323223
0,778465413212301
0,775908611032005
0,781663597841754
0,792894615198858
0,790414791107346
0,796111886233021
0,79043062632931
0,797510194775601
0,804739058335711
0,802837831251747
0,800123044876197
0,798938003253554
0,805522921413483
0,808402023831817
0,809911646523984
0,816282343632632
0,81189398454234
0,818198968967942
0,828065245531609
0,830450448572528
0,828966147245403
0,841997042689512
0,844342625937735
0,851530042220202
0,849314936081215
0,861232366673686
0,871640172802374
0,878599649257078
0,896919387465897
0,905812259154603
0,910604175064639
0,923320520995283
0,935747592803279
0,944823963733581
0,967804672017042
0,976588982388408
0,978954324678755
1,00234982015123
0,994681301438213
1,0098092347238
1,010937455465
1,01067928522456
1,02376225114338
1,02848596744384
1,02636574227788
1,00944314268941
1,01069251421774
1,00443630398123
1,00325413077065
0,997006336484743
1,01113591418363
1,00166332291273
1,00398493764053
1,01369712092253
1,02146735350129
1,04380178327266
1,05399578280321
1,04588205367684
1,07640055326089
1,08701701176572
1,11048976665541
1,12390286459473
1,15071121740788
1,16721535334332
1,15065044416926
1,18703591059026
1,20769056214078
1,22763331854761
1,26631635338731
1,25465146871068
1,26763010231378
1,30065059077285
1,28416412860706
1,31392268717902
1,3476897318971
1,36963832235961
1,4075366999019
1,43439269020475
1,41088938988307
1,505315099752
1,49044208286759
1,5123753573295
1,49304268770477
1,58396147596515
1,59134339168846
1,59923930748978
1,60889305533109
1,65698537232
1,58495183948695
1,64431865138748
1,69005312307566
1,72739328953214
1,67057861541911
1,7359144739931
1,70431008336451
1,68083876151302
1,69916233127683
1,77534286408442
1,7451023172163
1,71589323206049
1,65075668680613
1,67156822183242
1,72736732812316
1,72284347067679
1,64592218697508
1,65245920746461
1,69433587143062
1,7596520720918
1,72318040051831
1,69474567726115
1,71521272197607
1,75698375525179
1,82374341067232
1,81597623412843
1,84511422058416
1,87966676394768
1,77583516504236
1,83111303739059
1,87438548609628
1,91068671889996
1,86171750212219
1,99410277680115
1,92658476631997
2,02713187563032
1,87732059885769
2,16086886377489
1,91559985228031
2,00776803281027
1,78014300674395
2,03520509012305
2,05433016161438
2,23383836635496
2,06171456749719
2,09763862462227
2,13622472594156
1,98933978989607
2,0071496055534
2,10343744151433
2,12621870950274
2,02843374503745
1,93829822503025
2,15830747299695
2,08612655643317
2,07804093087356
2,07985509109607
2,0454227960116
2,08153988351463
2,31606044186975
2,00125554209233
2,17611278640472
1,95659693642978
2,11107169107916
1,93593507354194
2,07772186228646
1,92046452597251
1,88159858244509
1,79856187210997
1,78455480784221
1,65865835215786
1,62267937079968
1,52651432529131
1,62403497600193
1,53392401138893
1,55519612348125
1,46575321652699
1,48941426617272
1,39389807327599
1,45268339903751
1,4211946628555
1,42623263495462
1,4416843562952
1,39306957992618
1,38874304924893
1,38611650709907
1,33338965790805
1,33610255775544
1,31990444064511
1,31070226079363
1,25928093037197
1,30492521623213
1,22521108561279
1,2007957544423
1,22091367832974
1,18809915290163
1,10755702744516
1,09906892435267
1,06919998988749
1,02282549313897
0,973563014844517
0,942880563191608
0,900926740557416
0,863933316587737
0,828302475418119
0,785637193311016
0,767725986913126
0,711611413204901
0,692324564058611
0,663729312063295
0,633295430709558
0,611055370583144
0,59427012715903
0,571417721520057
0,55423285577705
0,534163321282827
0,517234248447418
0,517237731909546
0,502176375286755
0,493976358411805
0,483904532368002
0,476866652169015
0,473622018476422
0,473831349749711
0,46828204802138
0,467652436958888
0,461313026985742
0,467249656580031
0,462518775286132
0,465422429938575
0,465582080186501
0,472500210292277
0,465376084497019
0,479966709288495
0,468920145648468
0,472733172498372
0,470493154688328
0,462706439503183
0,461633229758899
0,46518972790412
0,457274962663523
0,454596499971568
0,447519153957104
0,444332686944903
0,440775879730881
0,432380119602634
0,429160129259558
0,434506512768411
0,428367269399446
0,430430269694976
0,424664404941539
0,430684808322827
0,432686612841648
0,442862207360728
0,438707775931052
0,4461159409831
0,44556074667104
0,452635459399726
0,445243584405735
0,454834477480719
0,458194763307957
0,458293332811384
0,460223182581031
0,460387679306846
0,460906070803909
0,469529825833931
0,471439352327777
0,47747458796362
0,47293764401055
0,475228936284201
0,467202725596441
0,471640378734286
0,468657879384245
0,478280193483231
0,478002162519392
0,48631527067508
0,483813556643811
0,495949420684761
0,493268670602237
0,500691029847259
0,506492888047777
0,516613066282113
0,53260724528597
0,53342437176213
0,541557076929829
0,574467140687549
0,582554105513387
0,615478118569422
0,607973802609453
0,623242453418428
0,640276106812775
0,632826301293851
0,633554420574566
0,639771557427278
0,635219766319053
0,626878558007585
0,611819907932248
0,613355181161751
0,600552171487339
0,599222675056237
0,582035793469336
0,582541148547388
0,548821933927386
0,558492268718942
0,563883225934151
0,567351405576955
0,566385989843221
0,559224943505276
0,560179677731422
0,57727513074821
0,568144108344827
0,582471494401801
0,561843841131886
0,558467210755442
0,547779957820201
0,545530811436331
0,543880651416515
0,535602372366042
0,529486290986406
0,524706808202342
0,513111241487572
0,509111927860976
0,503414275333627
0,520310830765409
0,49474853293849
0,508870935374433
0,497040516407492
0,495087303636523
0,494117844385864
0,482240323233512
0,474291209513586
0,483618516355572
0,46288865053752
0,46964530909825
0,473894697086612
0,472940143847443
0,46236160557852
0,46823651268582
0,452081227217872
0,462079743753758
0,459833725725293
0,449726646216671
0,444332479389961
0,454055918690887
0,439435443432606
0,433547488412044
0,440464942904119
0,447094567766146
0,427131757174307
0,43170514079325
0,425919522237716
0,431944597527829
0,423351236540171
0,431197033924992
0,426584420936217
0,423613881269134
0,419085788644862
0,421940102832594
0,413333573359708
0,420411407025508
0,410076721926614
0,421026678302797
0,400826000556109
0,422942467591375
0,40447792525764
0,409915867098172
0,418834908619724
0,41375276464456
0,402269844685737
0,434594367894387
0,418278385186036
0,419790494594968
0,414736167304777
0,434933858457404
0,42771149029308
0,42937274124717
0,418273884526193
0,443168634071584
0,43498870768445
0,433356583372476
0,435983412888591
0,453853562692968
0,433149554396076
0,446422834414863
0,446273582417708
0,465993403551939
0,456169522795479
0,493713820457878
0,484253344264923
0,483909531215132
0,499971139703796
0,527337018960923
0,506016218960218
0,541630755138847
0,534391914546592
0,563959542590917
0,583026634866234
0,579626870016613
0,572597782438009
0,649898617841696
0,599724901482049
0,653257012935801
0,67838727274572
0,672014086740147
0,708239256327616
0,695170189900371
0,767218065931692
0,746651917835893
0,749230952093114
0,736479958701699
0,747511269815902
0,742949823797277
0,725285028113719
0,762776005810011
0,712944073251074
0,73600851169977
0,737507795264083
0,760754088455809
0,692721985401631
0,7536414987181
0,728702460576714
0,749682121660065
0,729216998587406
0,73403720992041
0,722302866618524
0,747318726611318
0,720968301772191
0,680906124955229
0,69332871038339
0,735776750954605
0,711825137495672
0,698763652626226
0,684963863279464
0,682057922472058
0,686663046055398
0,691803222115833
0,617340765229104
0,679735281626702
0,646640709448973
0,67479584907992
0,593156573455105
0,644042188244847
0,644702648661019
0,623346723255063
0,612230851275667
0,638888387091439
0,604102703027589
0,65593078753758
0,6253856262011
0,618983613270057
0,616087549345385
0,725056675825075
0,614401298873154
0,693271371679385
0,66207902160657
0,660275413336148
0,608831698618761
0,651519203317337
0,641031491407588
0,652723092042349
0,645744879884697
0,68604782897242
0,65894161187664
0,753161583877777
0,657991000614585
0,74378145925196
0,673004394930847
0,685181747822905
0,689347136398789
0,702643506669394
0,661703756501862
0,705136664038874
0,634915012327903
0,696131408276672
0,580501186700723
0,700474792868146
0,720722526946003
0,76201147233884
0,68944860378773
0,714478966490356
0,754959358681598
0,864566518271361
0,781540429974365
0,878146780114633
0,76358366865105
0,725708202862479
0,777015253319041
0,91946356379039
0,868638677299868
0,832297631612737
0,781707676558042
0,901978705154609
0,846615267526809
0,962900635744724
0,924804141660993
0,897831935662567
0,849955821133215
0,965509578720856
0,994125152550655
0,847633304222909
0,95552324730041
0,937543946772558
0,991698262244749
0,840774681208032
0,802379786949876
0,948762341121775
0,851343578841878
0,858578904254911
0,78086847110602
0,954379049018151
0,858379381253617
0,963132851377424
0,765026126998683
0,884321164750009
0,832621759143166
0,912995905049741
0,882973108362982
0,943952058501138
0,636123761385217
0,884051115050896
0,836864059090563
1,04496540507647
0,657586251702422
0,807605365902705
1,05204960145545
0,789762971142994
0,551954030693699
1,12960145174436
0,764695573890595
1,55525732441663
0,954962912133304
0,913042564758278
0,659005113781349
0,676319961614287
0,503445955586914
0,830990190475846
0,909077151653293
1,42651789701654
0,888868546570983
1,27477820053538
0,880068691121725
0,703320649154578
0,935631696380787
1,42582653948709
1,32412153631431
5
5
0,867218077935554
0,576978121435128
1,23505826344169
5
5
0,585960168283419
