3596
4000,36533379555
650,420452594757
1
2
2
0,0447300251879297
0,0433757266774608
0,0422129797629669
0,0368470392827953
0,0323538646678922
0,0434796204786069
0,041355929443194
0,0449059179008014
0,0422618874148616
0,0358092114940067
0,0321625419911941
0,0359145801476283
0,0422230345319108
0,043580317085855
0,0324999652182337
0,046779542220968
0,0329399067875106
0,0482960408592275
0,0412867837832744
0,0470520300548185
0,0418020617108092
0,0368004058076658
0,0314474878371582
0,0453878557182068
0,0424629957153605
0,0447796433556342
0,0434231743549083
0,045156729845063
0,0348177752363223
0,0408503478995068
0,0516907878741587
0,0442792449676377
0,0423430470737706
0,0459968934608411
0,0326718264672686
0,0494173820320715
0,0430698558508568
0,0402210095042735
0,0432655754725154
0,0393867133067001
0,0266892846746473
0,0449228741656141
0,0374883909900361
0,0388860412936012
0,0465024384127828
0,0460575442372504
0,0316038110277572
0,0376673585505734
0,0389527747464902
0,0427489721274641
0,0408912605631178
0,0355034292891311
0,0452286443775682
0,0349086791829847
0,0468476172440754
0,0427249337181416
0,0367058230911203
0,0380172376986559
0,0279097294783825
0,0444552543843479
0,0495628334621824
0,0236209788790108
0,0384757853427434
0,0349787749863544
0,046662378266727
0,0246460756713477
0,0396702011416313
0,0292891854277744
0,0531108956337444
0,030900060765758
0,0424466547854164
0,048416776861745
0,0329297219789743
0,0438653502859309
0,0380557319898371
0,0455230280303529
0,0370336203249516
0,0285320352306613
0,043359443282954
0,043497857000533
0,0323737289504593
0,0275030768514687
0,0297670351600324
0,0367808183679826
0,0595846847494107
0,0221822634686584
0,039974576223394
0,0415599941382287
0,0303568412678583
0,0297740926036357
0,0282069266578228
0,0335927621384969
0,0353236562230954
0,0356172695263567
0,0367939916726175
0,0365007128403275
0,0388061697874184
0,0447042696531787
0,0374270344949127
0,0396926424313797
0,0201329358184294
0,0832199930170089
0,00744073372268184
0,0647101110968287
0,0211103411302688
0,0231009259967316
0,0628703658686188
0,00591054264202006
0,0438197154194419
0,0251077774822832
0,0392062947224037
0,0276433125645169
0,0492133946533553
0,0245043203872572
0,0352789861392806
0,0347843664628289
0,0292062308968062
0,0328136991966589
0,0310080465115142
0,019786571257044
0,0334123615287007
0,0588332068240222
0,00955102188407713
0,0457448010097352
0,0288555376557977
0,0324933578499481
0,0427532285170629
0,0406540542618129
0,0231261421392503
0,0402639012135987
0,0198698427455722
0,0362900426792728
0,0249858250173604
0,0604404061654587
0,021600149898931
0,0357175363426151
0,0310866627905478
0,0288706517461366
0,0584933793781392
0,0145986731541089
0,0409360262535924
0,0361580046799044
0,0292668629736956
0,0405949571775078
0,029772582933651
0,0373654192325386
0,0463226822572433
0,0435178056307766
0,0184792601325421
0,0398904834025572
0,0208520454853588
0,0420282874119449
0,0418884401075324
0,0323986261716482
0,0430772750856841
0,0395169409278688
-0,00923869888615873
0,102913041338511
-0,00251379563238169
0,0448005586256077
0,030800046790673
0,0255621533710577
0,0344761118570969
0,0341736635103651
0,0382797587216854
0,0287091144216319
0,0512400242958088
0,0206302179309846
0,0396312112916846
0,0304119000007012
0,0445278342367183
0,0137771624556247
0,074813234810657
0,0298033584967681
0,0187470185621901
0,0594332685860199
0,0294751734967759
0,0308685688517936
0,0223521672658418
0,0513567499359198
0,0139342489313663
0,0350980621369795
0,0280805474597497
0,0364739231797858
0,0379317725280559
0,0425863113739074
0,0203395362938021
0,0362928901999017
0,0189170605154438
0,0458680289989684
0,0495973662485224
0,0476223185989392
0,011984744130224
0,0443309523737314
0,026158124333659
0,0359737436836706
0,046946554078537
0,0226107113286694
0,0411718147266239
0,0312016977516742
0,0344225519127376
0,0306918481206982
0,0332728597791089
0,0352361150674491
0,0264931251018792
0,0498866279192325
0,0292224921984589
0,0257861069750074
0,0375014661188017
0,0308866398709246
0,0309295004578022
0,0445404456495973
0,0703972527466467
0,00945748488254135
0,039020828625587
0,0283199329060624
0,0421753833798592
0,0358418285383966
0,0266119376221994
0,0268492621789599
0,0317168656776193
0,029952461064594
0,0305964932411477
0,031368258243015
0,0316502474975078
0,0343476844750943
0,0345440027161232
0,0299516381779036
0,0360914473684872
0,0340218843522771
0,0305346966716529
0,0209968343648613
0,0409977548557495
0,0263617671692219
0,0322235096594431
0,0457132556818836
0,0121710485569218
0,0407040655459479
0,030024349616655
0,0338109216836253
0,0313346527654481
0,0325608126578778
0,0261785059001161
0,0412370072719055
0,0311101651159188
0,0539061800456404
0,0286269245621822
0,0351557764076537
0,0417302282216485
0,0253959745347226
0,0529657784072981
0,0152992773250102
0,0461944248891998
0,0182117907317618
0,0462685065148763
0,0240620593806632
0,0518853615225248
0,0220808135207435
0,0354028062464169
0,0334084309389521
0,0519080155309585
0,019006341984985
0,0532401616546864
0,0288992523491036
0,0670858760408686
0,0265935190245363
0,0290232854324703
0,0461344624895633
0,0347230764291101
0,0239598492044229
0,0573838485076644
0,0172475240269701
0,0802826623743633
0,0178554592586128
0,0228291542622163
0,0145717072597571
0,0572733150054163
0,0333783208629065
0,0388661192958519
0,034747324113705
0,0229901872649142
0,0571239853804385
0,0257425090699906
0,0511889279418214
0,0394600887078151
0,0370228650171725
0,0687132256723446
0,0080370090540712
0,0497622117924401
0,0229215123862449
0,039933066433207
0,034292924684342
0,0686355954474118
0,0197612534663318
0,0680495324321513
0,0204078367581167
0,0762381303163981
0,0368923276143207
0,0459147154127369
0,0302756883849943
0,0580943301156717
0,0243545520860177
0,0555351429447894
0,0325800128312092
0,0496605375722881
0,0438225507074011
0,0372006965642928
0,0627192270822456
0,076430207559779
0,029101138880161
0,0586432931769469
0,0353313741391464
0,045463631204267
0,0403968940690544
0,0377026268724565
0,0339197067276681
0,0410236336997964
0,0333195435677803
0,0553694833121364
0,0392596374383265
0,0345012555433749
0,039614562599886
0,0404356020565928
0,0375355375741982
0,0459488367312141
0,0446976314538257
0,0460220830209369
0,0463056109019749
0,0553015605928103
0,0415756512810521
0,0751125381216434
0,0445727147269742
0,0532618535236832
0,0725419025223129
0,0286292623779995
0,0561396288331332
0,0472131000762434
0,0498868912529941
0,0501347675604132
0,0513890335536018
0,0608652779222709
0,053920637096731
0,0572994016532024
0,0518661333810676
0,0593066794383941
0,064304832952605
0,0803069867001444
0,0895448243781122
0,0594156066620037
0,0509294471902425
0,0626155560209995
0,0493582341701083
0,100987146582893
0,0460078538793081
0,10129781647252
0,0444507777292508
0,0683787228998061
0,0701769312778723
0,0697669422962783
0,072492508631145
0,0751849018888795
0,0711273247617083
0,0770017406026569
0,0770245153878073
0,0766493769113697
0,0809324020458399
0,0761432246078129
0,0978588707057987
0,0895410728705
0,0739992865940174
0,0970607704776052
0,0909989564762618
0,09788708646603
0,114306880374452
0,0947069503295812
0,124183876856024
0,0794670280749473
0,10495285574887
0,0888859654731059
0,0890451686926927
0,109464877460653
0,0990342138981072
0,108692350402492
0,101232183366249
0,12031806415126
0,107080284233363
0,119597388656083
0,113210461238181
0,125690704359489
0,119716467929983
0,126530664084354
0,121750315970581
0,148136251987125
0,119022209382859
0,1474638507553
0,13477514521327
0,170014400540302
0,120816073084782
0,159754197349902
0,115811448523969
0,16623156482904
0,125985637815188
0,158941998020916
0,141458731504396
0,163398503357564
0,146631413624787
0,174040438508452
0,174776379506742
0,153647093799574
0,178707924079401
0,182000205737218
0,147858581247285
0,20167914672464
0,157696720587108
0,205935746240328
0,157182599959298
0,194829100810189
0,176355684826048
0,217813798753754
0,166238897168255
0,213232381287561
0,178015187004994
0,197865037643087
0,201081343265736
0,205545176608172
0,202747628096821
0,205789404656409
0,210181006125924
0,228865949152719
0,214216481604113
0,23281650783988
0,212467119244231
0,236187286616322
0,216200441551361
0,22754463659469
0,241507745862288
0,241292414112325
0,208448516479845
0,258137152603904
0,217650074980985
0,282098867750411
0,226547448080231
0,288140200129434
0,235400264321361
0,253527878142738
0,248204763573632
0,263968893178566
0,261680160521476
0,267263774577029
0,284055157275013
0,283168996643061
0,270614497504471
0,292277678364201
0,281441410084118
0,31670225566623
0,293933347183024
0,322872881542636
0,304622778010736
0,310737195597069
0,281868174548324
0,330905899564862
0,318428212989189
0,390640973897317
0,320711551290252
0,349032420967357
0,304260570930938
0,329917703788822
0,331494458417083
0,323149795105256
0,342251065347253
0,349666571752461
0,33707023069558
0,363708610255036
0,360956709951018
0,366118994313073
0,382900674614614
0,394049061607931
0,369740090928385
0,423441780574222
0,371951521095703
0,39871306946725
0,367220188223249
0,4024061814896
0,383634976758753
0,431400118607079
0,393916155859658
0,42673915307358
0,406931967910556
0,432805828680889
0,409172763740124
0,444414803680223
0,422604007417581
0,461554988513367
0,401471765567958
0,476213883239434
0,431919248552163
0,467044283254816
0,452486308283261
0,485352503696196
0,4564733190273
0,482535647930848
0,471420160331515
0,498152357478171
0,4823415533778
0,503061044557255
0,483494135301964
0,544326884811998
0,467159283881433
0,507512433510814
0,493911890665297
0,537586182169447
0,495814385259987
0,5306130976833
0,513127862861161
0,529092651837217
0,500229196143221
0,563861557632902
0,507079764799554
0,5811860788794
0,534556892624342
0,561258829130784
0,54458391124482
0,603474159039716
0,563696554257841
0,578268634329988
0,585187907582155
0,613384772501865
0,552511284104376
0,600468464001983
0,554988420673446
0,630257074435534
0,566287226651959
0,620101183458296
0,562143253454951
0,624501807940214
0,628350609848324
0,626483603097453
0,577800874449158
0,662383983323596
0,617124458781313
0,680142496137021
0,638852391557908
0,686171293488392
0,63928427047819
0,718343742265756
0,61961897834393
0,700405577612802
0,642654737481273
0,680167646435277
0,643859763966846
0,670961716509378
0,677385048450945
0,718807390435558
0,67726521261628
0,7213228002083
0,691007773637758
0,714818808213968
0,675855632389655
0,739833296265443
0,716382120558781
0,785053326609557
0,710151433023637
0,768564335564167
0,770724948726916
0,790156048265015
0,737196786642146
0,76585117287387
0,702418349074832
0,784901587584559
0,729714664996888
0,783613374506466
0,752068962043112
0,777623852799561
0,790611693029476
0,856199919390928
0,782203238885643
0,820810818124566
0,75062988866074
0,827406266332599
0,843942307671016
0,824148318449993
0,838710969969654
0,881100928873063
0,860683893158971
0,900221753406919
0,804643483271052
0,899707514001726
0,84597181812032
0,86146693561346
0,854024615063102
0,892139945112912
0,80931403074511
0,926046457521878
0,860446211648345
0,924722931331845
0,876910717088153
0,910719334371579
0,879379861977754
0,859883644098005
0,890601163312126
0,945578073803939
0,876091528960252
0,960675624696421
0,852324456259349
0,958450135587548
0,892913102831084
0,93846298257321
0,929955128802794
1,01335237280932
0,934054033904963
0,985010064870709
0,932277493388699
0,946692713701348
0,946427373053321
0,9819104690037
0,925668688018903
0,988832875566582
0,973917644472658
1,01416081522088
0,984842885397471
0,978542435615773
0,9817862204441
1,06190590476844
0,95284065480327
1,06371323217689
0,992297514848092
1,01864829608475
1,00143173244182
1,01324317338779
0,985521437849035
1,11702817718503
1,02925575650452
0,990572848384577
1,01024195905209
1,08936238837704
0,972479488615163
1,0764136771415
1,06367384073411
1,022933526673
0,979746270641926
1,0327721830376
1,04947095801921
1,12390223189248
1,06166318868928
1,11543192698663
1,03167004643172
1,10387360691155
1,09471922942931
1,11841715865216
1,09168579897617
1,08136230937712
1,02221707880468
1,10592208890643
1,0993392984902
1,15266766521788
1,10531318735058
1,18285429453565
1,15355081570763
1,17789178650499
1,1142222767877
1,24357331751951
1,13613085152358
1,15023630140013
1,13656849586511
1,14869283877417
1,12487532306668
1,11198361582923
1,07881537828821
1,1565548071625
1,04290280211054
1,10738853871932
1,14470070281294
1,14634396374572
1,09112332908119
1,14418437919827
1,08660548487296
1,25972656480241
1,17785803854584
1,15896499570243
1,15877636469143
1,21577750994361
1,11419856956868
1,14586118374266
1,15063198381106
1,2765842340998
1,14364433431506
1,15981937249775
1,19462521063685
1,26324437996004
1,15493911641254
1,2404385476355
1,23126439027871
1,15798924926676
1,15341462572005
1,19266062686565
1,11555793315152
1,22308630246189
1,19274454314182
1,19718099533189
1,24105631198965
1,35067986030456
1,17572046492925
1,22438715756038
1,20848888312221
1,12277747528946
1,16291161049011
1,24905385001506
1,19074771414158
1,23769549067405
1,16180691478262
1,16792685796951
1,24431067891897
1,31426729244456
1,23394883614563
1,33935323916288
1,24401197173702
1,26748601477326
1,24725520067018
1,183587400357
1,21997945047503
1,22522197966592
1,14585333504418
1,22383151158835
1,18194277906005
1,2633235840564
1,23320595209787
1,25002187962964
1,2361393751325
1,16709673648417
1,19144340475845
1,23021897955909
1,18854017225455
1,24795651339548
1,1908163307342
1,2609201655682
1,22127597927056
1,27528707604066
1,19630097222298
1,27593278090293
1,1990167868099
1,19544057125117
1,18951240325183
1,24797365683356
1,20827810768838
1,23482669867286
1,19161388684566
1,2349834738582
1,23692083946287
1,22693884278708
1,19743394786866
1,22333879095645
1,15993414411678
1,2108999742783
1,21524734687088
1,19281088497963
1,18649641628465
1,25197462779526
1,21769362210528
1,21520636272023
1,29102780368046
1,33182231408798
1,23181763726486
1,31145344720028
1,29516018289324
1,25421392247133
1,23742124383688
1,19073615267845
1,17892717434166
1,22729829747105
1,1940479343549
1,20336518882697
1,20268051063764
1,24113631062565
1,16628685068679
1,20703806644102
1,22804333999731
1,23756010700922
1,19195653451308
1,21795677227343
1,19253509473677
1,23853447628829
1,27493806778844
1,25354217633648
1,19352773435173
1,24346107449904
1,22858971597652
1,19732057924469
1,18577000193661
1,22900825344884
1,27024739853743
1,24515098639734
1,21642562195576
1,15454240041286
1,15573991792168
1,25520173631831
1,25701638114205
1,22523058795697
1,18571119966031
1,22738341959141
1,18248593857267
1,12668448519747
1,21277519333592
1,26765503496653
1,15166147228663
1,18448326299348
1,18057557615374
1,20408338633839
1,19085134175933
1,15840028890819
1,18077342779541
1,19711160354564
1,14785118040374
1,13671076517436
1,15953977925779
1,15683695834515
1,13899447426334
1,15428759462751
1,13411262831401
1,12545171922974
1,15732904663356
1,13232857023834
1,14126048802416
1,12906318543275
1,14352980666078
1,16746204705062
1,11544080463259
1,13628697532464
1,10184270434615
1,10273897595557
1,1201500337333
1,12997411502939
1,14396341416306
1,15441162824194
1,10821071865653
1,12747970882542
1,12885811628931
1,10503591925896
1,12289076262282
1,11033458487325
1,12134084816492
1,11288875703076
1,11675927829711
1,10523771080578
1,07567632218463
1,10084246349271
1,11936248828259
1,06047735646923
1,06713643715988
1,03889677057767
1,05237728053178
1,11267417508339
1,0649615071563
1,05753759222576
1,05122799527974
1,04095024704237
1,03958115147026
1,02344455244471
1,02433223757764
1,03693185983144
1,03528875332523
1,04197709780537
1,0498147654837
1,03264266103061
1,02201733905921
1,04470795464394
1,00395750365676
1,01287699313718
1,03344999498155
1,01091411251098
1,01372567739933
0,995412172141003
0,964324824486547
0,991336800836818
0,985554239866995
0,957406231854102
0,963737812081957
0,990135638019687
0,994032364512786
0,967988579075994
0,988703222273145
0,94874361118504
0,959519192248727
0,962800011651816
0,935737117869178
0,925063822419817
0,949789662653461
0,970349710936937
0,94854076833715
0,925229715196231
0,941961037480558
0,919880621154186
0,923236545110418
0,918937995667126
0,912621205397733
0,889554496746296
0,89480543212916
0,905352733932474
0,919910308521858
0,897820884515761
0,880993127140427
0,901517999424148
0,894019460474201
0,874759639462197
0,881654087604
0,872236275445031
0,867997481778253
0,876815403055302
0,864181858976715
0,845592721227977
0,843201223078051
0,842896218874113
0,844748507293433
0,845150531592056
0,833836413810629
0,802995816343824
0,825304804377829
0,811609914183209
0,817331280832159
0,809990223893104
0,800286668072324
0,798257499382033
0,803317854086446
0,786077269209721
0,794856853557095
0,801598131028054
0,807532094196474
0,810247919547074
0,773775154475586
0,767832692710432
0,766554198511587
0,762722092516533
0,771927083109481
0,754693781956942
0,757854296353802
0,755481677694248
0,761285071051889
0,750919447793754
0,744101349266757
0,73482394488368
0,736661612359248
0,728567905818064
0,726059924634134
0,718401474434914
0,731868213251803
0,72650966727229
0,727476387687397
0,702986265394753
0,706275363787398
0,691111734171803
0,707865354634257
0,691943966421038
0,684389183719788
0,701451998075635
0,710127901971793
0,697294233146541
0,678292808723065
0,677056346563713
0,667803450313215
0,66622603780152
0,678120842240939
0,691436919513815
0,679601552374265
0,650009529071962
0,64158164412418
0,657488084569232
0,662925950264973
0,632517672107956
0,638395302259791
0,632518960064252
0,641412169535066
0,631236614644783
0,629639884144718
0,631194884210138
0,633414837801599
0,622015303620107
0,625679671737662
0,620177320974227
0,619579653770162
0,612764547058899
0,61982924705604
0,601400371162952
0,602766615427118
0,605665290327833
0,610074438821842
0,598764111849371
0,584488555416952
0,572520679712164
0,582712423580629
0,590606218388508
0,583406715494645
0,581506928727728
0,587216066566232
0,574220168391835
0,577899166090749
0,573129777812254
0,572146552726719
0,558398528428448
0,559849938459649
0,542932513087987
0,548868536669764
0,542951333323033
0,550415985123328
0,548652998825361
0,547745558792553
0,547949318755178
0,539444199313766
0,53773825419505
0,534765160368043
0,536058165602218
0,536456710695869
0,518884417571181
0,52425326349589
0,515053075805083
0,521931407834712
0,508516585781918
0,518115186964771
0,515729217676419
0,504621104577607
0,502516838945369
0,509747661496021
0,511318241918323
0,497098696987128
0,500503729276068
0,502732575185745
0,491310271465586
0,49633168035644
0,479703109133644
0,499584473585141
0,483336662248522
0,485780911316341
0,479756876197722
0,480331129158027
0,470930601441845
0,472290184988605
0,47113911422024
0,474771274637383
0,466699985664881
0,462112815946617
0,46367341655026
0,464598693031014
0,465803323681239
0,459472697911256
0,454882404289503
0,454359043986783
0,45392451162391
0,453928947828954
0,440625643177251
0,447346014569081
0,444819265149459
0,446739691704936
0,436057138956838
0,442512751032601
0,432324601896288
0,428407647909392
0,438292234265136
0,431641465242725
0,420560807681208
0,427641027820626
0,431378337141331
0,429690752892709
0,433826755697203
0,424836120165967
0,421279470936823
0,426504380651257
0,416995622071962
0,413402729392002
0,417265697993249
0,415851857777481
0,416209319460233
0,41536179581908
0,401045183588204
0,420456852354726
0,414299686072499
0,413846486567681
0,405355757263646
0,412133806881888
0,404578146899872
0,407361814019677
0,396405136508018
0,404328382188945
0,4036802159411
0,417557533086098
0,405144515464396
0,40880437897401
0,406326308999849
0,411768942637881
0,413609962092581
0,41285924416158
0,41146676376703
0,404914236509095
0,410528389359123
0,411593573585652
0,412020336638997
0,420468514160794
0,406719422149451
0,411915197623997
0,423736782209941
0,423350481525022
0,412075746014361
0,419603438014228
0,425333449728899
0,429572058757258
0,431194877528109
0,435699955506532
0,425610884052448
0,438531484394895
0,436283433565104
0,44543578216506
0,439857843699756
0,441530417202103
0,427327287210339
0,443998195149765
0,441425484482697
0,451725992539881
0,441363310740341
0,442715579666834
0,453218650412566
0,460479724418747
0,451150183948864
0,46350211005621
0,457157462501201
0,474262774273164
0,463679500008148
0,473091070905988
0,469106537174851
0,478822163018274
0,469210655999609
0,481797502347219
0,481676366186071
0,494402613873863
0,479083041336044
0,497444316295278
0,49570554135853
0,50805797710097
0,508839853424555
0,510128492163668
0,510189417596538
0,516288368158794
0,522429294394218
0,523662504487129
0,520209676065431
0,531593000589919
0,523758875191509
0,534105103988602
0,526176405935003
0,545462381636331
0,533285454571571
0,537987176991358
0,521827303142234
0,537022348797596
0,543395122887736
0,550487758285812
0,528161665448001
0,545025640086541
0,542982921817605
0,546265151393091
0,540652839608114
0,538438570358202
0,542735406852724
0,552272690979582
0,547651679323652
0,543845267898402
0,528677934042737
0,541050160529477
0,533747612491374
0,541971620028164
0,528674016327934
0,53726616133182
0,549997873704276
0,546340100187936
0,532432983742518
0,552015897380949
0,532595480373737
0,551455441533705
0,53905360135331
0,541630149246116
0,537429222879043
0,550212410906378
0,545094666408297
0,557716850876317
0,53585859874357
0,549483074106861
0,535392145874241
0,557757168884221
0,534189405878662
0,54912210753931
0,54256173686611
0,547904805163818
0,546861730986194
0,557897566407113
0,532437111029181
0,554931545080703
0,531111690346212
0,548310072531567
0,537353370114423
0,546180997635205
0,52693710199632
0,552514612501764
0,52979390249845
0,537720591733453
0,546657221296324
0,549093651848193
0,522794147166214
0,546385656751237
0,53835124462755
0,541116994439332
0,538529114897768
0,530099455134561
0,528619598820796
0,531037660260484
0,520294489534131
0,522939227364088
0,510268100433586
0,523939379116061
0,509789620655462
0,522629141517003
0,500477022950799
0,506825363535457
0,502657640362687
0,496646536140414
0,496873136818596
0,507681498405325
0,491469938574133
0,497671850008931
0,483069736213536
0,494005668271727
0,47158708168536
0,472646824529101
0,463171606989633
0,474010242847
0,463822253635926
0,466837628204166
0,458943068593835
0,454175749938316
0,447080706327493
0,451957003554226
0,438580529337258
0,447308174782979
0,435689314231304
0,443035565341401
0,423002933674936
0,436054007809555
0,421247744437377
0,429354919615732
0,427292323955898
0,425487987884353
0,420659603739936
0,420569342789568
0,417148362140101
0,410453858924524
0,408502147947856
0,413291595179847
0,401248856785484
0,402294033776344
0,39648192634099
0,394641287898215
0,391853836864769
0,402230157842001
0,39017530870382
0,392830284494742
0,387868286772087
0,388559381290543
0,375050623894544
0,387990674254591
0,381865722613353
0,388783014967199
0,376028426056263
0,377413503327489
0,37852643582715
0,374546025645478
0,368568996999799
0,384812205530805
0,367451732694803
0,373870380944041
0,360840051673306
0,37126852484967
0,359770680183575
0,367171506042116
0,359530245476245
0,372887432124978
0,358721058106326
0,363720856458181
0,3551353119712
0,361103061750706
0,349289332175248
0,354187093871424
0,348105070788454
0,351865896251735
0,342784403656445
0,351750036238271
0,345793909335514
0,355907537489158
0,345601762331905
0,348498884404727
0,339695910580977
0,35244133945893
0,334333548838935
0,345087504931389
0,337745923779697
0,341031052887451
0,335343909714589
0,330409477712189
0,333286385516621
0,34076481719586
0,330267762988137
0,342635549992274
0,3320400275878
0,336123200060536
0,324956734145137
0,331872731972448
0,327217078803341
0,328367518847904
0,324292135246793
0,32979336220615
0,323049008992211
0,32824723624176
0,318297178806985
0,32098177140027
0,319945879062178
0,323076956384749
0,311001326070173
0,321525732069298
0,316980303034583
0,323765793371598
0,314910640863078
0,321305844061232
0,303437009024582
0,314962935716427
0,309406511148685
0,317345669561967
0,306397623567274
0,314140088507242
0,308066755952756
0,315075018781925
0,310060421140726
0,311057427418097
0,302246621574311
0,309500359674416
0,298709532471646
0,308343401292297
0,30794169271198
0,307650488136599
0,299931470334234
0,310469660076307
0,299818293536619
0,308648516600056
0,298040151934355
0,302676171847733
0,295281947015808
0,309900262204009
0,294387643677112
0,300523834347183
0,297737423796634
0,30197208423393
0,298644400310658
0,305011519827948
0,293610963084001
0,298777131281411
0,293872355228153
0,299627927602995
0,286702188356224
0,300650879094958
0,289250127594389
0,29185696098377
0,287703444680648
0,297504851927203
0,293409368262207
0,297374033346558
0,286201967003957
0,294396875946456
0,28956235786228
0,292359195721016
0,287298919015223
0,293277484346534
0,282318692656306
0,2930538550704
0,290393707095697
0,289761341105172
0,286732270558397
0,291469500751848
0,283790603119198
0,28747407009155
0,279223149553967
0,288388936484863
0,284348823269344
0,287308442368542
0,278201344834156
0,284566114222038
0,28427264982292
0,29204153791117
0,272351777329517
0,279728578088576
0,276780036068677
0,280428171818481
0,274049874513428
0,277364594004616
0,274670513474158
0,282054036926018
0,271566193570618
0,278687089775091
0,277548638549057
0,275442739754114
0,268255352692017
0,272717277882785
0,270001814574058
0,272822877960659
0,265593099194823
0,272285853987338
0,266223877071138
0,270605416938302
0,265457557962418
0,268562164736045
0,264760672735151
0,27052729692765
0,264954163850952
0,266263516332203
0,259093708721115
0,271375471449725
0,259217179373384
0,260573290796918
0,256959086900003
0,265870465439966
0,256391461225029
0,260858709018249
0,260011226133242
0,258602776221405
0,252574950226264
0,256359904066434
0,252262327180184
0,261195448225866
0,248808679665024
0,252950325081423
0,248419314036975
0,255087541202135
0,245640016570878
0,246251397598779
0,240157927523923
0,248235426411827
0,244571279297227
0,247497326523954
0,244111927545797
0,245881221608801
0,236676018786027
0,241781237111812
0,235828150809215
0,242253864394912
0,235710100131523
0,24022815159114
0,231496342918017
0,239195688905283
0,232723145063804
0,238133252586622
0,232430726352686
0,236427385170276
0,227941347188695
0,232076765214378
0,229241355988947
0,232113482228062
0,227188604483931
0,23223455209788
0,222744960494843
0,22964655673028
0,218976610857857
0,220990995463516
0,222180487052809
0,222160308540588
0,215577496003703
0,226781408055498
0,219507972354975
0,220910355596113
0,21711295426588
0,223733926086841
0,208891862759559
0,217174768569214
0,213559029113251
0,21507956999414
0,20979540084331
0,210987634233862
0,21055979543936
0,212523835681457
0,208025341621377
0,210565087703104
0,203961143128943
0,206909152172615
0,206467748815717
0,204127335408419
0,204842312441213
0,207272966665759
0,200296319444975
0,206870365416872
0,199012662867265
0,202004569483917
0,196930766243807
0,199265097438196
0,196839741489505
0,198790632337375
0,192653547774308
0,204743638081068
0,197727716987968
0,198128369359286
0,193060757910928
0,198676398435476
0,194879835391251
0,197089011516758
0,193833137655204
0,19479109305271
0,189299448249822
0,193858227150509
0,188229989463187
0,192444171895233
0,189921366198664
0,189033957588648
0,188142862461633
0,191090142873835
0,183824272583318
0,189322689653454
0,18104125543457
0,187256539765959
0,181199479467264
0,182617866646679
0,181751106953075
0,183352682983966
0,175790613037626
0,186131482608644
0,179050787614605
0,181915057473241
0,180136526210298
0,181584538679398
0,176489464001527
0,181460836649981
0,180819312550187
0,177867563805998
0,180130097304381
0,181756026900812
0,176060415382265
0,179593889808855
0,170884155006676
0,176940671930875
0,173650052076833
0,181170850290933
0,177862647651373
0,179134992173827
0,170214950724972
0,177386534208944
0,169609240780288
0,175018028177429
0,171132428129447
0,173711671074
0,168925427509701
0,173837232267426
0,168428522267194
0,173745083511976
0,171887855798125
0,174138731008359
0,17019341953623
0,171341798946843
0,16467580131776
0,170063238619701
0,164968423824376
0,170323791062451
0,163943708169803
0,169332047463045
0,164645340083247
0,16679356840984
0,164947665235225
0,164930981057024
0,164464091118915
0,16930130879056
0,161557053608336
0,165141259296096
0,16237394000254
0,165449765331785
0,161782475823599
0,164566162799352
0,162459125570775
0,167400056275783
0,157546803491309
0,16236536475618
0,161161949353528
0,16264037090433
0,158756330287931
0,161944760611695
0,155927824624378
0,155298173162991
0,154715478601644
0,157692555772806
0,154430784781944
0,158280524908237
0,154857700929401
0,158774356805937
0,154630118901761
0,155671317713396
0,154890726372534
0,156789525381687
0,15523761886421
0,154651888710229
0,151469289551883
0,156763560308544
0,150868434789804
0,153797035520313
0,150339127214115
0,150957652304543
0,147950480453455
0,154752029018885
0,151223190642013
0,152743681041458
0,152058660905763
0,151474697289871
0,148295583572095
0,154116981736137
0,14624807334964
0,149613116158409
0,145412017878103
0,146923992767792
0,144666773733286
0,149643739730878
0,142567406798448
0,145000751319786
0,143393135557864
0,144977773125988
0,141556644476691
0,144647565761002
0,142165024444706
0,146610154301991
0,141550519888552
0,142835550050091
0,139772913117268
0,142578755980893
0,138482243834404
0,144982883566803
0,140086279455919
0,140527136005359
0,139030457841715
0,140537429304219
0,135949278458599
0,140544708368045
0,137414004320509
0,138395524833028
0,133303992319805
0,137305893683886
0,1323359446192
0,137433554131955
0,132734072726639
0,134568732913789
0,131024146686945
0,131628461670365
0,128843286359272
0,131132870893706
0,128772014701105
0,13130611780706
0,127182827730482
0,132803869955002
0,127117949074739
0,131493664482878
0,126813173104301
0,128167560496336
0,126080818232271
0,127414286572792
0,122948405790559
0,126084794682702
0,127329855194988
0,127418402065479
0,12166407468312
0,126124075965339
0,120577624286108
0,123406989954298
0,119660060443704
0,123743880412036
0,123488131054536
0,12354202251329
0,117211598507029
0,123087736749202
0,115829054520103
0,121350643308421
0,116533586304681
0,119221289619912
0,115962122086544
0,119078459168397
0,114268187116792
0,11818096602821
0,11304407342422
0,115034757239371
0,114749133531636
0,114808507366042
0,112201558990549
0,113403430760551
0,110025307252773
0,112953642513895
0,109865341445697
0,112454205597054
0,109036620060332
0,113469745427464
0,108493463525183
0,109573234306358
0,103848122842519
0,110646594627538
0,108984675879534
0,10924709577135
0,106776664672603
0,110752778006876
0,104595186511745
0,110787645889038
0,104877401608962
0,108120039043842
0,103802130284051
0,106170222890242
0,104187776448701
0,108573897576862
0,102033152162807
0,103059116751757
0,102242954738684
0,107233791581572
0,103066041441615
0,103247023288971
0,100110471300844
0,104962121309261
0,100540673757466
0,100466873849998
0,0980911347661107
0,102115976064004
0,099672644636633
0,102009139010158
0,0989937698909917
0,101398614759602
0,0986980208580872
0,102623301932402
0,0982434999357565
0,0979973494149294
0,0963435647461211
0,101846592673919
0,0976186872263715
0,100513582716147
0,0977134934687382
0,101819928568106
0,096489791013716
0,0996224638587138
0,0945191205113972
0,0988057718576014
0,0995187540748952
0,103609583336296
0,0963508990122028
0,101398062067745
0,0993998903520557
0,108874589623372
0,10261996574147
0,106237809049082
0,10138118980204
0,108814418272222
0,104135403494653
0,106524714130799
0,105449227882772
0,111671805488035
0,101998838289896
0,107087548110698
0,103603917738412
0,111013995372045
0,104208802833205
0,113852324315059
0,107337245609144
0,108555417360551
0,102850670017864
0,108693601177614
0,101299612812834
0,115012321895566
0,110012178448476
0,110208588146394
0,101638505990594
0,100657434837422
0,0982184281942999
0,105616636864066
0,0920245700335008
0,0968030030433585
0,0953019999168347
0,103518170785958
0,0953463443160794
0,108706546244831
0,0971560041865423
0,102059580099376
0,10081629987946
0,101571933101288
0,0976592262318043
0,100949566777557
0,103662544477378
0,103953432532555
0,0946183913102403
0,0956332596130716
0,0979018355632168
0,0955577978276744
0,103556978142481
0,0980948425416483
0,104302863350882
0,0895987031354285
0,104890127984893
0,087497599676002
0,11153158738393
0,0826711374070457
0,10741245393527
0,0768522039467139
0,115832538796772
0,0822294958380317
0,118023533338808
0,0683561397873244
0,119334309317308
0,0720215400752235
0,11585692828467
0,0693422976760221
0,107039628795699
0,0762926760221187
0,100164869432661
0,0829409961477993
0,0959483283642508
0,0895282577091417
0,0880442210300534
0,0914638927310781
0,0849637162003622
0,0947659817913507
0,0809708076606814
0,0900178068264923
0,0835710935380699
0,0895038875494637
0,08620265152055
0,084490630002891
0,0879172063739603
0,0814759425306448
0,0867251350730143
0,0839456771441792
0,0857084199969104
0,0854034998804116
0,0843154483541294
0,0828596960989823
0,0832360282349774
0,0833487263650263
0,0837582229092627
0,08324179237078
0,0826226608064048
0,0839574520408273
0,082726489155983
0,0822528339602488
0,0842652165686102
0,0834875886708961
0,0806050167939257
0,0829226390187015
0,0846538079118566
0,0813901037543096
0,0811443766498137
0,0831185156182067
0,0815321483719138
0,0795670233571749
0,0827878017778087
0,0843473274826536
0,0829716143857763
0,084357722567791
0,0803303512765735
0,0817414007595846
0,0810173056839993
0,0787617808158753
0,081971479125151
0,082848034161361
0,0837503991380917
0,0819198291260423
0,0810855749808381
0,0819677190262695
0,0818095631543112
0,0810236046557945
0,0815492900382013
0,0828064987758522
0,0823284077428588
0,0821579869780113
0,0820308278691415
0,083509208897912
0,0815822964644612
0,0842313720450613
0,0826671035692576
0,0831328915893566
0,0816413778081063
0,083974400937137
0,0839156213600012
0,0827055249624582
0,0813936385240933
0,0815416656256405
0,0832135490599868
0,0861280692993225
0,0822340446843706
0,0856195961571258
0,0804726234725224
0,0842918664124123
0,0834297959537359
0,0822993921415888
0,0809949216036857
0,0817939379123345
0,0813236359690123
0,0816269843803979
0,0830142182389836
0,0832028716164252
0,0825303657451514
0,0857821390513984
0,0821943126056575
0,0845906231278365
0,0831400629665499
0,084719406673058
0,0822292139068284
0,0833130659961637
0,0796958510918526
0,0829155494627828
0,0832527412800535
0,0857887369116412
0,0835579602353212
0,0835639248741043
0,0840395194081632
0,0847877796381784
0,0825856290716702
0,0860589054312353
0,0838889478217368
0,0843882905863199
0,0853722780858901
0,0856595942271719
0,0841340407020357
0,0835492187720362
0,0826858603341424
0,0837863008212104
0,0831072301934062
0,0868797899114151
0,0850449216805747
0,0848690749989645
0,084529510203565
0,0858868033668999
0,0852566844540392
0,0850420061934954
0,0876326029552928
0,0866190057891687
0,0857208374487722
0,0869108697312998
0,0863409891584724
0,0874790970471029
0,0870018077508343
0,0869031185199153
0,0868988091780939
0,0878259970431033
0,0847967020967656
0,0876834904538584
0,0875284567812996
0,0864515962094067
0,0853861392410926
0,087953218035467
0,0891237342410232
0,0886589356437795
0,0896643445627492
0,0879944856888094
0,0852758924260597
0,0881973625157577
0,0854233567105094
0,0891327688947136
0,087846838862212
0,0870011647627296
0,0878856544033505
0,0894008768961857
0,0881665888751947
0,0898382226433622
0,0887198426667078
0,0883784870575255
0,0901188968866525
0,0896233405987646
0,0880036068507285
0,0900772152444628
0,0902368975304393
0,0907944331214828
0,0880199588131321
0,0903174516951059
0,0908232217436492
0,0906602899822503
0,0903016811683863
0,0920394678449616
0,0903831574077929
0,0911055460682244
0,0892172347990747
0,0921444878604856
0,0892640560446418
0,0910230317484042
0,0898463364893371
0,0916028364453896
0,0923488752594247
0,0912310319907876
0,0909644220326981
0,0920931475418082
0,0891401551131768
0,0930162347935112
0,0911352229528953
0,0926612241311784
0,0927080227904115
0,0918090761351821
0,0908997322380556
0,0910744525590161
0,0901185838678606
0,0894679391770232
0,0886113121396583
0,0905635102198608
0,0889529544668967
0,0909763292674516
0,0891849254012839
0,0898130186599117
0,0890532226380242
0,0880141009416522
0,0893264244450687
0,0883625571103993
0,0877563400456
0,0902805359874414
0,0869826350584779
0,0868117736378653
0,0875621354456974
0,0867451997729032
0,0875820800857986
0,091452878809726
0,0855157595877406
0,0880643226703545
0,0874527295997438
0,0893795285846011
0,0851901463662963
0,0871539196078921
0,0848560193958117
0,0869301295620163
0,0879412652911105
0,0880073577291589
0,0865016774545241
0,086794441883783
0,0876877168399813
0,0874092479486195
0,0858971713800683
0,0861464863761836
0,0878047351438939
0,0859686194661412
0,0824257312265425
0,0859648565915309
0,0856393898923199
0,0886780238939984
0,0842554190983712
0,0848958737274406
0,0850237612856794
0,0855385923471314
0,0852259099404747
0,0867349750299566
0,0839962177066656
0,0849839729098848
0,0839133534277881
0,0857279091995762
0,0841295500514726
0,0835470225198498
0,0858010639228027
0,0840676563521088
0,0845466232882297
0,0857623022536238
0,0820502421985179
0,0870113542317857
0,0834112285610259
0,0834472639997344
0,0848061049148675
0,0837163813202202
0,0834041412021662
0,0832769179613923
0,0804443559775188
0,082947754235353
0,0835493153794564
0,0827778772354281
0,0839260564789409
0,0841014666751862
0,0846167968251632
0,0829092261678431
0,0816306967070182
0,0825236765823257
0,0804650560113922
0,0848506170782447
0,0835359401554935
0,0830700885765987
0,0821930359384093
0,0856179787125109
0,0849696616140562
0,0861549262922579
0,085169465883173
0,0844056348793516
0,0829977425420109
0,0826935681299036
0,0856733081663096
0,0832563577113494
0,0820722731394563
0,0836029703281995
0,0828396524359663
0,0860233764837579
0,0827543664059609
0,0807553797113471
0,0788285081532641
0,0816902938727623
0,0811758808342838
0,0805070833854476
0,0811940726778443
0,0802033041304773
0,0796256293158364
0,0823169861681802
0,0800975720493313
0,0799510246660949
0,0811891112829907
0,0810935640461168
0,0819554933588672
0,0812651122403234
0,0779364168305693
0,0811274833559602
0,0761429721910254
0,0827451460805722
0,0772534424451408
0,0808645044396162
0,0795000609238084
0,0793250440762553
0,0773930605083803
0,0809019721048073
0,0781374416485656
0,0786883645889096
0,0767305797619596
0,0778128590353069
0,0772614295281982
0,0750634289533894
0,07842300274634
0,0775974978821423
0,0752723057895164
0,0740709276045788
0,0735640932357694
0,0750099270399296
0,0743431547168355
0,0776586242709864
0,0728979516869794
0,0781656130877429
0,0769788422091823
0,0732166692393787
0,0729105562451821
0,0727989187385094
0,0722019247483958
0,0718487215642432
0,0726262091095062
0,070784327162598
0,0740767210680379
0,0718236238204902
0,0716615005133858
0,0729175867271743
0,0739124433786542
0,0720153301945248
0,0702385956927239
0,0699618558364397
0,0715301797049906
0,0687439552394693
0,0729315579525605
0,070487239420399
0,0674612283048067
0,0685580248632303
0,0721641660599006
0,0719171656134245
0,0707057082645555
0,070524045359923
0,0740611976295192
0,0657245571532345
0,0686439536075058
0,065729424596609
0,0719773533828679
0,0657612174790424
0,0710317493066351
0,0670588903026116
0,0689776025509038
0,0673075567236316
0,06867053390589
0,0672921303814759
0,0668141785066204
0,0667935863615012
0,0691706459605334
0,0667734960715302
0,0673917737759376
0,0656375096655164
0,0662779242069912
0,0657360067348833
0,068716722887731
0,0677717576384011
0,0679102099913752
0,0652093760552145
0,0674431272624566
0,0648931662379909
0,0685626237515456
0,06429279234584
0,064651196650713
0,0648060385350559
0,0651022548103458
0,0666080505395964
0,0654639586112725
0,0652119108246615
0,0649051661574579
0,0639533907005892
0,0618698345373552
0,065030827542997
0,0653468581157933
0,0640570330649924
0,0640443448080558
0,0644308375396953
0,0640346781636024
0,0629262916007165
0,0637100329199212
0,063606761862722
0,0614080035091443
0,0646151651130758
0,0602119785713795
0,067019430037202
0,0624551212934357
0,0645899231601327
0,0596119987390734
0,0767179026125703
0,0588494175360581
0,0641360901455971
0,0616480044371879
0,0625790254901828
0,0631343614905435
0,0614911738561537
0,0610798831892497
0,0628669584773927
0,0603937238573189
0,0613037164580398
0,060641620862895
0,0613215798792211
0,0639464531670434
0,0610629663253547
0,0615341949499199
0,0631596533743173
0,0588890549575884
0,060730941246679
0,0619922307804337
0,0617232904191471
0,0666420601919108
0,064125486409682
0,0574498450537115
0,0658337446324465
0,056477298478979
0,0653586673515186
0,0661340212118309
0,0536356144640944
0,0656637465848089
0,0586167981888173
0,0642401878136016
0,057235601272836
0,0647546154431789
0,0587270851687752
0,0661336072799424
0,0568921778104644
0,0645427829267139
0,0612419582568834
0,0627777398491122
0,0631107666481476
0,0636173558727624
0,0583198178977747
0,0623433571691286
0,058340360118856
0,0598255833463776
0,0595651743110293
0,0599984836048923
0,059853335712843
0,0615817636136534
0,0587039972250292
0,0660862644929658
0,0558278601925004
0,0633388464330569
0,0592374888620086
0,0659207796298163
0,0567936293154894
0,0676712281349131
0,0583285292992393
0,063423421004835
0,0589032717310536
0,059727642091226
0,0595157100152285
0,0569819827816827
0,0601525543917354
0,058717162906867
0,05808257153729
0,0595905785010251
0,0624981554541643
0,0587856761425452
0,0593192757762521
0,0605535095183012
0,0613183324098734
0,0583554055481852
0,0597406961161502
0,0575004595247621
0,0613322396481079
0,0608038828187573
0,0621209263318395
0,0677505883826309
0,0581736920040556
0,0669781461441225
0,05741950307669
0,064049564200395
0,0578728833327074
0,0611987046713498
0,0560200528970452
0,0634645460732854
0,05761102645495
0,0630504352112195
0,0602994993317179
0,0636224293755542
0,0581890341406202
0,0601358158772462
0,0581552263155139
0,062535663608784
0,0597381593905317
0,0622235428413097
0,0579725199531634
0,0604395153715892
0,0588525976456351
0,058196262828016
0,0630550606492165
0,0568566721756672
0,0603333917030297
0,0568952136640186
0,0887803029058918
0,0457957772267972
0,0676900762823846
0,05735972600232
0,0631505136624735
0,0610934730239145
0,0614717107853552
0,0645495272383077
0,0645305466240312
0,0608630861900843
0,0633115230375578
0,0576346227214655
0,063550208141668
0,0623212148525859
0,0605557194677619
0,0712057371284251
0,0647824602186616
0,0585504461016092
0,0665188500385266
0,0577155643638876
0,0735370570495416
0,0578370428560976
0,0603823683595917
0,0699543896942889
0,0576738531966461
0,0657050466392927
0,0621176303364623
0,067369622810227
0,0617298108465697
0,0688149694420839
0,0607788388912026
0,0651354519629532
0,0640915743922014
0,0652464134295811
0,0657161610731797
0,0619897836201473
0,0706138347743812
0,0620797862926567
0,065812366501588
0,071742194072116
0,0607115111052539
0,0655330886315645
0,0654007511043624
0,0660516127809549
0,0649984735022946
0,0744528812993199
0,0654467103236084
0,0689774454084852
0,0708309821353532
0,0628272028325059
0,0675874803205836
0,0710319383109784
0,0681249335036712
0,0733266465465495
0,0554038724439213
0,0945388905024586
0,0590460751337889
0,0808302142488251
0,066593462516382
0,067479891550181
0,0696886171468598
0,0679499587142528
0,0727919329562657
0,0669028340941522
0,0763543716255672
0,0584187224859523
0,080514110037525
0,0630508667332352
0,0923980512275474
0,0651380198584587
0,0759964821789046
0,0714405272013453
0,075200190583734
0,0690283614128952
0,0804891340061412
0,0653202992115973
0,0826018594159991
0,088718806410486
0,0737706489395805
0,0778983955915031
0,0682421576451879
0,0808295666816072
0,0944379044294606
0,0655202273616628
0,0840431353690499
0,0721074439242402
0,083950509508823
0,0691164971741004
0,0870725058981483
0,0805966309544246
0,0764940549498484
0,083697960260855
0,0793798863815623
0,0756361916416767
0,0948292932203539
0,0732215351705643
0,0877092300785323
0,0772011459408086
0,0919855254083848
0,076347356800347
0,126459953422454
0,0648228206000767
0,10725783056994
0,0719899622404988
0,0959535991469412
0,0850236689782915
0,095079882008214
0,0878587767254163
0,104967532058899
0,0965240849517633
0,0930699862783136
0,0907535717799422
0,113985413501205
0,0943277220496454
0,0947600206414299
0,104584557984751
0,0960771559028127
0,111800319192882
0,116670078096498
0,110527568812854
0,108542967369158
0,108283640188367
0,110112023342881
0,128391162632692
0,102057262631822
0,117817267464522
0,111187336174799
0,118381511716234
0,116006531424023
0,11888696845138
0,129018090918317
0,117796661790068
0,123702798728014
0,120558996331486
0,13122782158691
0,133181433834856
0,137669531601514
0,141144318644965
0,126293266063554
0,158150477803377
0,125034836707371
0,140278530977026
0,135659918652738
0,140267499421186
0,147899209474945
0,141389101289936
0,144356849935743
0,144214448309864
0,167959653384622
0,143636427728729
0,155923440164161
0,156260773895609
0,155607739909833
0,170959623365855
0,152152756165081
0,295010733612704
0,145733517598788
0,193356323188001
0,174107389487347
0,208522262989509
0,199637443037103
0,199141084034375
0,201194186632732
0,214392215793429
0,212170736120452
0,225209019210881
0,226604555712157
0,232542355259814
0,240747475517468
0,24757134363999
0,253206319339484
0,271862330992122
0,228136387012922
0,283802707426538
0,281296458750503
0,287773087610076
0,297601970318301
0,308490312548976
0,299837042075402
0,324040655214387
0,319592341695614
0,338446789508375
0,343518925222341
0,337815530900437
0,35478383316414
0,357770300505967
0,393061229864327
0,358732640862074
0,414648123126186
0,383723223910586
0,400814131914962
0,403932370793236
0,408423121722733
0,425322330559899
0,424078531739977
0,456046919332683
0,43776829003533
0,449502258589763
0,448472189107273
0,460555839461226
0,462532431481785
0,47274390248355
0,483631128481115
0,482238411543991
0,501441417072492
0,453281225273579
0,531428459845595
0,483500489995653
0,491003788032936
0,504530706878084
0,486966674411031
0,537064688586536
0,487444332104973
0,533169104284557
0,499429123291041
0,511482725551511
0,503692913715301
0,506702960022325
0,510444563406978
0,501358505597389
0,509897405026043
0,507071181295162
0,531428304450112
0,491931405036099
0,547466879764981
0,552372003663374
0,510018637985087
0,51085405584276
0,506480095228514
0,514428196328387
0,501105543932176
0,501998724347119
0,494083190226607
0,514693484770423
0,485308402735467
0,501269893171993
0,476898432971458
0,501856533170094
0,477501102351493
0,483204061050373
0,465554145154076
0,461750537525403
0,471232536677838
0,462930767700177
0,472018675505055
0,488212689203054
0,445862296903723
0,453433940943286
0,442731176932886
0,450037978141766
0,43771704020249
0,438146819547398
0,425188339062542
0,439847904235129
0,426624471011955
0,438403512924502
0,422396674117561
0,430284643255249
0,418132764288291
0,423356743511772
0,415737063282486
0,420526652763755
0,410575229622502
0,416795427929369
0,412817786860889
0,419299351650467
0,412562405635517
0,416790815437168
0,414525338066501
0,415807747681671
0,406639902963841
0,41519205135251
0,404771257731424
0,414184803865747
0,406452403201804
0,407928263000734
0,403825015102925
0,411094416207448
0,410429935853415
0,411492069840886
0,40471541352793
0,407284077210367
0,403095117701297
0,406320482175794
0,401632351176429
0,40200933174784
0,4011072244348
0,392679010405928
0,401569819154772
0,390521803083876
0,394403001858727
0,400050706101819
0,38376759154284
0,39636422805819
0,376375202454706
0,402042807166531
0,379858828011947
0,379619181202891
0,38024451873161
0,37754370164723
0,376144528268845
0,381119024929842
0,359666616759052
0,379953326822603
0,349376304324413
0,394631903268689
0,383997025453272
0,345544334855635
0,369778443756799
0,359653356994348
0,359673956210153
0,35346579755946
0,374542716841085
0,347472317117663
0,356701349000386
0,342972571361061
0,362536981241703
0,35356660136685
0,342625604090919
0,35056167989735
0,343070716829411
0,35056750081675
0,345936934471495
0,340720904972272
0,334948797764144
0,353480386081256
0,337117191912079
0,366609714715614
0,315691373125896
0,336632619274633
0,321682906295786
0,327095597454807
0,327322699072723
0,324770838924537
0,34852665983593
0,310008094771385
0,318270662503025
0,30962645668499
0,306694760959136
0,313992186193528
0,302543889572124
0,320261007719859
0,29042987300474
0,327000030103016
0,287329170542434
0,305969786147786
0,292057265992129
0,290198164003053
0,293052850406021
0,292041336037892
0,286771954860402
0,290109825510852
0,298720805571234
0,284280313265407
0,290303254299186
0,283585161574538
0,272689962969334
0,2875010845738
0,261754038609902
0,274704022805671
0,268797029370845
0,282042985357569
0,299184050905922
0,267389993728691
0,267403533908896
0,25964633057825
0,25960501116832
0,26271355651184
0,251526369442331
0,264784575733436
0,258667177745912
0,265290447927081
0,26672011581641
0,249959574473869
0,276492418769024
0,259696437601219
0,262968594601726
0,266822353059729
0,264943721406962
0,274269555586448
0,272277649269499
0,274217668406987
0,282651180622766
0,26823710707514
0,288974302262439
0,273248176642931
0,28880658011534
0,282802417361862
0,297181718787271
0,295322008626962
0,310377646258123
0,308877334922433
0,313231385828454
0,316954112758507
0,330836904677752
0,323571335943204
0,35684110177007
0,331216082978885
0,371985388395295
0,356519897372145
0,380176390016478
0,375645954182646
0,372878563072549
0,390659747047765
0,385510153763471
0,394264286010125
0,404848681432077
0,384948979386035
0,423640228718532
0,409130242108458
0,422960669725802
0,420890788047759
0,433245050513357
0,430981967103521
0,444773103376412
0,44925680992098
0,453927864671187
0,463840605389236
0,442742556119956
0,461884182700327
0,452662264924058
0,461078579498429
0,465037734277935
0,465596562889016
0,474006252823729
0,461265372048294
0,477242978638701
0,474778088119933
0,477741435963105
0,479741863859805
0,480622526374113
0,486714628853837
0,490429168873039
0,494090707537037
0,496238991600721
0,494172374378685
0,504810528576657
0,495091089813849
0,52005170272126
0,51379863847591
0,510749502087905
0,518069156738284
0,51705155500683
0,532251629825464
0,52351889289367
0,539940608005681
0,541058580011779
0,537008083735972
0,54670361167748
0,54560877600099
0,556601682224602
0,543116639909011
0,572670461532207
0,559651400083433
0,561435806302868
0,571791167578172
0,556132805497204
0,602892460826657
0,571418268853813
0,590803760023709
0,581152793707305
0,587742011532399
0,580773845262535
0,58849444829952
0,583897892858231
0,589433737573919
0,588809588405239
0,591174628444733
0,594807236496545
0,592904167436389
0,601502623083233
0,585984055975413
0,602729593360165
0,595902583480388
0,58646242930963
0,592339974392766
0,588540053333356
0,591518484113882
0,591802932966637
0,604736927646897
0,589519186951775
0,596896585326694
0,587786674361947
0,601729186048184
0,601261681769168
0,591654475805751
0,592248188857155
0,595043838404875
0,592778338534993
0,602628235566729
0,589492430366608
0,613355716661054
0,598399965101305
0,609566629443549
0,610932315814252
0,612119296196494
0,60844857903921
0,617069785677827
0,613585274289264
0,622710031369201
0,619975648414257
0,62386587696151
0,621938384316645
0,624860800735428
0,631062983588489
0,630933505638868
0,631197602686653
0,62447480120067
0,614076175365814
0,621259636864229
0,627538806259814
0,626953206152309
0,608574736859449
0,618188373236598
0,603858642158598
0,605436843133412
0,586795661271954
0,603702643915361
0,599149881512539
0,592359557383457
0,586209173008611
0,56993359094922
0,581759894652219
0,564368855623108
0,562403096035582
0,558213402926967
0,569183490024585
0,560581127521817
0,547937307910291
0,55027150467477
0,554654754169549
0,548417425616099
0,548836780224652
0,550655017244385
0,544862206608978
0,54708184312298
0,545792171395994
0,541002901030632
0,541973331181673
0,54429179959616
0,542557495714238
0,542956705610721
0,548887973773991
0,535188937537826
0,55217150500891
0,541009201731801
0,54307758246806
0,537195599861355
0,544549359816134
0,539998949763636
0,540690247497693
0,540632691001367
0,540785297423727
0,540042063492294
0,53932934231374
0,534594628823854
0,537395481382501
0,536925400180544
0,539399622999832
0,536760918877532
0,538951065643794
0,539032512575608
0,534167852561294
0,53774776980043
0,53499285547499
0,536742972216429
0,533261243537816
0,540809233885761
0,538341229016414
0,536820590039744
0,537021982692487
0,536642711327024
0,53606821179144
0,533971366622299
0,538616794895615
0,538544153836166
0,537566451362402
0,532388102653692
0,5293705161683
0,533054276244726
0,532597966893844
0,525143049907113
0,525357266969562
0,518397611767207
0,515348220848536
0,514302833823746
0,50803983829733
0,50715925366667
0,503323623266523
0,501155859389077
0,491418068609465
0,491327411000359
0,489904509626929
0,487425849405593
0,483219055925605
0,477170563355124
0,474528646831248
0,473916129052334
0,468985481567296
0,471016622424694
0,47072993382867
0,463935540164543
0,464150113494728
0,465893320371214
0,467899437172687
0,468793156311727
0,461402702351724
0,461325861521992
0,461567184659885
0,467334585099079
0,46687748043091
0,467959872645172
0,466495936560817
0,470608906565677
0,474002671772118
0,471662982629565
0,474399741203541
0,475256593410074
0,4748077109694
0,475671459590723
0,478197011138675
0,483483624915579
0,485725035417924
0,486356201307983
0,489849307645565
0,489558588937931
0,490841465261169
0,488884015229459
0,489891592337286
0,492253209832735
0,493595177900863
0,48789823078893
0,489674128776558
0,49041050791728
0,492695786105736
0,491392613676596
0,49234403504154
0,489392278338816
0,487869706377024
0,488845120791982
0,484282690030813
0,486639449441397
0,484983402506969
0,482871191350061
0,48439536004102
0,47825914559681
0,478819128875455
0,476260194361867
0,471919086123432
0,473808876106374
0,469378458614048
0,466541564146443
0,468944011161456
0,468414370887509
0,469375843831875
0,467097083552721
0,466935862933116
0,463043625263883
0,459201008215081
0,459324804654584
0,460282100825551
0,456012036196048
0,451491298935743
0,455855503138754
0,453876353392278
0,452521360971997
0,452027862225244
0,45171302472453
0,450180567640197
0,448025921414533
0,447057521821659
0,442251230185075
0,439236573320764
0,435576179138832
0,434053854785231
0,432472834602217
0,428561191683641
0,426424903987901
0,424916754735303
0,418877362939027
0,417832176834525
0,412273605166208
0,409826666372788
0,407917260585774
0,40575616628355
0,403750866985043
0,401808627031809
0,400140406752152
0,403979902189771
0,398775966936736
0,399450059232377
0,39864550053403
0,398622339298969
0,397442171846593
0,393816833095615
0,391963647702521
0,391086145767343
0,38646728048148
0,382518121424142
0,377563280921611
0,373778621081139
0,369283594864621
0,362610538012011
0,360556070290336
0,355600382874347
0,353061325440342
0,350777538634819
0,348360340822081
0,350234032635735
0,355079775534128
0,356349360723403
0,362701766568547
0,365990354771405
0,375800089117304
0,385632080443084
0,393656544217239
0,407492830906704
0,423947106795135
0,436075821132129
0,453124621382901
0,467660487457016
0,481390886897041
0,497625458799871
0,511790972369619
0,530004675887553
0,550128871397924
0,560181039153753
0,576973026962229
0,598794743041767
0,608634275862837
0,624054897615146
0,639803664016579
0,648006745433838
0,666649545442576
0,679576829973598
0,688616105197638
0,698647667190413
0,706250167118194
0,722790129338079
0,732884003747482
0,740610077162096
0,745086938286528
0,753398960588063
0,763172246498376
0,764082392647956
0,766437332617197
0,77091616481758
0,770587334589248
0,775679479751937
0,780067256710087
0,783269756233191
0,782957304324005
0,783065913382247
0,785269214176958
0,784047969544824
0,785530692754605
0,796137473698773
0,798247161778483
0,792212612003982
0,795774896343357
0,803888242381095
0,8032489610071
0,815790984574204
0,820646652865894
0,823756192334721
0,829734370635729
0,832599839175068
0,840310109837167
0,845157300985213
0,852287063660595
0,871507876680974
0,877641921163194
0,889120121921865
0,892575072186319
0,902323220229218
0,920015361653977
0,934022911676539
0,939546729092903
0,959919088257861
0,965753620299704
0,973488215141239
0,985890528922097
0,990214041430641
0,996670609610257
0,992121653344895
0,988188432351107
0,988734762952001
0,975745364772514
0,971577564879871
0,979189484738797
0,978167548798741
0,969419040076069
0,971405251541531
0,970626930456187
0,973775740004453
0,988652323088282
0,994298196985672
0,999282367656817
1,01725490228102
1,02283678803691
1,03755702313386
1,06289933212643
1,0792316315946
1,07316464383095
1,09823367848349
1,13278857121346
1,15176463735544
1,15389947829681
1,16788249437149
1,17803219381766
1,20231225520156
1,208927252561
1,2353877870127
1,25137368598598
1,2550080561356
1,2797582944939
1,31182444417257
1,33158668268545
1,32221550055478
1,35494156518231
1,36898256399218
1,40632171578591
1,42401579940202
1,44988112703401
1,49584982313587
1,49342573520612
1,50925214879354
1,5663048951484
1,54294111607949
1,59222657757936
1,61115038374211
1,6168417960879
1,62538029446086
1,59700125172919
1,63842737195704
1,68767361933093
1,60596790266273
1,6783922731327
1,60767269532408
1,68884555999409
1,59073181697003
1,60491417804655
1,60105149608515
1,657732998544
1,5628294703416
1,60525029560945
1,58756996445528
1,63138385719288
1,63857840887284
1,69698236418425
1,64191235563288
1,66902275131464
1,68528529068391
1,74004352928737
1,6393354180853
1,76481746846271
1,66820973187764
1,78227780231377
1,75876423370752
1,73682564269536
1,76231397728629
1,79442242852563
1,83115320000176
1,97467740415643
1,88886073931525
1,91230637418473
1,84505012397592
1,92816807059392
1,83382255956496
1,97893526760295
1,94069067668538
2,05573105102441
1,91700326672093
2,01571126745571
1,90032661304686
2,13558561815494
1,96163650053605
1,98931536397555
1,93263840219284
1,94156560610543
1,89454913841676
1,93514854722748
1,99589834056789
1,96156673357745
1,92080506408759
2,03246234870771
1,87408663265657
2,02906417104293
1,96469913205237
1,95355200428286
1,78536333342552
1,96199769596485
1,77784183075184
1,89345107655565
1,87255619974769
1,87279381236069
1,7235113505148
1,66270827495215
1,57161779342381
1,60420054347507
1,51552196196683
1,45552759466404
1,44864264380639
1,39879027607415
1,3980260174067
1,36800674702048
1,30682020854489
1,3374406257588
1,30962170438966
1,2562118471099
1,27834648488867
1,28091431200342
1,26079284968305
1,25269147073968
1,23532758244813
1,23624552629234
1,20642372504088
1,19089800649316
1,17861434941497
1,19799810934043
1,1427980058615
1,15315517884952
1,08357661783249
1,07895319078823
1,04755415867461
1,02091737375319
1,00233233656475
0,967847110094501
0,927265286517443
0,918197093493724
0,864283159625475
0,838813958158574
0,792189786431257
0,760562031120018
0,734039098613308
0,702081913990076
0,678477467189803
0,655894427202959
0,633331062665826
0,602085796128001
0,579679058921958
0,561020507115928
0,534708379968427
0,525252584083658
0,508204410159899
0,495326134260069
0,477974141445879
0,477896653556313
0,467100050434417
0,455491268644
0,451045534582047
0,449353584753318
0,447678404418228
0,439305012430169
0,438911487445921
0,434008223446039
0,434236894472298
0,434698186649817
0,438443197196196
0,445370229615077
0,437069678953444
0,440811684285776
0,445012763997984
0,44765501688904
0,439960536398617
0,445469343804722
0,444167216149056
0,44380055366749
0,439062173885649
0,436651585692418
0,435080451560221
0,426995776886575
0,422700520372476
0,419122752862905
0,413777882201976
0,413167394433649
0,412360088483554
0,407222284122313
0,402279908135926
0,400232681536266
0,407801321002375
0,415691384930051
0,416769059147894
0,41237128364734
0,415838587785388
0,427506166808209
0,423673234661063
0,425723121183267
0,427724007686209
0,434441175631901
0,436362335914591
0,435012943419893
0,438240391267666
0,444349296268325
0,452500295752553
0,442888702829656
0,457172558689927
0,455391222158054
0,453174788752047
0,455439612082355
0,455156418396811
0,455482693833618
0,445691185169123
0,462754879975998
0,455444372900922
0,462698044593726
0,469183759057046
0,467989176916485
0,479484463116846
0,484291415566471
0,4920116777555
0,494144199460725
0,511378513308425
0,515463855633506
0,526656216277251
0,546479789483362
0,561996631069848
0,572195846664611
0,58437425722617
0,590791951742687
0,599934956268178
0,596875081385452
0,605292508415176
0,613170333399437
0,592151257177651
0,596299531239997
0,587584794586824
0,586120398619956
0,55789248227532
0,558256712202761
0,552309498291806
0,548358647722541
0,53457965426529
0,546826359702145
0,528540075203207
0,537446051082782
0,531031687074234
0,551017384857494
0,533462075041896
0,55257670743844
0,530231684085247
0,56196791354931
0,540384627710984
0,530205440688744
0,524673776405723
0,522168679066932
0,507152589636569
0,506789020768331
0,495029526293931
0,499104446197216
0,487735696950823
0,489648160740858
0,478879940833638
0,495213605276552
0,473146559230264
0,474677898188157
0,473514660356973
0,477711885737166
0,458206181622657
0,47399769266438
0,471220628678166
0,473874808117438
0,457904805825024
0,448717433267206
0,44396279630709
0,447859829273825
0,449129633572148
0,4489264680486
0,439014016226723
0,444417389078625
0,447551471333405
0,440922865283628
0,428811917557072
0,43255680087527
0,423349717302599
0,428740279125597
0,419506621750149
0,425865827999594
0,42040790782854
0,427275286755029
0,415316445550469
0,416679545677635
0,417829328275153
0,413776313084738
0,42110110985545
0,408597495003816
0,410563365930299
0,404956708358223
0,402572212488466
0,40315714541224
0,413353131432901
0,426903680051602
0,405665413015597
0,405542383605659
0,409191551126856
0,396302397607386
0,402477599869083
0,409602512538419
0,418581506844085
0,424697528006088
0,40968708796267
0,43590972012618
0,411087224843835
0,417155881556653
0,426696017016791
0,416599490917835
0,415978217061745
0,42375147091978
0,417767006075403
0,437198624650974
0,433288544959034
0,442696254808568
0,425756758672099
0,458102079066103
0,439414568820927
0,464627788852545
0,460365325366855
0,476302610337546
0,460938952415235
0,500367907012708
0,473884332188528
0,510500011906019
0,496199606069002
0,513584378044047
0,511361156082324
0,569922707128954
0,543365217550648
0,558709558008028
0,565300243863876
0,598332039810101
0,598172392413634
0,619393020573148
0,647107706860562
0,680806955048553
0,680568172880057
0,699609717169757
0,715765362525549
0,740277015154468
0,684857955893698
0,718761485236778
0,731071887675656
0,760505656830835
0,732822557566994
0,721604001788834
0,70200776706441
0,726415685546248
0,692843808325185
0,716859820118336
0,709956750684558
0,712851960993049
0,699934841939534
0,658134936244843
0,67061793884472
0,721155427117411
0,687247061752258
0,678146784911687
0,682310168048789
0,686292199954126
0,638122612677861
0,673133585967403
0,622371043663294
0,710611305843804
0,689272057664855
0,671996461800882
0,633151811232851
0,664744123494986
0,628702798439108
0,625110849925082
0,615389327190992
0,630058893786604
0,596547545967349
0,641502705800952
0,625922089028148
0,589004348670058
0,580111241662016
0,661511401854817
0,604193183373552
0,677367408360437
0,562851755802024
0,614244021457522
0,605854137511245
0,605486681003332
0,596633694963666
0,633410601980309
0,639501670542792
0,666125550403259
0,614913104849312
0,664033229052379
0,600484823774348
0,614553801747283
0,623787160317746
0,655133404886115
0,606735962171206
0,655772625341953
0,666056898415237
0,652749340219682
0,605926050699347
0,682344776331077
0,638720950214688
0,698708970929105
0,715649028792289
0,691058807991458
0,572751664297958
0,694627623839863
0,673027369435944
0,711426841692751
0,717700497129894
0,765350782072396
0,639775555702522
0,737475470812701
0,719465210395868
0,804885058850287
0,725265314722108
0,834823191960781
0,717424928962029
0,816957350542499
0,763783100587442
0,947488015137592
0,873509228313919
0,98862485124326
0,760075615835906
0,779350628474257
0,822731304825712
0,970080745742141
0,782531919888179
1,09665312510314
0,920107268969525
0,793675899163231
0,91209545044765
0,95324057329046
0,74825534355812
0,839794025314623
0,834231584616666
1,02225171065691
0,764798869492853
0,726241178413467
0,742281312075261
0,902881976246024
0,732709869313367
0,914881572585001
0,7734606298996
0,762041082559689
0,740482381194285
0,760358806474526
0,59487909525871
0,724175258096389
0,837424507039595
1,07212516183489
0,809041855232943
1,05720112892293
0,957096998150862
0,90436330618799
0,611300566830599
0,955093269578042
0,759738578725965
0,728606809771478
0,963383463045094
0,913279341172808
0,630898515989645
1,03244183245766
0,90759309233284
0,866212752125826
0,701298263436916
5
0,571025518441226
0,717303300718135
1,16835574046908
0,883222643688033
0,907897797746775
1,30393964044855
0,814705125914202
1,26569967090566
0,679737422056196
0,905534486574192
0,583289803144536
1,39272115775393
0,592120629042285
0,823265520556858
0,617498449639255
0,518145926089574
1,03983641218134
5
1,30629585166021
