3596
4000,36533379555
650,420452594757
1
2
2
0,0360086598369828
0,034384368438626
0,0384709040373275
0,0337923757201721
0,0200492707478963
0,0434524798797402
0,034792083796969
0,0365048382793608
0,0367583928584296
0,0351644773859917
0,0296917014790291
0,0315664023831446
0,0353506552385944
0,0334073859929025
0,0281614442474947
0,0402955493639099
0,024239789963954
0,0468847162885109
0,0424006607196369
0,0347035189604408
0,0274065154093014
0,0343163772439464
0,0290834540176149
0,0409473827795713
0,0355250398080676
0,0417215292719321
0,0315958973194121
0,0304876757882604
0,0338774583589996
0,0325055193578034
0,0373759522017322
0,0437447541386795
0,0314073341677888
0,0377884489340896
0,0369032364069696
0,0499168279557436
0,0384003946622943
0,0320708266230878
0,0326737307682276
0,032925717840772
0,0265525885878978
0,0310728568267599
0,0251443774075563
0,0355373581319285
0,0403417372588288
0,0341934830037601
0,031003508439743
0,0333861786571911
0,0341286465600311
0,0363190435148413
0,0377391783579162
0,0303730037026462
0,0409994668910887
0,0328073311538526
0,0418914053217393
0,0337391979563162
0,0349391501810305
0,0370146180437629
0,0264814082602504
0,0393526808247804
0,0417930634650874
0,0256555335830161
0,0379981307020868
0,0316620460900621
0,0332392029888551
0,0268328771226859
0,0330022052572979
0,0300579834664125
0,0545578140344305
0,0250144399473588
0,0391894538277635
0,042686148749608
0,0212303614024067
0,0356485420543664
0,0293044549859481
0,0328893861379511
0,0293315445411749
0,0213995544021215
0,0402477802126346
0,0373101081731604
0,0274379404706179
0,0258191845024564
0,0218808537735442
0,0375131473044469
0,0566664831114747
0,0102404803497515
0,0315734709734095
0,0360355777377918
0,024829727470143
0,0273802633730451
0,0256791516990229
0,0301652587489897
0,031582144919814
0,0268959742590897
0,0273800784438498
0,0253086767354314
0,0281699513610438
0,031552777397794
0,0331943055937605
0,0371189819201809
0,0204822522896869
0,0830632058828303
-0,000216312002349247
0,0651282669906506
0,0261053061588069
0,0201662226313978
0,0643373812941661
0,0118347940379837
0,0295250066400982
0,0166553194471321
0,0335102850594723
0,0182961741958776
0,0397871098623515
0,0123956211381154
0,0289639176613845
0,0367004798008563
0,0214729879814014
0,0307629517085737
0,022942618584126
0,0196039216031966
0,0257977325179873
0,0664333618092998
0,0143917325777794
0,0412357066414677
0,0290745288672744
0,027459083600202
0,0397765906021429
0,0285440125387208
0,00383892778051236
0,0258707072527671
0,021005630995959
0,0382453041311683
0,0120516924982723
0,0506566080176391
0,0136076031292256
0,0311092308104111
0,0292923077767331
0,0289860730093994
0,049506918793926
0,00892886326184451
0,0323606540484341
0,0307630741475556
0,0258358024533996
0,0374775482581079
0,024618611211605
0,0257966113681768
0,037937691150203
0,0298942835274189
0,0090604093828252
0,0394688395167433
0,0218162826145707
0,046645636089889
0,0288173312927743
0,025640798084636
0,0344531395122695
0,0288203422429631
-0,00990571325269447
0,0893365158009758
-0,0104130934877744
0,0409351977706579
0,0175278691132397
0,0259687991145644
0,0251357566130558
0,0310976919013557
0,028495732142262
0,0224020134402504
0,0485730130767127
0,0135284251894212
0,03741742073187
0,0314006255444697
0,0330448647934691
0,0161452316370741
0,0619773317992588
0,0263919150775189
0,0164842228147681
0,0522193474399552
0,00694720365207195
0,0279154844299852
0,0196399066832925
0,0513063886378205
0,0124846620621147
0,0279753390439859
0,0254406029226576
0,0293684730811199
0,025254869709386
0,0374643728472332
0,0264276658548105
0,0271953774191027
0,0160498781794569
0,0444597592629239
0,0439643290914262
0,0357235597593128
-0,00285276058581869
0,0340084772188809
0,0162258462021718
0,0436459038979015
0,0448153483693626
0,00637507674315737
0,0429261088464598
0,0285542393637264
0,0236322186961355
0,0364152489549066
0,0238283283095187
0,0377846334131323
0,0123269815221311
0,0413724331049585
0,0169577978516495
0,0203241427950383
0,0365233234223591
0,0278516898912293
0,0223521766717661
0,0483963452190518
0,060523718155913
0,00774561783195597
0,0322730592562775
0,0272786930764202
0,0426688153241782
0,0258276211619746
0,0228467328709112
0,0289849135374991
0,0255122775529058
0,0231565825323861
0,0309868899705499
0,0247289890821658
0,0284406263548838
0,0239979543894255
0,0284095145585032
0,0279143251674963
0,032814584890204
0,0367885235253009
0,0278052462748582
0,0229514719818011
0,0330738543047267
0,0224068172352944
0,027985651282067
0,039449929811911
0,013598549465184
0,032755239798562
0,0280176409148631
0,03575984890939
0,0322199858446667
0,0308752545861548
0,0265374967558315
0,0361531764289116
0,033257427165923
0,0468181066007429
0,0298668204617765
0,0264132773586628
0,0333496507788011
0,0240581104344249
0,0499761426177542
0,00975511756560334
0,0420073551569512
0,0193254677717742
0,0449316514883779
0,011565149907751
0,0473543397160245
0,0290834360155567
0,0315792534596524
0,0323920027264385
0,0553835909341636
0,0180607038124127
0,0419154478710144
0,0262753407136074
0,0702901642386956
0,0104955259488615
0,0243474080048776
0,0371264815070792
0,0222087929011434
0,0249122087172897
0,0519826016932656
0,0179861888765132
0,0815133471424772
0,0142517516317634
0,0285832611027502
0,0166663415183112
0,0530774005460938
0,0211158585347546
0,0362394408974836
0,0433365583899277
0,0297511893790815
0,0573206656816216
0,0141383585784173
0,0418169733713375
0,0371499701836744
0,0322295311502801
0,0663009865768224
0,00358879058118296
0,0482059977583327
0,0188343679076414
0,0359471110176945
0,0293966819698449
0,0751193813575064
0,0249528857913142
0,061454832674467
0,0139918380523254
0,0665975804918738
0,0244752294551235
0,0386179225745746
0,0248857873755166
0,055635300776539
0,0325830445006697
0,0510560122419017
0,0293670218954025
0,0431810223127435
0,0466759358410963
0,039853718754858
0,0577637973123107
0,0555503032520155
0,0299804185098634
0,0670986465568794
0,0235695205813338
0,0371718991664148
0,0350660337863672
0,0389404254113592
0,0313530751798475
0,044251649487156
0,0346998977168204
0,0547529286283036
0,0411943203058236
0,0375298457175041
0,0456090943877424
0,0419185749626445
0,0413297135302486
0,0422432651984727
0,0429419588281219
0,0409560426770461
0,049347486042494
0,0467544396742793
0,0430659259085478
0,0757026722200434
0,0320662233536773
0,0533784324197885
0,0652090293309111
0,0235363352039696
0,0422065688292263
0,0452887708938062
0,0467138874408432
0,0441428120280172
0,0415315440657172
0,0501435326074396
0,0473868753937017
0,0512819257393248
0,0433844488494336
0,0589631952772402
0,060850773938465
0,0672447426098885
0,0648732545538681
0,0532850383158227
0,0407899230473547
0,0546506805408814
0,041813483043401
0,122925430216592
0,0215263003928386
0,0915220924762613
0,0315743293841726
0,0606855409471442
0,0545213432610908
0,0620255597106283
0,0554324658084931
0,0620431603769676
0,0622797500731292
0,0663337448496806
0,0674337161809916
0,0644296595574343
0,0718568641088225
0,0674653633151182
0,0942480870532115
0,0774271031486674
0,0614013639610993
0,0777031627013612
0,0779075406600376
0,0726015322914242
0,106227149758165
0,0768899358945088
0,101809131457511
0,063930796476361
0,114879084694472
0,0640330765699598
0,0694445538577914
0,0869251666105627
0,0809202069300133
0,0942309047759884
0,0853369843863361
0,0976810928056127
0,0923203212574089
0,096991205163381
0,0961606964641833
0,105233797677983
0,099225207576543
0,106028403219287
0,0929654142146361
0,120678506038361
0,0936151771562129
0,122403272051751
0,110339691689085
0,160390556248445
0,102317408490985
0,138995128018848
0,0902356394989335
0,132540183289025
0,10264171492108
0,134586236287733
0,107624424120008
0,135598594563771
0,117180034756886
0,152896378257436
0,141279655877199
0,135420704330992
0,141337415566983
0,13488576587503
0,122360389436377
0,170598831653449
0,120404810222667
0,176381287309412
0,135896982738981
0,158651121368034
0,147534922442123
0,192185203157826
0,136549769598332
0,198623968216961
0,142781513664075
0,173820987420257
0,161791803182771
0,170258918264897
0,169062107157777
0,175081246494899
0,177518389716888
0,17873596083398
0,176449805734772
0,193196443362181
0,175771193646028
0,194725317552025
0,180452551905591
0,188902141418654
0,191124287089443
0,200089939417603
0,189990532812683
0,214575955487775
0,18466210564449
0,237799145457348
0,176701576744008
0,247798993472044
0,194390623308131
0,214454314037923
0,219574051348059
0,228865037208027
0,216100672229182
0,229166363311648
0,23059587709448
0,231341887008861
0,219720242570527
0,25357340297219
0,237327082594631
0,257218804235902
0,245359073124476
0,270482932845983
0,246893128927526
0,261141858142911
0,243147196580281
0,279981138438809
0,252528018733255
0,325936656232838
0,264203195903685
0,315453546680926
0,263034812839905
0,27454703395542
0,281175772377936
0,288070630476197
0,284060845022631
0,297537752634081
0,305599189950938
0,31180969942052
0,299544881260467
0,302578968101541
0,319669064541737
0,32783932090128
0,31515235821502
0,344352005681253
0,331517776534139
0,334315881786488
0,313295117777664
0,344901565305785
0,334059907883139
0,352908301419724
0,367416896707085
0,367265981632359
0,347256647801078
0,368495478744738
0,350477729445172
0,389758259504452
0,361488540497213
0,368985943716839
0,363477205553427
0,387570491334034
0,359012009313544
0,404901041471905
0,397721536030796
0,422959147995448
0,392592137158082
0,436015112919263
0,401181417468431
0,428546259909155
0,407529800162924
0,433878676966251
0,416431502076224
0,454385763667525
0,435076842784479
0,440075760625276
0,429176129050979
0,44863603165654
0,435926359258257
0,465527312731932
0,448544796336844
0,48832741210875
0,450061764808945
0,476797312406947
0,444857307510022
0,490706213095685
0,455681984943187
0,489309335405193
0,470781119102245
0,530740722110854
0,493248836961739
0,516631041352324
0,492981751061328
0,548176308279143
0,512794918821446
0,523049023977625
0,501415574028496
0,568781293500012
0,515199686569722
0,536440509671925
0,509799566187853
0,562419635293219
0,540047532831756
0,557970892505521
0,54341864308767
0,582974958422777
0,585520194791774
0,592096401735806
0,564033890248362
0,594777013429452
0,579068930862914
0,605041073215428
0,568782959937205
0,595242363275271
0,59303904168013
0,632733311469034
0,579298322048586
0,620212781595932
0,603963565091978
0,655708615041505
0,600763017929477
0,648085595221604
0,597346391198356
0,644741428218377
0,613399081919758
0,642271737368481
0,630337093378787
0,675775332096728
0,6595917134596
0,715344287531557
0,640558855781003
0,689890214504949
0,654525279106794
0,693407425816687
0,687075916455478
0,689470918916365
0,677136831530697
0,726747191372755
0,689418456024363
0,739310367400234
0,675360072930284
0,709987362137364
0,718100351609387
0,720759159760198
0,720161980509779
0,804287862701847
0,736176197688651
0,756370937136788
0,713767763946529
0,758725994736584
0,733552107333014
0,773187060378346
0,722169294145623
0,766284428554347
0,749623745944746
0,77816841382992
0,790577410247355
0,822529926535057
0,774207520406097
0,826709567899116
0,792789371541048
0,836729939926624
0,777571447539418
0,833128127476284
0,795505598342519
0,840900151840471
0,812240156626032
0,851763454359782
0,797020206904645
0,810245969784169
0,810808243135864
0,868614505603488
0,808093036985621
0,876690093731076
0,85365522723993
0,861055134845197
0,830420652149
0,878577908706567
0,86764101107655
0,931900270119033
0,892727901268258
0,960227283577543
0,846993227162898
0,89590331170745
0,844497681443581
0,912178363221367
0,852202453825045
0,913006746915103
0,882853936845474
0,916793642779061
0,88553544722088
0,945935799337898
0,862267908856525
0,946071165928836
0,915090420504251
0,947969911264529
0,939387048523941
0,982067301010668
0,924869547782132
0,990738426575683
0,947590596870644
1,01480081909283
0,9252373795742
0,991411727448664
0,910847438447627
0,942420026361348
0,9572079621112
0,959471210727789
0,947769739540464
0,987129494112784
0,958220502788188
1,02312160545292
0,991480223345881
1,08966960975594
0,97663071441203
1,03821766797348
0,999573204937308
1,02120557860249
0,988500807547894
1,03237296767826
1,00487376085114
1,06766866354809
0,959911004669721
1,00470454162783
0,964480985195844
1,04297593497544
1,03538331098296
1,09201656488061
1,01418564380586
1,03926490291684
1,0543274782487
1,13313840671855
0,989138721979831
1,00814355958282
1,03683890144613
1,09366601957655
1,02724310635907
1,07558398030683
1,05367610495203
1,05891083278671
1,03547301369984
1,07805762422688
0,987785639979253
1,04235267882311
1,06952499922417
1,06103094316887
1,00930733097152
1,11120359336906
1,01033188093226
1,06862627585749
1,0544446367394
1,0869819432768
1,08984938447045
1,16614240078397
1,07466174326915
1,13683913660015
1,06911025884102
1,07798317163647
1,06106026420601
1,15213981652514
1,06863830513389
1,09194471848455
1,09651223376449
1,10042498401161
1,06637317697794
1,12845113072179
1,10805523466419
1,10202168221459
1,04639379692577
1,10425906561934
1,1270654166346
1,10547612003933
1,10770067035067
1,16780874867748
1,06888898040973
1,13105804544346
1,12694999020591
1,11519325155715
1,05786588255483
1,17453237613529
1,13936237874973
1,10556394452147
1,13516273133387
1,15447134604913
1,10857194624939
1,0967517629226
1,08659931072353
1,17314425242264
1,09467053658361
1,1660651877453
1,14894776404881
1,16208005678574
1,14629862074472
1,11473962570031
1,11615813386827
1,14465105951575
1,10993252363054
1,12753382679057
1,06712930871274
1,13504236000568
1,17073847707808
1,12207490428397
1,05187295328798
1,14934743734673
1,12739153432532
1,12551836982441
1,10960315902848
1,12655444160893
1,10519100574703
1,16299462900519
1,08843960740757
1,11917693893402
1,10478481307984
1,15455193925334
1,17740723592683
1,1473307593838
1,09338346830918
1,11797583097211
1,0935138931288
1,12121035992461
1,0856918517373
1,20630144592142
1,20740230976847
1,10955432892096
1,09282084722482
1,12508845738936
1,13237806240524
1,17674353067219
1,09614544535511
1,09805970406459
1,11684041831431
1,15132653932954
1,1201663308645
1,11405647378907
1,09018284234439
1,12493076842725
1,13204749990892
1,13713295434672
1,15125947128318
1,17398718510582
1,13855400558147
1,15700623836824
1,10794594383109
1,10993288230813
1,07701228943192
1,13281771545845
1,14146091983092
1,12629709752591
1,12379458548341
1,12758546465951
1,08945881699682
1,11089850555709
1,15502275556717
1,12686797546825
1,09560058999925
1,14238562094946
1,1146864438649
1,08414291729703
1,08325996254271
1,11011491509753
1,07262551090462
1,13547006194575
1,1386419074614
1,08106537335205
1,0610365779414
1,09965303806365
1,11991458227019
1,08851327727293
1,08387599255699
1,14017633111159
1,09491330952352
1,08127790693123
1,0755967019436
1,1093643244989
1,08901625626494
1,12400628716649
1,09493963928214
1,07874105438935
1,08970839020361
1,05777838494356
1,05867027649475
1,05934455741569
1,10392951650959
1,11557248281182
1,0944717309286
1,05231588097789
1,01881038755179
1,04753672249325
1,03380378602557
1,06506639869948
1,05171998100954
1,04748152705405
1,04576352315208
1,01721919727559
1,0428408048824
1,06537955360511
1,00743947445405
0,9829533950556
1,01154759714858
1,05435310337189
1,02828948374824
1,02700379735388
1,02258881319878
1,02832927904954
1,00175646564089
0,997685262497992
1,0062932112662
0,997853796168741
1,00217024960362
1,00110460575439
0,999236957529045
0,964727546497993
0,992482749350673
1,04256092277529
1,03762839372291
1,0133334836712
0,976608984260748
0,970272672857551
0,95994908463039
0,935199109910969
0,976451430624408
0,968474929467388
0,931990437279109
0,979519905122306
0,966589249174656
0,931908820722224
0,921492107925704
0,955812807266648
0,940715697024096
0,935701226779332
0,93374034770732
0,916513494811844
0,939830344113415
0,928542391709296
0,934309391418842
0,923655668307937
0,923696034078783
0,925406887299014
0,933637360584041
0,921503890703212
0,915627113905041
0,922271438583362
0,898659834675404
0,891878145377046
0,880760394668775
0,8710126696865
0,853233928499596
0,863775983377203
0,858346869928286
0,866879914036262
0,867880012842163
0,848413321281338
0,876681188393247
0,840174853644101
0,827563058807413
0,833737046889337
0,841996221680826
0,823967726255244
0,818578958315599
0,819862658508779
0,815375075205369
0,830819152869578
0,845917931491655
0,81382264917252
0,806095228893937
0,812240963411588
0,812535542350517
0,793338303831816
0,79763835039002
0,788870055337367
0,790859489685439
0,784552597973799
0,778017384980955
0,772627271780137
0,759505481214669
0,766392737261633
0,770764091400677
0,759905220138124
0,755510087654971
0,745669583837186
0,743852099833846
0,744591107193278
0,756726697275446
0,748137152327076
0,736304496901617
0,730786301420388
0,72709218657502
0,723007921793559
0,727292449043727
0,713137922533126
0,694823810416134
0,704929082304056
0,724861517655209
0,718279869094541
0,710148842176722
0,693911899491563
0,703591966699556
0,69022874274444
0,695785524666214
0,695551838385411
0,679665591353937
0,664371948535738
0,676266853625113
0,678482760823425
0,684808853085235
0,663224280707867
0,653292608833005
0,664358099287964
0,670079090031672
0,648179656298967
0,647916622519462
0,645407191706434
0,627880126280039
0,635570698250181
0,630993741784506
0,630339173080573
0,621539360732492
0,625457517037355
0,633790116022102
0,61992208061431
0,62565092204953
0,609460127925649
0,608162856722286
0,61510201677144
0,619900057040016
0,618235109286876
0,60842808787713
0,608574708168946
0,604529511225704
0,58363699440288
0,595982086405279
0,590273994299125
0,58775370366547
0,597763030105525
0,576662623524878
0,573440937498415
0,582835188541953
0,555481403035144
0,563143236717101
0,562160361777035
0,566355391781288
0,554458204412534
0,553575414673438
0,554632389891931
0,553982229034492
0,542673683230304
0,55789955478452
0,540607119581333
0,540087908229979
0,539184895516215
0,541458869458215
0,531775652659721
0,530592167615451
0,531194286832261
0,534365526031079
0,518997847997532
0,520894559186578
0,504206560178146
0,511390390749763
0,510769589339336
0,518573867745388
0,51009778671064
0,520376108201273
0,509127772163622
0,507095086881638
0,502561621130094
0,492867073819012
0,491382374896158
0,494585838376852
0,490271415185622
0,47909417270044
0,493183221186595
0,480685828232528
0,489134612432835
0,481989229059094
0,476342956180033
0,480981844256609
0,47415075706758
0,470213723444824
0,458656568149994
0,466704309487146
0,453063541818714
0,462159043946153
0,459355697811693
0,456003372989962
0,458685530061527
0,456337647344798
0,44697879378291
0,448148340392875
0,450944038459202
0,437261495369926
0,439272638560875
0,441819298758624
0,423479088441033
0,436132081122219
0,427646542111977
0,435803836008761
0,433448095802449
0,428102404943793
0,416598161907529
0,427381984545552
0,419846823285149
0,416123147715789
0,415534375632411
0,417746457068213
0,419307250761957
0,419246926016943
0,409524606283502
0,413967070438931
0,399587851043948
0,406538018856298
0,399013265166747
0,403919582681217
0,399671760858599
0,401473795203849
0,401387395989619
0,403877835329199
0,390370014698408
0,387291782221447
0,381974627435445
0,378549728917156
0,382727197565505
0,391410475678142
0,394435859226611
0,380443452651598
0,376223446954739
0,387224992983544
0,382882640502382
0,375449533248093
0,386416097041437
0,39322375809265
0,368192448229589
0,371551088246338
0,370725663282448
0,368416112213713
0,370052296488457
0,375354723007398
0,36611355237956
0,372487950738777
0,36908315621751
0,374669466945934
0,36948431215891
0,370844419942286
0,365699223866563
0,364774999459897
0,353147417441289
0,368767277612457
0,368727460172597
0,36873857405299
0,360616787509635
0,376399964982269
0,365939538111193
0,369396312832992
0,367623603399032
0,366263611761878
0,371618747776001
0,368052103699728
0,370602748925531
0,36446829619192
0,371559557064628
0,370499380683448
0,368042958958859
0,374287407484003
0,379440576830272
0,381631212734538
0,376539609241082
0,378874273951776
0,379271723317552
0,378209954525438
0,378760720393493
0,391598990485082
0,387292998188229
0,395228793781375
0,386510714551741
0,393492057982388
0,384298607981029
0,390066706956233
0,391525591458833
0,403931884085453
0,401524365421914
0,404605684573507
0,404778699685437
0,403075957165487
0,40861890090566
0,41956837315909
0,411108134756438
0,421523122079037
0,415139458766411
0,420082180490234
0,426611674390394
0,424285702719034
0,418544353849648
0,425086150596536
0,428539118870344
0,439988919798528
0,434944642564207
0,435447649378429
0,435158743534852
0,448493132880086
0,445259663737736
0,456179939736784
0,44945249313484
0,465563591401192
0,445353790231591
0,464910302243192
0,45834065285901
0,487184769784328
0,470645372511807
0,481457571442216
0,477965189888265
0,484692369371282
0,485690937305426
0,481508659148973
0,48299765708964
0,484124061164601
0,480989731520074
0,485396814509818
0,487857137687999
0,501908432545874
0,484302157114423
0,4911039804832
0,482881107378801
0,501297360310214
0,489569530178497
0,504797922327592
0,488197244798426
0,506111608985279
0,485692066162445
0,488956470047262
0,485003557745399
0,494316002185528
0,486593685612731
0,503630222915606
0,482430056305214
0,498992184835512
0,487589326777213
0,503470494209923
0,487645331348913
0,503595860803145
0,484202211134423
0,499850061180527
0,477896536181262
0,498800965464468
0,48708657070599
0,491239980985355
0,488534073081195
0,498550273276744
0,486998913501011
0,506253974444874
0,495512445910674
0,496425954400412
0,495103512526961
0,501202713239552
0,488492374086416
0,501815901627896
0,495240591555789
0,491660759987796
0,487590752449076
0,505236945026735
0,496248824780109
0,502549515364478
0,499041538859014
0,505472141404217
0,489071278415596
0,499749328342815
0,48467342551878
0,510633494545331
0,488528815805618
0,508975739089728
0,481338388911293
0,490077555863587
0,486177039948218
0,496111862881273
0,48459615013417
0,48357304878265
0,482538563516598
0,486194062543504
0,471884130068485
0,482882722174622
0,469050214754056
0,484796433016077
0,457660811868102
0,47695147284265
0,466639549308598
0,464622154613114
0,455930412835679
0,454575257435931
0,444110314412027
0,456451940437999
0,442699533357308
0,447893580558292
0,439766829549051
0,446322067036589
0,428827203727022
0,440325756762188
0,425406642104653
0,431375244341899
0,423346019707758
0,425689678305536
0,421371448215856
0,417973916902596
0,41334980962866
0,412761050836369
0,405433195133118
0,407681871819872
0,395772992021253
0,39843948623682
0,405047105719984
0,401438933486594
0,384858432960458
0,396457956013377
0,38864093693382
0,39288509396756
0,37397330601131
0,388395925082871
0,375782917145019
0,378372065813089
0,372815162706534
0,370918791953663
0,371459576469621
0,366319589195325
0,363349223070228
0,369845318752902
0,361268870737551
0,364349940687959
0,358431074925187
0,365430704133275
0,34864228025382
0,367060995994113
0,353940748393016
0,353745563026912
0,349330377305758
0,354612625095911
0,337536712446041
0,355533521664453
0,340214071939473
0,343463538909879
0,341411998724259
0,346383612308709
0,334616531754527
0,345158390968904
0,331963313553925
0,345382641607928
0,334093396440351
0,334173198455226
0,328904338876748
0,330200125475419
0,326757388418
0,328796744051933
0,330695131810124
0,327306866754236
0,319938702632014
0,325674539324298
0,32055181388397
0,320367289005281
0,317184240727863
0,32338255818891
0,317708131152317
0,321027628963865
0,318041080767142
0,322201169209342
0,311231835659967
0,312920585903486
0,313333643059513
0,317342679787747
0,307714286833221
0,308156541401848
0,306399891247414
0,31153868889128
0,307800948989346
0,309767445663544
0,30179137637766
0,309193540229807
0,300941003732261
0,307094742404056
0,306430719113668
0,303984193229767
0,296117597477255
0,31201314956719
0,30063522794077
0,30000573605042
0,293737701607804
0,297237134080353
0,29228839699256
0,295961967984681
0,293047364780893
0,298998330763676
0,28963500522447
0,293951034142281
0,293024990627457
0,294064401813214
0,284471030682335
0,292220549346031
0,288731137210594
0,28971797499913
0,288614925330489
0,289183126918141
0,280327879438475
0,290963156157163
0,283884330038671
0,289230158562738
0,287021253868326
0,286114653331968
0,280928280755549
0,285226870903744
0,274664372383712
0,288489089604388
0,279974322413725
0,286352715523597
0,278954277838607
0,285169389769305
0,280548025196337
0,284162377158061
0,275962992969159
0,28088923929387
0,275366053658244
0,282594483356927
0,274754783235895
0,274590211976362
0,277017405134992
0,281295150810275
0,274844283866315
0,277619280331891
0,275587752241639
0,276099690474322
0,272952751314609
0,280667863638433
0,26947545059168
0,277559502768384
0,27526804977204
0,278432422274478
0,266518259248236
0,274600556463936
0,269584892553032
0,274860680195204
0,267936116832044
0,270845606968756
0,270762434454275
0,272143911310821
0,26643297118622
0,272442419667078
0,261667322229542
0,27272728346201
0,263291865403588
0,266823927879401
0,26177254409113
0,272065985866524
0,261619443023055
0,265463853005285
0,262291269435372
0,265970948396531
0,259156739609251
0,270786413349175
0,261610993305558
0,26292365853626
0,256788982462981
0,263320176076521
0,253820926662708
0,26377949257611
0,257988859048203
0,260933580516901
0,253370424419082
0,259541216333931
0,258309817556011
0,259485444711763
0,253960566613881
0,260560522555082
0,252712708783154
0,259168049799961
0,25173439387983
0,256598658125898
0,248038065475479
0,256585904002054
0,250346597924892
0,251180187484151
0,252175367298577
0,254545209997369
0,248237797312512
0,25323582376807
0,248053322815802
0,250792714098063
0,243606769335805
0,244723816035078
0,24302318974348
0,249182337398459
0,244027982536101
0,244561463809811
0,238716052706052
0,246586530360513
0,242468796534373
0,245540495065416
0,237226927770666
0,244728895364079
0,235576594266964
0,244121334947645
0,236304145176067
0,235653333902441
0,234551279815585
0,237544610261771
0,230987029617048
0,235670285244795
0,23055324875312
0,235561272387934
0,228002520197746
0,236015034123659
0,228495720870194
0,230577413103888
0,227459385144679
0,230241345407821
0,225214178654024
0,22992207943494
0,222768677387916
0,227224987369631
0,222019539541562
0,223947404002228
0,222424617141576
0,226924303644479
0,224362840595496
0,221940635134383
0,21591643379366
0,224296672407119
0,218354084303859
0,218534173583347
0,216825916147587
0,220218008609564
0,209013405468998
0,217073127969485
0,211490076117465
0,216417598924862
0,209441705342415
0,210444397187931
0,20862938926065
0,214005699469429
0,210301928429551
0,211006461209555
0,203905081988221
0,209193621862266
0,20549870733318
0,207382644537263
0,201261130213246
0,204769646444534
0,198893228820506
0,207616116391353
0,199877795368791
0,199477188400136
0,198469067846332
0,200910407529226
0,196427743143971
0,202236306356179
0,196586766723641
0,195972131027372
0,194957507464515
0,198093844150458
0,196355250517884
0,196080862034996
0,190108653719653
0,190116796861977
0,188049909274299
0,193141249693167
0,187205370592557
0,193007546692218
0,18843431893494
0,187658386862311
0,183456022382089
0,192354882873812
0,188424595629179
0,1891127260347
0,184482688037574
0,190721360972584
0,182776530608799
0,187525760921445
0,181774726196608
0,184473795085257
0,182456078749112
0,185690571673043
0,179214437896388
0,180432781492145
0,179764802033676
0,182140924573521
0,174833058471703
0,179948524050094
0,175033516168267
0,175200595769169
0,172486803768094
0,177603610723786
0,173602308433431
0,180766221990492
0,173401369525431
0,17463437262317
0,171629907125746
0,176573411488028
0,172454002944567
0,171893428029819
0,170141515072321
0,174252210420268
0,169302502575577
0,173763046239299
0,173146538892975
0,172614958265972
0,163054217847079
0,168906858764356
0,165196666749344
0,173290371833993
0,164471694411664
0,172845095322665
0,166443823778192
0,167880785610301
0,165005501272043
0,169791241728136
0,163792286442122
0,169672424363225
0,162867725007231
0,169017670441075
0,163718602780788
0,164037434383307
0,162206680840115
0,164484949973852
0,162371292475404
0,166449209311365
0,162121605949532
0,165338687498953
0,160433485145094
0,162382874086391
0,157971438477322
0,162324379102742
0,158209226998065
0,158017533701723
0,155747182276948
0,164196250924494
0,154385663691098
0,157216825862792
0,151905715040647
0,160487161227496
0,153295684496241
0,157561221291681
0,153496525132341
0,158150854789774
0,15419539516491
0,15633262913224
0,15245042656798
0,15720433549894
0,15634676961992
0,155468574069928
0,15048051742456
0,15547338532809
0,153484718916848
0,156451603705056
0,150282087667907
0,152375981110292
0,14904862419331
0,152847450704092
0,146990388258489
0,152355433210169
0,149776165770635
0,149457542815088
0,146566040942401
0,152343404420696
0,145026514876448
0,151092164460074
0,147421754199934
0,146492407412121
0,145417925444104
0,148377047240684
0,145523686850193
0,151496989513528
0,146716528110843
0,150231549543656
0,145355688654768
0,146425490577799
0,14131577326612
0,148210859315183
0,143325518175434
0,147886287342665
0,143081707910691
0,147066621013859
0,140244613675296
0,142935933237284
0,139263687233908
0,140290587232768
0,137468585900577
0,140572607849037
0,137674727269736
0,141271275973757
0,13618191645675
0,140328143720254
0,13558843038787
0,137277730248539
0,134425054507021
0,136562777912967
0,132315062679414
0,138783760389311
0,134958714069229
0,13288548300519
0,133222956073344
0,136354601516676
0,132449488443452
0,13661982590433
0,130626697756055
0,13207720313003
0,128504460095373
0,134306073606409
0,129514290412716
0,12941786532566
0,127380504216411
0,128592130236225
0,126340631408782
0,126707613198417
0,123628426606512
0,129231909843009
0,126012842346199
0,128092313491926
0,123631017860349
0,127204954992383
0,121701766679543
0,127374357395194
0,123526829124539
0,126453085393673
0,120564239295655
0,123674017475106
0,118969964295943
0,124433982606934
0,118284769938527
0,119546031458206
0,11965677992244
0,120341886358727
0,116863551085014
0,121083984710284
0,118766898429777
0,117816865858309
0,113283892499654
0,11786181877136
0,1131710364653
0,115688560228473
0,111861703671112
0,11570477553553
0,116778481893934
0,116081923688447
0,110337215924939
0,114433613277695
0,107910261940047
0,11274962349028
0,108767589993195
0,110148610397233
0,1047311505816
0,11034746827233
0,107783733661543
0,111801572027485
0,105619926211118
0,109196959647335
0,10741438985873
0,106841909522665
0,10296333620571
0,107798132495723
0,105002789893891
0,109156885332013
0,104546064928389
0,107874747789153
0,101564620700939
0,105170913013396
0,101247265538144
0,102477640467737
0,0985472013521014
0,101699060893639
0,0989591934105158
0,103602797117401
0,0999622175894583
0,101984764921004
0,0971541060402858
0,101712513282263
0,0970423381567775
0,100231248794299
0,0971480664516787
0,0988172607185161
0,0971698677836914
0,10051888955863
0,0942039447723462
0,0959932484348966
0,0923180457546262
0,0966036200474729
0,0923602113576756
0,0944574884887263
0,092226530621571
0,0960142046764665
0,0912510406388229
0,093671840396463
0,0907421594558175
0,0937362042260242
0,0901597815470225
0,0928570108552455
0,0893122575070872
0,0918151456020898
0,0909844842288964
0,0953618682624488
0,0907176766526423
0,0919491385525403
0,085707128807445
0,0901372827922687
0,0897036348161694
0,0917147073907688
0,0878443145522256
0,0941635647820032
0,0877235035031413
0,0890785449002405
0,0878353989880811
0,0925483832858723
0,0910420383148973
0,0948795760590773
0,0896780131523789
0,0928598024810586
0,0891059459589749
0,0986669627519088
0,0935404826273796
0,0951412307300524
0,0906545628395254
0,100288795687947
0,095258180794724
0,0962824067320223
0,0968249186231322
0,103132482387862
0,0967597071010143
0,101764183067034
0,0947081988181726
0,104559793857321
0,0996014330218807
0,106966275170144
0,0987832360943966
0,0998726958970959
0,093022040686447
0,100215779068921
0,0896266186576727
0,100108571960975
0,0998327240444436
0,0966986340328969
0,0929640269546941
0,0958847099988897
0,0894663374283263
0,0958341730456306
0,0810779163222097
0,0872923637000908
0,0870374051334041
0,0944929742368591
0,087953188553677
0,101430838703584
0,0885297904199125
0,0929992369041567
0,0937829636502265
0,0962330599699769
0,0884393519369342
0,0922325932575925
0,0924209669681771
0,0952525137638258
0,0896475579358454
0,0867765785195009
0,0889884057575427
0,0862331442333452
0,0943023363292299
0,0884322950212841
0,0940110960311792
0,0806261251896759
0,0919900138724784
0,0756098320633685
0,101029956154212
0,0768012613888943
0,0978645296309289
0,0617081202456656
0,10575789046126
0,0714660436093957
0,10854982405502
0,0589906238668053
0,105642677604864
0,0619718100026956
0,106203467791252
0,0559254377587534
0,09698589016998
0,067188646998088
0,0901108399646082
0,073258317969441
0,0856600029813524
0,0802627005985292
0,0790425599764514
0,0826602378330903
0,0725573928514782
0,081470070569533
0,0704923538131189
0,0811958016003226
0,0756609504729258
0,0779216099938018
0,0772839346506878
0,0729902556281942
0,074808135171566
0,0735749941222754
0,0764066949782949
0,0727688244271018
0,0760827819827019
0,0762977910127269
0,0747853102164544
0,0734341672607295
0,0732621939778439
0,0732688680384202
0,0734010119825101
0,0743696383963121
0,0724378915738532
0,0715583616010869
0,0718164588336424
0,0715214256677382
0,0716512261715437
0,0719761405840136
0,0711191644956095
0,0716682234414461
0,07267685700113
0,0708772534970886
0,0701753968869024
0,0711572794446621
0,0716866900247199
0,0686560866220806
0,0683273876478574
0,0723343806288252
0,0722077798501099
0,0719315705199663
0,0696629056584232
0,0718327349997126
0,071314031616993
0,0699770288337942
0,0709588453392071
0,0705351463316742
0,0714249432209578
0,0701427112802791
0,0706486518076692
0,0700510134273706
0,0722629512113225
0,0702209377288301
0,0684284740925662
0,0713036389066446
0,0702167756585824
0,0696076421979225
0,0677749300092677
0,0714694153119136
0,0705504835812894
0,0707013266927667
0,0720867706342118
0,0721344443368665
0,0698735899244891
0,0711588113730117
0,0699943535769903
0,0700759705682346
0,0704520104547653
0,0700870606088757
0,0697375707871305
0,0717013661949904
0,0697484960190556
0,069949437786991
0,0668334904090057
0,0738055443328877
0,0704863464253267
0,0707126072214797
0,0712736953417849
0,0689576351806681
0,0682280707015393
0,071026328474002
0,0695965447016942
0,0692143151078097
0,0695460568951141
0,0719678750415467
0,0695421363918753
0,0716390100521013
0,0709349660711731
0,0713152446674393
0,0687228294724664
0,0716708333851255
0,067058867493336
0,0695588173463651
0,0707139285630424
0,0734301237550133
0,0722591799180647
0,0706873547211404
0,0709672300285751
0,0740212596189329
0,0725540869604662
0,0708193387821045
0,0702766341054131
0,0696838750161984
0,0692172744728219
0,0718029956097792
0,0712975308071805
0,0709599517787407
0,0691945087874069
0,0718085997790285
0,0722497523295548
0,0739116869960855
0,0729198973900975
0,0732715783955676
0,0722547715688976
0,0721572813182846
0,0706045590757798
0,0694950627437974
0,0737449868672515
0,0740302909402308
0,0715573324546726
0,0724282942014558
0,0727329941832219
0,0736118962945954
0,0735204328711966
0,0727932496848745
0,0708420841459194
0,0717162701729376
0,072053474552293
0,0736666854367124
0,0730813603734527
0,0738168173823059
0,0743781081878166
0,0733404769222506
0,0744339180787201
0,0744803264003789
0,0756392206969682
0,0738793764785275
0,0729248277942542
0,074701951742792
0,0710841390992157
0,0743525831515442
0,0727390778086269
0,0745042686794102
0,0746936619999294
0,0741448061028631
0,0737687184627684
0,0744333065392107
0,0728747024179454
0,0752149091198671
0,076613892495032
0,0757245842292224
0,0743949993097337
0,0736781017049113
0,0750517285299745
0,0753944001154269
0,073689474068703
0,0773108462752439
0,0758782856082683
0,0770673176525752
0,0759338110888702
0,0776830078289403
0,0768930484182132
0,0780627662781871
0,0763642095810544
0,0784588581954823
0,0751697801805892
0,0755285112807848
0,0769545405164696
0,0769613560439961
0,0769461127359939
0,0775300231801209
0,0751299258694783
0,0773355706370045
0,0757686106679272
0,0784927539435633
0,077463780508455
0,076831617160843
0,0788162470196017
0,0777160651512496
0,0767900777735319
0,0766521115752138
0,0760237771109615
0,0760039868009607
0,0750973830360436
0,0773630150512683
0,0750697190735924
0,0752176111779613
0,0740752138606494
0,0735378726383474
0,0756564442709006
0,074626372718645
0,0753920204258405
0,0765682486422697
0,0739791854993136
0,0764434151980886
0,0747754063059492
0,0713316352590837
0,0726286419388022
0,0751731491919855
0,0736474544567155
0,0750087387574463
0,0732392966258967
0,0750657673594315
0,0717406575148227
0,0752965803305434
0,0725492172282911
0,0732839877995428
0,0713339621756588
0,0735176962477833
0,0740257796559575
0,073924715988002
0,0725480154075385
0,0752481866805007
0,0729591062130947
0,0714843471405648
0,0716736637990609
0,071718611316236
0,0722444144486781
0,0734785084534163
0,0725373642646557
0,0727239438406391
0,0718162270630331
0,0747326227786594
0,0724725002876902
0,0732786104846883
0,0703470930055069
0,0715109118395146
0,0713802457483166
0,0742997987672037
0,0720021637795262
0,0699293238891124
0,0700952620256683
0,0691956287563703
0,0684331631050204
0,070428235848277
0,0706302387290098
0,0686332258359845
0,070411383731443
0,0715752413101624
0,0676048929660424
0,0723960499023231
0,0687936294182095
0,070198793915561
0,0731122752848005
0,0727796478009075
0,0690392124369297
0,0698166064012059
0,0686281263245587
0,0712793474544308
0,0694505853783467
0,0691035294952963
0,0709858239804365
0,0713347120935684
0,068823605107445
0,07014630056333
0,0696009247563417
0,0704480421987197
0,0695086171091978
0,069141866011173
0,0708206000435845
0,069283091423745
0,0680045657496417
0,0693524930547982
0,0699874386251664
0,0725076667552408
0,0712959057590843
0,0667390182606445
0,0698700276639375
0,0683037851255975
0,0742122637737399
0,0696043225607564
0,0709388856395813
0,0700113821001088
0,0699363636689563
0,0723174138461435
0,068877094166823
0,0691410943399547
0,0680853350789163
0,0681956548096417
0,0678402703332402
0,0703783023026741
0,0687747862883452
0,0681674989879704
0,0677088948229283
0,0666624212778917
0,0657052666483166
0,0669584599596307
0,06960424726897
0,0685610373422867
0,0665490242674619
0,067878736987641
0,0652982201161383
0,0700297296321144
0,0651516929296048
0,0704736872498497
0,0634827951438569
0,0657955317603373
0,0674527373657716
0,0675070171680532
0,0660576520838761
0,0676094133431354
0,0644543772751443
0,0660933522595739
0,0662065653674421
0,063682977811343
0,0662510713177813
0,0645258235092809
0,0645992561706658
0,0660334780054753
0,0647518261044112
0,0645125159100937
0,063103019403535
0,0633622354214026
0,06301608982989
0,0669866656335628
0,0628335735395591
0,0666809843792284
0,0643387887337237
0,0641402199236865
0,0624995671718111
0,0611911187659827
0,0623643307796557
0,061330469999136
0,0591114171255261
0,0613916145733103
0,0621491097318004
0,0635415663904016
0,0602110116378891
0,0608773625654228
0,0597188508605517
0,0600672279188298
0,0599238855489909
0,0597732211799605
0,0579627906339443
0,0592161536912427
0,0605461294832236
0,059677741333909
0,0573208019956795
0,0585055227079377
0,0587809361574589
0,0588341257499132
0,0578992582548025
0,0593865169383667
0,0654210862897388
0,0524092352142447
0,059653931951706
0,0538822099536875
0,0605430064414784
0,0576266095995733
0,0591107852281005
0,0573349237796598
0,0592035454881183
0,0554407287455116
0,058028611641654
0,0552391083715736
0,0579212468876281
0,0558827502183406
0,0580267631814371
0,0563895820063424
0,0581721538908172
0,0561924361974511
0,0562711046551074
0,0565912915941896
0,0587741678844414
0,0572170623128097
0,0582451433437198
0,0574613052395542
0,0568973342475179
0,0562162215984856
0,0587193545579333
0,0560668664509436
0,0537357845163065
0,0565722454810202
0,0579261017764402
0,0556075845478972
0,0540864156769235
0,0574156230301525
0,056935013652915
0,0556526398178124
0,0555828415814877
0,0573189801816068
0,0547098172862726
0,05499041867013
0,0553093698745283
0,0539888475974633
0,0541339503002511
0,050757906207781
0,0534555214122366
0,0540925068419395
0,0528724279261544
0,0552087506148922
0,0516653652754613
0,0549285106540412
0,0527864473344947
0,055370116383346
0,049251264819536
0,0651357689807555
0,0500836889822974
0,0556555929669512
0,0525837496851023
0,0523623620842422
0,0540029136326296
0,0546640797567766
0,0532887112187552
0,0543330051220967
0,0512364886681161
0,0536927673865281
0,0522267451301333
0,0522159638546851
0,0530047757842641
0,0521562450423715
0,0530202665296993
0,0538604440249503
0,0527679192456151
0,0544899885262402
0,0526181170130927
0,0523457980542591
0,0580202344715621
0,0552993529788435
0,0481864814159541
0,0572150740383202
0,0491938355683917
0,0584125348273023
0,0565196283425421
0,0464023676500973
0,055271962574887
0,0482559325972461
0,0572079509233637
0,0504707671167017
0,0562825835410506
0,0467530925624978
0,0605491428446406
0,0484601376618625
0,0572908045853137
0,0528161616974354
0,0549924367035174
0,0530903855974942
0,0552393707516729
0,0515179922209906
0,0538378586200766
0,0499205498652724
0,0529489508762069
0,052422037285384
0,0502726164987363
0,0500593284288877
0,0551292178854005
0,0507317502543284
0,058299706980148
0,0465314800015218
0,0535041591105799
0,0514189286520245
0,0586264424206951
0,0483337477704419
0,0618752667523933
0,0485356409164621
0,0550830948516093
0,0497907563757388
0,0505327205759389
0,0540088155854313
0,0510506437143916
0,0511896003406
0,0505028106455726
0,0509222839129281
0,0502740902968268
0,0522442567470037
0,0510350113855357
0,0522280732925638
0,0528686364913761
0,05415731294471
0,0512756901776545
0,0528447214670197
0,0509492344763022
0,0537634348348097
0,0501448282136472
0,0541743807278221
0,0608704535170112
0,0499023920797504
0,0572494758057455
0,0504728216973653
0,0535315384947754
0,0478972111154126
0,0552373905689836
0,048008034138866
0,0565807864023166
0,049117248528006
0,0547289813833569
0,0534799670217074
0,0557474058333483
0,0522415976464394
0,0541445927606112
0,0497752735653108
0,0532893287871133
0,0514943767668497
0,0541830271287907
0,0513725366340576
0,0546120074168789
0,0528341156516041
0,0528230841305598
0,0559427079928443
0,0491601825564206
0,0548609495823856
0,050223572780385
0,0813998874384561
0,0367064906995245
0,0594636780219747
0,0497471851190126
0,0556391261919621
0,0517979377412093
0,053267721433147
0,0554717544136656
0,0562316067807675
0,0538817143497073
0,0559760454208694
0,0521461021446311
0,0549891357402725
0,0543601086568785
0,0533106393157828
0,0627876791168969
0,0572121208816705
0,0501902468575175
0,057389201440021
0,0478540056221596
0,0688673622157926
0,049234607011984
0,0549398136627786
0,0598806553244184
0,0521780355527017
0,0583073025933584
0,0536471918011689
0,0592162054012888
0,0545301816991014
0,0606869654356043
0,0539087263382888
0,0577912998319343
0,0543293283626258
0,0565978346673982
0,0584755939067078
0,0553110646393111
0,0626528801865998
0,0550621300644782
0,0559362558625856
0,0658450231260337
0,0504663509606123
0,0566113639878701
0,0552738790793216
0,0582972972421557
0,0570413237052981
0,0676378568461769
0,0589484455890101
0,0580474034253587
0,0626803187704067
0,0546034732685092
0,0594393544142604
0,0622361449959977
0,058350287624639
0,0661253247328963
0,0497599591518533
0,0864548680079313
0,0470524976871479
0,0691726216724098
0,0602998725021004
0,058954552617719
0,0609760454994616
0,0604694572544409
0,0640668125783859
0,0606933857781695
0,0714669196492178
0,0514442463475936
0,0702218762825961
0,05492449114222
0,0856637619727999
0,0559950342757867
0,0667027034529342
0,0615567446750059
0,0658371962743823
0,0593668337235613
0,0721488382931572
0,0573791055926767
0,0772920432766709
0,0805663032715778
0,0635949659297694
0,0708662914402807
0,0582005331949544
0,073313004659859
0,0805565860947869
0,0563651834191889
0,0733312590809905
0,0598997061391126
0,0742453839387808
0,0616862434727851
0,0788932441901099
0,071305152878953
0,0639329859555854
0,0718575612320486
0,0673272969936655
0,0698102366116542
0,0874651002039778
0,0611396702028769
0,0777480023061616
0,0702227012607993
0,0808310758006994
0,0646840588104045
0,115217456489291
0,0518567753701326
0,100706662700116
0,0645598209634058
0,0864671009953108
0,072904966967316
0,0814713641037258
0,0761865595035935
0,0886683982875672
0,0821455709306087
0,0804883288511673
0,0804132387550828
0,100965681815188
0,0797960321880833
0,080762385535053
0,0920421903901702
0,0827158290408233
0,0983206099914318
0,103716598890104
0,101954887669135
0,0936046956351771
0,0918948921721446
0,0984957551725246
0,115177430148772
0,086004343485916
0,103469902396903
0,0931366237383974
0,100951855414521
0,0992052772971727
0,103062927885309
0,110582790666992
0,0992935104260038
0,109370314761721
0,101702149251049
0,110578013691606
0,119721069340226
0,118707044547221
0,119660268019982
0,111948158148671
0,143751331865786
0,106757851919187
0,120237935792154
0,11158374774822
0,122015048652391
0,12850035329291
0,120038304438893
0,123297029310312
0,120021359233922
0,143462294319352
0,119935697432231
0,134708328777308
0,130998556015172
0,133937262101098
0,144809103957772
0,127556560672631
0,260672315197015
0,115672105862333
0,164905847333053
0,14114925798547
0,175926708967275
0,153869306456981
0,158076343886041
0,165760135969059
0,174410097204191
0,170579502187845
0,183269735084476
0,18205204660089
0,193074924968385
0,197309636919706
0,195015235917153
0,200123054830337
0,233904717097699
0,181435993436625
0,239877172471217
0,218550522246473
0,227743890372565
0,239487915768213
0,246024100015464
0,234868683276881
0,258187195474928
0,247558553102178
0,278367946127614
0,271601444542688
0,267425153476004
0,281336070718857
0,281944800245599
0,308305504128584
0,285028072569837
0,350188549416424
0,296672272251203
0,320871838015066
0,317872714575312
0,328034445942047
0,339519668735598
0,33420994314114
0,366180513386819
0,341683119706565
0,358194415891119
0,357978254088727
0,367087612941793
0,369687680972063
0,375949200007543
0,386123822361362
0,377783178220013
0,405805450330954
0,363091798437232
0,43613555770312
0,378688024720589
0,385756437836243
0,401821324024189
0,385186771982804
0,419494514119699
0,386431717437706
0,430652157609564
0,395724207767379
0,406868908509809
0,399339157009111
0,397859630783881
0,408006824199885
0,399356774436843
0,41519006598132
0,402509363962171
0,424541616096674
0,392367736914068
0,431921068415862
0,455076941786482
0,404095722617513
0,414850425969233
0,4085349991981
0,410981926151837
0,408147078429591
0,406307382393564
0,412832840377717
0,427958199138916
0,390810173961395
0,416402268638811
0,395589091789595
0,412810462885822
0,381419610101813
0,390337067673037
0,386740924662441
0,380415751490185
0,383422235868704
0,382420588571519
0,386043339555008
0,414252219722031
0,363564901721116
0,37567932859775
0,365853342854578
0,366806044761381
0,367027687610694
0,367474139735156
0,359465041986748
0,367145869685502
0,357090814166139
0,365439215221329
0,350537519336341
0,362682899162479
0,353935766396249
0,367099213621299
0,353360738685191
0,353069855375637
0,347175088541653
0,353697176698053
0,353251830602108
0,354906501161261
0,350040544247669
0,349929253924846
0,348164505115388
0,356041336263104
0,347010937453153
0,351701306500341
0,341785160592995
0,350265484151556
0,345013527652303
0,347371221849551
0,346548242772076
0,34452168904572
0,342737208685284
0,349119953851011
0,342857056726542
0,345101090846629
0,338158776621013
0,343275300679475
0,338374794583548
0,333407210845099
0,3388907057459
0,334414270882653
0,367100315743194
0,3331770574641
0,329370905492001
0,335692711529925
0,320076815959107
0,333549776372602
0,311966912224252
0,342304320105956
0,31495738264665
0,318644897551266
0,311560939371336
0,306323271000826
0,314552968328807
0,313223233771015
0,289315580354339
0,313022728053765
0,292167860721921
0,340638518454462
0,328174031868564
0,304251345648289
0,303964367032228
0,289716148936324
0,286289008445485
0,295624440824006
0,303030923524557
0,27975745137698
0,294527073223995
0,281077324441406
0,302009782446865
0,281975967051021
0,274746770173104
0,285028336332865
0,270108143692596
0,284019101129804
0,283003153040557
0,274747411213557
0,269089303509268
0,283863948772487
0,262226968621478
0,318367196556141
0,254967051373201
0,270541924661584
0,255615515404673
0,263836868585034
0,259742233263161
0,256756769439342
0,277430926674511
0,2441486931333
0,256032090669295
0,244275719712627
0,241803717154293
0,252357989578337
0,245037309228431
0,258027794253081
0,231162873577661
0,2693307425628
0,2299634918548
0,251252154074041
0,229007934805988
0,2450065692322
0,238795607099606
0,231763531610544
0,22973112426988
0,234523004390924
0,242355785127372
0,227694896510305
0,231810699650266
0,227316252908101
0,223159320623925
0,239036503952702
0,211823398336383
0,229748116646123
0,217412037970437
0,227596850108218
0,241471729207644
0,218349474811087
0,222808527418795
0,211321681060066
0,212009982618301
0,219487196810684
0,212126310146201
0,21724492506505
0,212389539553307
0,215546143678553
0,218966687426443
0,207994735829052
0,238002588353805
0,21600563440957
0,220985369317753
0,224083250786743
0,224807595165286
0,236657733258795
0,24201835129081
0,23344822273756
0,237123452071313
0,226624517192606
0,25186477178152
0,232564908057568
0,245298195735599
0,240046039142886
0,253846116625569
0,246953423179298
0,263103279114664
0,262611511017767
0,269178529667036
0,271057844979241
0,287082508806402
0,280889477327459
0,310354727356483
0,286408435129144
0,324439202476541
0,29946538002056
0,319757451039425
0,324473136921263
0,321257743744238
0,336632963950137
0,336208540794745
0,33809195078375
0,348294875107618
0,34843747439549
0,36533664229191
0,349631382637503
0,369625629853978
0,360941174682907
0,369835888242222
0,369337919896085
0,391320195875586
0,388865823297697
0,375064631283296
0,41265890615268
0,390331701487433
0,399131686334173
0,395071631674561
0,404571379759522
0,402529891442538
0,396638742298137
0,408236159678307
0,403205776687209
0,422862162481444
0,408221824480391
0,41035169373727
0,413413317823706
0,415681313263293
0,42439305944208
0,424914186127212
0,427141304719129
0,42928030045803
0,431020673283125
0,439447771812163
0,437092374071343
0,474600582429879
0,445639639641491
0,444310086998712
0,454559989922912
0,447186451529241
0,464415241357743
0,45940788124506
0,468579506163859
0,476728904309869
0,469432174467009
0,478180451357007
0,483565279275947
0,48948192131598
0,478984186218745
0,506033547188038
0,484669927913481
0,487239859649295
0,497614268945825
0,499996540711121
0,540288060596601
0,496047802124583
0,52182950917928
0,508232633340289
0,519993989923833
0,513058180212042
0,516108721734169
0,522536806350717
0,526113516402626
0,522168423442792
0,527355299746948
0,517451913755712
0,517959589983502
0,528454207802033
0,518054998490526
0,535313334436792
0,524263756560944
0,521200410158965
0,51989354261688
0,520687778171005
0,528897904225095
0,521544815236135
0,539153491745972
0,52643337575814
0,523967435275807
0,523141682908174
0,535521673833598
0,52544894224221
0,521923961964866
0,526811944730906
0,528346883960498
0,515906643019826
0,532856747319953
0,520495548012936
0,539799457760127
0,528349601761326
0,531453027993511
0,531591704657652
0,540970199362641
0,541934105841105
0,549991720665952
0,547419100816439
0,558113478204284
0,557113173119554
0,561079767297588
0,550338676684443
0,551613117531161
0,555540150783388
0,551008967884843
0,559989265494168
0,552363861954661
0,542509110445017
0,557369757382323
0,549866152207258
0,551057642917288
0,543232166775831
0,544817653963648
0,534491786274551
0,536351071003924
0,52738954088672
0,545255827635087
0,530120750979863
0,515966149698347
0,52000476308583
0,505529224761592
0,513496991129923
0,506337578704983
0,504197546306282
0,503531801709193
0,504696250467693
0,49548295789551
0,491956731061709
0,488536410051415
0,490174046635061
0,488293407896074
0,490787175345297
0,485124713030407
0,475906908961011
0,47724777534916
0,484182511482937
0,486000072667363
0,476907400986061
0,480222975864719
0,482508023733153
0,484229652993367
0,49053688148876
0,474711405508476
0,483217261357857
0,475514375288262
0,479898954208201
0,474926707686001
0,484558508982222
0,475289528644532
0,475442960045797
0,477052715969882
0,482545775336377
0,477457653106342
0,473321065209107
0,477949243016524
0,473911527718544
0,470166645420019
0,478456299189081
0,474519612025534
0,471940404702157
0,471560509322223
0,474272160496234
0,478895658127952
0,472307481344307
0,476066432326647
0,47308955909855
0,474923768326195
0,475385458376924
0,480564495815335
0,475121476952912
0,475946581112211
0,480635266153441
0,47590010241356
0,47332755053199
0,473891093453947
0,472894620276244
0,472627634914451
0,472795298995058
0,470876055377151
0,468908079807017
0,470030392886892
0,467705333232449
0,461552012320704
0,457328093564077
0,455961700621125
0,449975897126129
0,448296200032748
0,445448967309943
0,444096623241544
0,43867188796844
0,437043351726739
0,430766005954223
0,427072604840365
0,426988324827235
0,423851807724673
0,416445947919091
0,417401038546287
0,41683730873917
0,412170539236604
0,41155877764848
0,410322466208392
0,408072330598784
0,408174337970572
0,409154191939526
0,409565742551209
0,407937693948096
0,406941565442045
0,407172906935362
0,406582184457126
0,406809857607499
0,411432546130495
0,409889572739674
0,411367249909835
0,410061620574916
0,411979818431811
0,412532687195746
0,418821395400886
0,423543201803003
0,421842566770372
0,424064527318076
0,421996974914554
0,423991330863479
0,42783821617889
0,430768094969984
0,429801350534276
0,431589610273649
0,432246338396257
0,432760677039964
0,432307852983017
0,435702564183252
0,435695526731816
0,43561362814431
0,430857597519073
0,429973857929292
0,430396791730081
0,42726812271044
0,428903124809971
0,42758669592639
0,427194522267763
0,428074021091994
0,428285074191691
0,425429217950866
0,42127617085055
0,424668720011735
0,420224899280543
0,418477188989462
0,415913742762359
0,418367775140928
0,41636778128059
0,412056156460141
0,410809104915927
0,412555023352645
0,412935780795887
0,413880546570583
0,409737829634014
0,408151293925975
0,408800616416907
0,406968339567284
0,406280374335207
0,402864266309758
0,401322446965097
0,401839559693425
0,399759283201115
0,399851225416448
0,399280187914964
0,396337258187397
0,394794868549659
0,396653110759887
0,393344725918957
0,390868117237408
0,388157912146064
0,386076495546283
0,383143980826487
0,38227299927258
0,382625269508307
0,377345398625397
0,373175505489043
0,372532976433716
0,36966098489632
0,36939806929111
0,363323473520893
0,360808136565988
0,35675660630119
0,352468020860361
0,355090174073606
0,352971348299802
0,352195615935538
0,353123871993285
0,349139420204918
0,347989244168132
0,349854211604063
0,348268393295076
0,344118033811786
0,344299445990781
0,340700918064165
0,339397356720038
0,337379562602644
0,333513462017829
0,327165123095042
0,325125803622991
0,322712753487568
0,315047866493508
0,311909789751263
0,30944076427673
0,307982180001735
0,306865451950005
0,304506659007226
0,303852136557054
0,305679735211366
0,306599388242465
0,314451769473127
0,320529299814926
0,326699696741233
0,334050182990314
0,343992962504735
0,355122919700033
0,365773379593336
0,380201219326826
0,393358633442135
0,410968402151353
0,423385281604328
0,438626741756413
0,454708799986694
0,469787684365262
0,482951889451823
0,500171838869789
0,512772531876925
0,522542758209691
0,540411563248399
0,55592400409847
0,562456264047116
0,580070023763562
0,593362410524181
0,60119500845445
0,609546799474931
0,625793133082246
0,630415101711367
0,643667070107141
0,652099409318961
0,658974796961624
0,668061144969547
0,67485814381136
0,678027511579689
0,683159846597528
0,682919068573406
0,686550335688767
0,694622788630915
0,697243942902817
0,698953146427999
0,698519065858389
0,704251330277163
0,70418499936414
0,703778193390705
0,703625682642977
0,698006677066235
0,704635419931272
0,702721150060492
0,708458824748073
0,711362462186986
0,716289418503308
0,725268996222652
0,727091925190034
0,726474761216911
0,734928412094737
0,746339925046652
0,746796871989689
0,751910282787665
0,757098559730066
0,762655484043139
0,772638064023197
0,789392004694358
0,801346887989669
0,812907605450822
0,825469450613198
0,828254843520675
0,837893410922473
0,855093725796506
0,858685819868197
0,8728829635935
0,883602380396411
0,89054048892747
0,88994917928057
0,888254205628495
0,90026459045481
0,903690575390709
0,894708231802327
0,887620969895119
0,884118849346713
0,888415340139074
0,882200815811026
0,880313759033443
0,872046771363038
0,882820966737412
0,886713052053606
0,877158192874524
0,896709743984062
0,899575456966616
0,921506168710971
0,938026641932304
0,939650806054856
0,966791490866533
0,966898669074209
0,985007108108744
1,00511340670586
1,02544342940975
1,03106427409993
1,03729270670121
1,0613155676203
1,0799753033154
1,0853076152769
1,10461035536634
1,11826244583271
1,13223087090761
1,16534168844323
1,1591779633185
1,19702927098999
1,19846235889079
1,22274441927646
1,25791199068428
1,28286971151864
1,31293002452268
1,33219276675389
1,33866512716555
1,38332585502981
1,38483068415541
1,41480257503017
1,41979373917112
1,40495147978029
1,42928957820131
1,46285690322449
1,51511008283459
1,51451085043553
1,49211086115241
1,5160076012912
1,56621949545042
1,47204351100975
1,56416034623828
1,5335948181077
1,49376875491332
1,49508658975921
1,49702266291705
1,53116928545934
1,51159095553943
1,53409869262859
1,50132950960828
1,50420402913766
1,55141304123731
1,52016025934741
1,5626434322725
1,54213853733757
1,54835761259522
1,54749494443945
1,61346292716869
1,62394116252322
1,62650308590983
1,63128476944962
1,60741707859718
1,64559507451469
1,66153891698647
1,65183014946168
1,7476656653681
1,8608666808834
1,71717822713839
1,72138802612348
1,80546645541719
1,70840157795402
1,8256543654598
1,76105893677871
1,86691956959863
1,71526147805075
1,8759965629041
1,73803424320395
1,80986100343857
1,87398513277067
1,93259559913422
1,83650193335034
1,78958386115021
1,85385505128255
1,96135761515418
1,81414165429468
1,97781796117636
1,93632859007282
2,05231373267845
1,92826840068416
1,85162669046364
1,91266112194029
2,03475363295449
1,70380326210311
1,85448862929741
1,84122000909768
1,86937346350235
1,86593191555822
2,04310137163578
1,72560119081069
1,81094933030281
1,69255631507917
1,70611230807323
1,62900005434836
1,5399662701672
1,51244888209919
1,58645466693506
1,46060736276972
1,43876225491968
1,42224613391195
1,3458210839936
1,34763632625854
1,34473249842733
1,31400025802179
1,33187340180752
1,29670682981642
1,2877188031323
1,25281316319013
1,26622397429333
1,25148360595512
1,24138005381286
1,23996396921852
1,23127490119706
1,20011302958361
1,20431585470729
1,16499671376624
1,13982208436619
1,15405148547014
1,11035035381017
1,08410798767811
1,06461807465056
1,03586963433448
1,031965605104
0,951510997418765
0,943632104675121
0,912438311553405
0,864310201807448
0,840570071583824
0,782245034290455
0,752083869633283
0,729409072874332
0,690625882508319
0,666553989208755
0,63499462740978
0,612997520103398
0,583641934768903
0,561684554574405
0,551828154431544
0,522947850442494
0,507050935225604
0,488040658617257
0,472037352439715
0,464273049645461
0,459553932030768
0,445982871199801
0,448235186108177
0,437724872986726
0,431662969897962
0,429510562265681
0,429257527139075
0,421933176664862
0,424461723379816
0,428619097726034
0,421230476058533
0,421151097747851
0,422823815989841
0,426041138523361
0,428694663250681
0,430161024107374
0,434360833620616
0,428159358279146
0,422276889999082
0,432586286152761
0,426942231609529
0,420327058051264
0,412837277591568
0,407077507309973
0,404820756984153
0,403877146665806
0,395787105508854
0,395226236926077
0,391422757725699
0,389163703839383
0,384519344551518
0,386262987579795
0,385728523983345
0,392007480925377
0,394680128530277
0,397091019971391
0,39816239422715
0,401025909028286
0,394294849415351
0,40735910917738
0,401588364604134
0,409594135679646
0,413820032268207
0,413206609593873
0,413857019966851
0,41841217383178
0,414507147997837
0,419410090875184
0,427794457414243
0,422884531079316
0,421791903763101
0,419803463749781
0,423366668802922
0,424809885550522
0,421857918816845
0,429451937687246
0,427666157405121
0,444371882844562
0,432591911280976
0,442196537967614
0,449000451266274
0,445637204766872
0,461348303699171
0,460393432827321
0,480719483003538
0,487182272737365
0,493791809459908
0,505099380326751
0,527682820225628
0,527562513025027
0,539589070998401
0,545799081951926
0,551922287514934
0,565768189874222
0,562768588910728
0,566293906057543
0,568919147824754
0,561985103333394
0,546230276947616
0,543249546531286
0,529943115064662
0,529546911685958
0,513944533476689
0,517577212123106
0,50955677827864
0,509688913981206
0,492471254822284
0,507546529027845
0,506403669401177
0,5003496556828
0,492955221008178
0,50979302418749
0,502828112374442
0,504287205567585
0,495288896143218
0,505397181311993
0,491877150154796
0,497334469987822
0,481577313521831
0,486961239493947
0,46559428990427
0,466096330418666
0,459997720426365
0,465268502408337
0,448184507287684
0,448806132372295
0,448230519653689
0,445169357950064
0,442151367374857
0,44783698321902
0,425484810019495
0,436609791293746
0,430689676889752
0,425238779244334
0,422701499449637
0,41869196393067
0,410859122958828
0,425919239184383
0,406894267906444
0,419781690167415
0,417179858985266
0,417974470685365
0,401127551974443
0,403114046669759
0,405259101447719
0,400373687390667
0,399675913422685
0,387431531465334
0,394298954736353
0,386625750734056
0,380426989459134
0,391552413350099
0,384981889569398
0,374418055976459
0,375928548910279
0,385197854738358
0,375111038379022
0,378122378101055
0,36754487146539
0,362924865319507
0,363915468082006
0,362485959224479
0,345033935212092
0,37019840579517
0,369918493878567
0,372605159862971
0,36176713411735
0,362253462712172
0,361528252185623
0,367614810507397
0,365579710285326
0,372555318210829
0,361881463980508
0,369378439586719
0,373697284279813
0,381033405440003
0,368127412226803
0,387859459105916
0,384792097146641
0,391147687195472
0,376246222223389
0,386646097183286
0,377189597968997
0,396143709735352
0,382286159767184
0,404876438483984
0,402590533029778
0,400386301935117
0,418258711151265
0,42599453494891
0,414104296134874
0,435088731977322
0,442727858441141
0,449052351509415
0,451462064152735
0,461942549251717
0,467370985364672
0,481590022707658
0,512347296474168
0,508739835560487
0,53004539388574
0,55301563438065
0,535832332379577
0,569709828681501
0,556046832757364
0,632645930960696
0,623465351709308
0,625497378162175
0,628258810243858
0,652190177741706
0,631388890698032
0,665225569450222
0,64514042761983
0,669803708227018
0,65091758073366
0,661547793332745
0,632629740089727
0,670489893482873
0,62671513486407
0,64183249721248
0,645900277071436
0,660449182508285
0,660954961501677
0,631657706741535
0,626692495325833
0,657757324798932
0,635634129869425
0,631730382610192
0,605969331835175
0,62022177354599
0,640208688178276
0,648969356221028
0,583439424478541
0,609563581962592
0,590959277406603
0,615003113881721
0,55925322404587
0,585852196797521
0,588962264931842
0,580333824539692
0,556215728771017
0,55406236662497
0,52078153435419
0,558627536080422
0,557293848263613
0,545959679496161
0,53433849146861
0,565424641796091
0,555119857594814
0,567489550103394
0,538091031418256
0,549277767798943
0,524023086059338
0,582751765785422
0,551673252233018
0,581768528381014
0,566996372717188
0,564471930212116
0,566296205894319
0,59843520969163
0,56397304939508
0,599977278146553
0,602964483502125
0,583989162048987
0,552607778439843
0,595558037979269
0,568109676562664
0,6224091280551
0,644351865793527
0,632016396640971
0,542559567959112
0,594164478791335
0,563704432226264
0,579146585549639
0,566478401622331
0,674962431710432
0,614134571217392
0,655958722701231
0,542529714476768
0,600053327301268
0,573364581008381
0,679145803997781
0,596537960328485
0,700181917758698
0,664441500707712
0,764025978277912
0,708167719157537
0,681590802334573
0,740051741927858
0,81709942341337
0,746306371986764
0,708598297160634
0,76337511333047
0,811617260952958
0,72282542439663
0,811148932702504
0,682634824951661
0,972540629440499
0,715080120347021
0,68111813982247
0,760697402444549
0,94370529729952
0,713797670373142
0,841682273372889
0,779433750528739
0,738665465344407
0,719402524004359
0,957842637994578
0,835872954203266
0,782641304795094
0,780815452076343
0,898463799932939
0,635293409873945
0,755417462521775
0,611255707853749
0,790257864881852
0,68039394055115
0,806137228351681
0,693312819170318
0,650030465753206
0,804736422974359
0,761999638021229
0,687945181808964
0,733027496529645
0,787388407482663
0,881594642967889
0,767719104253942
0,853611080831971
0,697231751283808
0,795910226954936
0,840450359670291
0,833385989669512
0,745239335604041
0,867354490661494
0,633055681295143
5
0,955775279040314
0,857604367964612
0,771833755678692
0,650389863336747
0,476369057691955
1,1441502408458
0,76117152035132
1,12218480264227
0,89515703974683
0,976027899088203
0,983703983328876
5
0,933554936427961
5
5
0,909527868971374
1,18150199839713
0,587283659749368
0,508432509160012
