3596
4000,36533379555
650,420452594757
1
2
2
0,0465599880514025
0,0463441708086681
0,0405904890873539
0,0374242089228539
0,0260123908013205
0,0386014721588964
0,0368270728272801
0,0367243272982083
0,0385043524420813
0,0430855946601104
0,0351459920356626
0,0494978872179911
0,0448331858305134
0,0432773780005896
0,0371172416347899
0,0484536210165397
0,0282443142617107
0,0478031002011334
0,0440622109048993
0,0449285070683397
0,030650352981793
0,0372118849385066
0,0340069553958582
0,0521427731894341
0,0405480764472601
0,0423551804652244
0,0401128439552384
0,0440687046679819
0,0451516026686048
0,0415057311517847
0,0425972159905454
0,0385331525378154
0,0373992440065111
0,0414890919471412
0,0326899492896311
0,052487496834726
0,036431763861395
0,0390530647540752
0,0489785445753906
0,0414627796100471
0,0329181710960366
0,0395946446595456
0,035012843314266
0,0447307565829689
0,0428197093583351
0,0396835483786296
0,0361425743315568
0,042032719601367
0,0427521598224873
0,0431207432156984
0,0342826407420293
0,0394793836546694
0,0461815026235268
0,0373449249908491
0,0487920298163514
0,0419295371660015
0,0384306586112472
0,0453307163429523
0,025085574677663
0,0373657089883302
0,0358353288481028
0,031478272419473
0,0439092389029101
0,035009196099369
0,0389787618825244
0,0408171406467704
0,0458224410840051
0,0266725191684968
0,0503778641504833
0,0337172334462098
0,0412111297753565
0,0454744932076504
0,0285633648175273
0,0515245948191637
0,0427331812076362
0,0351530640895158
0,0406737668930258
0,0348054569607404
0,0432368965429488
0,0393759834270787
0,0372927213189019
0,0281115784291932
0,0327106751003791
0,0376422624033991
0,0551822956999262
0,02008311101876
0,0452970024895435
0,0430032356104757
0,0307517253614882
0,0336862499589572
0,0306413815845024
0,0284717680059785
0,030236642381526
0,0404644071497043
0,0390265858886095
0,0311145827891101
0,0300310421130448
0,042118060920545
0,0404600267182722
0,0424681758725993
0,0150758033084499
0,0764510978753168
0,0139307585900605
0,0677057746608493
0,035011184319481
0,0312990363011391
0,0518171768180595
0,0129702842300923
0,0433737474748329
0,0280958741540388
0,033851668215855
0,0282974232677538
0,0551040364714166
0,0258806527023933
0,0458439536751286
0,0431472448523123
0,0346354818415784
0,0335829594032737
0,0342611615860554
0,0296357979412825
0,0315511487436953
0,0527503412022838
0,00505725999389022
0,0442082406167868
0,0303184574867659
0,0278760115806826
0,0330263516872447
0,0344939157192648
0,0177363727039102
0,0348936959161678
0,0229455741300793
0,0336551546646189
0,0244188700882246
0,0628938365560885
0,0138763929386294
0,0311850217705291
0,0396970504994192
0,0427506097534186
0,0592669109683946
0,015208208962678
0,0366523400466786
0,0330552776861152
0,031816115012815
0,036816793376334
0,027627016375393
0,0283027723188551
0,0477426079135281
0,0293182602173551
0,0219182597036379
0,0458957588281231
0,0243264261375237
0,0443478422623402
0,0376215414045525
0,0326573310780305
0,0351672112957999
0,049975108788818
-0,00946761771393733
0,0917676311516057
0,00108926714773565
0,0468525390005699
0,0215343822001101
0,0380306318651304
0,0286333248889971
0,0357785492699454
0,0349155709386036
0,027408630693958
0,0458387862362874
0,0250996120465782
0,0412743639243664
0,0357843964155008
0,0492879209886335
0,0230771542282222
0,0556669803118105
0,0232123203489511
0,02170934932796
0,0464059552652356
0,0229400336199906
0,0333767019198815
0,0283790087860318
0,0578253260438417
0,0164327975231305
0,0443259925417968
0,0291436960439111
0,0358865469203073
0,0353899484288311
0,0443040437204426
0,0329540543369828
0,040796965211496
0,0207897581032201
0,0382149405405796
0,052033693595266
0,0549157475863619
0,00642747635490966
0,0490537175721738
0,0281273386811043
0,0348720800741684
0,0519490382262689
0,0252096886147132
0,0435062279883143
0,0310144029515782
0,0376353153455674
0,0309070233384071
0,0336257422369396
0,0391647144869545
0,023539623533102
0,0462184610403062
0,0221790736058235
0,0472177088147093
0,03736099455981
0,0322853207971257
0,0347908567719341
0,0324359577140273
0,0626390366349837
0,0154645776914671
0,043383994541675
0,0310686563303208
0,0468482686991058
0,0274727847359333
0,02756513440532
0,0323254823017048
0,0339946355945664
0,0325587325516139
0,0411450278463285
0,0360910396427742
0,0370880084532551
0,0385348055427813
0,0393987921611473
0,024891258354502
0,0326261217009387
0,0426352119880864
0,0309869558704165
0,0246927558669961
0,0432713765791741
0,0312867408809363
0,0351830063690788
0,055895864489909
0,0236619541536988
0,0405613752368683
0,0315246399267695
0,0310271694630632
0,0285335476065595
0,0343874420153994
0,0274947403523134
0,0485351634914317
0,0362391378611697
0,0505556771057032
0,0330791271428045
0,0362186580042062
0,0331213984276671
0,0269140702838574
0,0535684484444365
0,0181630423973353
0,0429906700839568
0,0314874809816667
0,0498673407760618
0,0207553553035772
0,0590804818439245
0,0266840912988547
0,0300789421277801
0,0329616893155836
0,0514729608184327
0,0291579685580533
0,0431627334250591
0,0286394382130639
0,0598403414363801
0,0309097374822782
0,0194473973986247
0,0447812647451585
0,0365897145962007
0,0199654087072344
0,0597517245583037
0,0251048484560286
0,073591830462354
0,0449842724579849
0,0453147690106682
0,023125590050665
0,0545151499762302
0,0402687327311138
0,0405752755404651
0,0414581206547235
0,0203712808972497
0,0643626072022862
0,0260588673828985
0,0658049259123267
0,0503457304233867
0,0363034699465552
0,0728596688477048
0,0225391512636756
0,0490537474808183
0,0242684824228322
0,0454948087827673
0,0362790573198059
0,0702018865397703
0,0274108166003662
0,0791595541919397
0,0166844116403408
0,0720801926843035
0,0309325827652169
0,0339856786948875
0,0319514237129713
0,0643193819622248
0,0395437091941165
0,056512857287365
0,0332889041283122
0,0450156266563559
0,0473305216367221
0,0452820276878526
0,0493575029996502
0,0833802282470863
0,0307471587700814
0,0713969387776654
0,0310548391289269
0,0529273103725144
0,0432531034179822
0,0416140299276631
0,0387180868692897
0,0493565042640088
0,0347472185033428
0,0543000740685937
0,0447711718417965
0,0421829848934876
0,0525880998319971
0,0446059686038287
0,0483914658738901
0,0493960096543096
0,0425045281627885
0,0511086777472444
0,0507324927166204
0,0513364825636459
0,0447568244028668
0,076182984047462
0,0393242764749937
0,0525106231530506
0,0704842653606879
0,0366288898071595
0,0532680556806281
0,0430562862352761
0,0562173673376665
0,0502398764241963
0,0585801888992482
0,0647717348483229
0,0519143598324834
0,0578432101267057
0,0571710091668795
0,0593039150564001
0,060941138514495
0,0731459426956458
0,0699500244635851
0,084604284940644
0,0524325347795916
0,0667509855834168
0,0472762017235197
0,121493217924528
0,0447337550125077
0,0983627364571183
0,0378231088154661
0,0733226201247323
0,0707688318923551
0,0640026769535596
0,0718233052733242
0,0696250082556255
0,073656909116214
0,0730579235712221
0,0786310084985858
0,0785103879492727
0,0802847417951541
0,0682657542425014
0,0969305482489936
0,0917537868323139
0,0788021580874853
0,0892142094485762
0,0842463964090321
0,0849904388638475
0,115805553266962
0,107597904675707
0,139795576779504
0,0733642400827039
0,120270618289685
0,0903236485844435
0,085373370355505
0,0992616440618585
0,0950682278232757
0,116810713120489
0,102616150388349
0,10974476326574
0,107665046517135
0,110821063339408
0,106253390621387
0,129033549752156
0,113766924446583
0,124249402282622
0,114855655105233
0,139115028988544
0,117784679749343
0,153571536242102
0,124844587742855
0,18429568653929
0,111825489291426
0,168573421737732
0,105822634843317
0,151367029670619
0,123409541725196
0,163063862827833
0,131735915585166
0,158230770667506
0,142829732763615
0,162233447979519
0,150097406515167
0,163382292067438
0,156899341362553
0,168952043490277
0,149145857255857
0,184447693687736
0,148890209831225
0,205265393193334
0,157871055451271
0,180094258115728
0,162685310855398
0,207886912858412
0,158811019389403
0,214584707652046
0,174021507735638
0,194605524672508
0,196979482771148
0,200659113878633
0,206721886945216
0,205469288343484
0,205767877210934
0,219183326084579
0,213465266458251
0,227963588426417
0,208610109017384
0,229012300390844
0,225743233097906
0,218601740750246
0,227096411401871
0,23377143030808
0,211713366203521
0,257558831171246
0,218486463064063
0,291494382556405
0,227473970957347
0,28540093792837
0,22474453461777
0,245940968165143
0,259979346584734
0,2703294428908
0,252955916861903
0,284140552376812
0,268232764855747
0,288788377809676
0,276500873590249
0,298782765900033
0,288832169686925
0,316558271185965
0,283067114189628
0,317245176918221
0,304694225406044
0,317554179418404
0,289316905846328
0,333635742152152
0,310602165209711
0,38373525671321
0,308757708193714
0,361233193324068
0,310508120915993
0,338098343642185
0,341940541570236
0,33563253025931
0,328135452586053
0,367418674317064
0,347885841575652
0,381654583752961
0,358034900488857
0,38151785261162
0,370831229500108
0,392325407621209
0,361265340668782
0,419204630947657
0,38704394544198
0,395995477391544
0,386295864512987
0,422300773637542
0,414800515081421
0,432144407281218
0,401766558960675
0,431423422411423
0,41884556994139
0,4561492331781
0,407271766318154
0,462318251792841
0,41295186327363
0,447086776943428
0,416387013567726
0,488089868208009
0,43789773671187
0,477289967679102
0,457951979174182
0,514649089149655
0,473400267906268
0,509524003480951
0,47403772742954
0,536456413937346
0,482108346343577
0,549724121187614
0,502776938471036
0,533164768801945
0,485246720160394
0,554670939953008
0,506609569298918
0,544788648088747
0,533157281087244
0,555964758657568
0,522919694947352
0,559111722612687
0,561797891901726
0,596242018571501
0,542899886007511
0,589747385009286
0,581178377200116
0,604639994424989
0,574894309967428
0,635144557795168
0,576408335347817
0,636548321937773
0,578979162642532
0,651455140050118
0,578635960730679
0,635824410329857
0,579203834928839
0,656888823412688
0,619841432468342
0,668904765967925
0,608718126322184
0,712530006441301
0,633568087596426
0,649668390178127
0,649629225329602
0,691486102604136
0,67814377877772
0,706972271398091
0,672077102661071
0,720230658101002
0,691237524257711
0,768188970317536
0,659954415636067
0,736412477704571
0,676190886838553
0,782602072491152
0,678535406518055
0,747871378812033
0,735671102931238
0,739207653040875
0,745243182521416
0,745429299128929
0,731098879713969
0,777980952656785
0,72362948005539
0,792954622437812
0,748009572654921
0,834616490049305
0,735753555004982
0,822274125287291
0,768496284283425
0,837762075630677
0,787456163337367
0,815542571514498
0,821457018897086
0,835988066908095
0,777090900541557
0,857509771094797
0,841101284712736
0,906232993203057
0,839352812895059
0,876455333084672
0,819618982843398
0,918627639278867
0,832273805825269
0,913150508020545
0,864545379447059
0,90268681708343
0,914476407130958
0,963901113576033
0,850736913061669
0,964988495971784
0,960124933173394
0,984148938402179
0,862491921596297
0,966807523076019
0,903939165970498
0,991365392936369
0,892661732899698
0,922031629807777
0,932212429702893
0,994189030327454
0,961664962628883
1,04098102716503
0,915091214166857
0,994525896868187
0,931664629112801
0,990067176212688
0,951752704014145
0,948154317564031
0,929899577879461
1,0874754365143
0,954598462675563
1,07336539425879
0,971875375829115
1,13421839388326
1,04153447980359
1,0551863917081
1,00646511335743
1,10875776728015
1,08311348940935
1,12939176632172
0,982573703723747
1,11767295067457
1,05561410824966
1,1194319431316
1,02500908714293
1,09705745058247
1,03639529902212
1,20119313189561
1,00759603991181
1,16810895524602
1,05356891387453
1,04811384733874
1,06855222655828
1,2306603778699
1,12337069972163
1,14082207557119
1,06666676409463
1,08899186544405
1,11795736073876
1,16399996873708
1,11604248975962
1,24425697922992
1,07465827069049
1,20895779556019
1,08126845322625
1,16122282498403
1,14955940633149
1,14241487901938
1,0714965972976
1,20873232266726
1,14961166187369
1,2056792860743
1,12383980207827
1,19710068564832
1,32022316404819
1,17723393956415
1,07690306049299
1,20010663767913
1,21951623209219
1,31450742821017
1,18251950074299
1,30010813652498
1,25082307453981
1,25896422677367
1,19144473215051
1,25422812940288
1,25043032733983
1,29949440007089
1,20808282163768
1,1775183346604
1,21851785860218
1,23006069176108
1,1161620550831
1,2596250030295
1,19389144871362
1,22905158167404
1,28923790576553
1,39979497312083
1,2410226089925
1,26834949815318
1,23619487272785
1,27068967120624
1,17718474934164
1,27857615186564
1,17707071498638
1,34153161546528
1,2864339025114
1,38897844308761
1,34628519081793
1,39686385887704
1,24405693670902
1,3303656942391
1,31717750631926
1,3661503728578
1,33088657305026
1,45039503733543
1,20837694765644
1,23696323140575
1,2159820737128
1,30190284823229
1,27751390313145
1,36185062349312
1,3351339287982
1,2368206060791
1,25890449424092
1,37748625006181
1,26796039072706
1,34593674064658
1,29514207158828
1,28757301761647
1,27805778486234
1,31974868488405
1,23663741992326
1,28632589848791
1,22129954613331
1,33768802360838
1,35770995897527
1,35955450213549
1,27551678056482
1,4098015223088
1,39447430516429
1,37259999932535
1,23673715396953
1,3253008089197
1,3723782949353
1,33830381805993
1,24226355165511
1,24374755774339
1,21876375753813
1,33759136551334
1,38749035566759
1,46969259338603
1,37035014933076
1,50811929415061
1,3350650711564
1,31315718601001
1,25281313129856
1,25991317652078
1,35601459411113
1,41542961490373
1,29949944663231
1,27762323125265
1,33668313274849
1,53558798134437
1,38846737412973
1,36400683616101
1,33753747457481
1,35077993044118
1,32673959012993
1,4374571315636
1,38933756095479
1,39947095020041
1,30017443071252
1,33911094929264
1,3899930726996
1,36045736703995
1,24954836921392
1,25486888329127
1,31289215578424
1,34936250405605
1,30852101130784
1,38417266891953
1,35605080661776
1,3488605290133
1,30014793855433
1,35686218710028
1,31019055644794
1,36160514323471
1,28299944422385
1,2750769683019
1,27939106585283
1,30286171678795
1,36621873979289
1,3848613865275
1,31720095302
1,37468303518683
1,37535460268542
1,35603750710026
1,35005374810777
1,37681188954561
1,30602023870095
1,35344375710355
1,25416494019916
1,35822666927723
1,36309245987396
1,37878097770388
1,29637606006125
1,28826104567691
1,29756030289198
1,29327903132856
1,27236029674284
1,24996284493608
1,25368847393162
1,31335924362864
1,36392985732787
1,36325514514833
1,33427685158871
1,33085282926401
1,28237894169107
1,32259119158915
1,34918212500972
1,32859321657746
1,20339498868808
1,29161262014042
1,31329386023516
1,290032211292
1,25842443437473
1,26668929877534
1,3013023797848
1,37004668727415
1,28380183546451
1,25196772523928
1,254310454536
1,29854740842893
1,25691664850565
1,28516169689943
1,24664670092138
1,27830944569717
1,28236900813347
1,17441113253036
1,15141164949671
1,21646821858527
1,26035603349584
1,24091314686449
1,20312498123184
1,23387108528362
1,22836447680078
1,25984664227864
1,22663188489095
1,24065514272056
1,24572849830001
1,22531617677293
1,24032406909549
1,24271673360478
1,17684607111389
1,15942464110754
1,19348723890795
1,20256409957399
1,21597929715784
1,23090316725184
1,20292286791006
1,18003409903731
1,19559100736118
1,19170935125806
1,15065610771149
1,1933014146303
1,1760752632838
1,16732005444698
1,17485093095285
1,17068516286763
1,12218127652112
1,14977103903492
1,14965221592115
1,12610716630143
1,14994995434513
1,1353780536099
1,12501772983235
1,13016830187929
1,1160458445469
1,14488228162547
1,10916028375224
1,11458284881545
1,15371461809448
1,11238902208179
1,08858935406676
1,10590834969476
1,10089318570924
1,104756316479
1,08947559181859
1,06668071062637
1,09445009026176
1,08675289998069
1,07834591163601
1,10874949435886
1,08196397933634
1,068017617273
1,03951424044234
1,05190675935496
1,07512051470829
1,07201205087722
1,03208977251809
1,03127636327653
1,04620891570212
1,0503417158024
1,02203497917408
0,999564539101127
0,9899262180331
1,0020533832727
1,00852958512145
0,995835859896922
0,979523052803216
0,985821264336736
0,996709677338776
0,970682215831002
0,988900104458706
0,982304246392466
0,951793385890339
0,94510995770702
0,965692226878499
0,958076385103866
0,95278176385304
0,960709954135198
0,949191967463967
0,923913546817328
0,928560615704161
0,929447952015092
0,941924315823863
0,903541354956791
0,89179990006527
0,935032984678706
0,902664985595069
0,904222420937921
0,90258221219952
0,886232178111361
0,899235245822467
0,893734278555608
0,891984498583169
0,903370631964261
0,8822296279514
0,873982555092842
0,904883434492866
0,839712815222592
0,842982139326619
0,859143872246106
0,831587235145548
0,829740793635441
0,837824344844751
0,838663823393641
0,836601558630607
0,832832933320503
0,823872723603179
0,835289781177805
0,818148456927269
0,812018948249604
0,834230789936513
0,817547202357978
0,818313975259186
0,797271033051012
0,799823181939025
0,798429635296543
0,785983606960224
0,774479467122975
0,77702451334459
0,77831722901786
0,759915678437067
0,769884546221761
0,768769641681057
0,749713038112591
0,740291253360599
0,753571392846315
0,752738804616354
0,732247394795966
0,740423291741964
0,751773717416464
0,735072996314411
0,721332859117084
0,731721732497483
0,724699935901303
0,725175423190449
0,728430060802756
0,706017051574374
0,698925010969862
0,710856946495155
0,6975715809678
0,69468988677777
0,709076605040938
0,697614003144059
0,693002825621563
0,698324067426286
0,670695223714961
0,692921562151688
0,694298919393183
0,675129641885403
0,663942471494659
0,662079690608352
0,656232121908263
0,67025948217418
0,655469208798485
0,664463054601509
0,649622458399668
0,657877922088327
0,651107337603169
0,636735977831577
0,641159773576043
0,662375030568931
0,636045275494084
0,633988291832457
0,61926420053068
0,631382719990889
0,616632753613325
0,615385832222756
0,624581884290133
0,618120507857665
0,614687891527456
0,612809546017202
0,596478801310481
0,603571413630136
0,596847238240849
0,603645529412809
0,598842609716432
0,588772262539324
0,581267664187705
0,593373756560211
0,581849514420126
0,59613792003504
0,593959443885338
0,57811140558614
0,576880449532251
0,586538312107514
0,570706926738437
0,564987858008951
0,567441041757483
0,555825260816146
0,550219926850371
0,554637647606696
0,548952241757517
0,5498332728061
0,550365199347931
0,549904575803599
0,537535469829632
0,541708036287581
0,545529360925858
0,536399391665465
0,526392299285082
0,524787320640137
0,521046220063017
0,527057791460986
0,511511926065246
0,519080015424448
0,512383457143356
0,510433579390007
0,503830526353227
0,517145271450652
0,50026408259332
0,498620356098096
0,501365370253302
0,496937930851287
0,4890903094796
0,494766253995521
0,48241760161767
0,496001174838334
0,490742333876717
0,487048318089356
0,491714661548232
0,487568586127388
0,479719776589158
0,473480172030962
0,468634069910007
0,477805378256062
0,472140670680095
0,474870605004216
0,45858249275175
0,451424660730155
0,46077172988048
0,468598187563258
0,453026063586599
0,456977138632624
0,45344716974152
0,458915569790476
0,447419483925708
0,450304656259538
0,444202605154795
0,442914852629128
0,448446673035827
0,44508286535196
0,439233327703218
0,434905478279425
0,435737313830643
0,440505138915651
0,428883493151172
0,434560757836839
0,433036161788298
0,428560124048959
0,430171183385776
0,43874524273681
0,425049053037436
0,430370341322649
0,425457422363568
0,432266993128241
0,420824227428672
0,425849504083448
0,425993029755532
0,428433870103995
0,418484024428544
0,418650669802179
0,412706531447932
0,435658692937647
0,424551998148676
0,423754866143025
0,422536039839602
0,429295483942235
0,429202432494722
0,426754871551011
0,428474355716484
0,440141858881977
0,425386871330468
0,433170894493985
0,42919912839057
0,434627285410532
0,431922845704165
0,435694398023011
0,433309660710862
0,438937419744064
0,438177548316334
0,448283834622853
0,452114952023161
0,45800182823383
0,447990096547964
0,449751315329547
0,449008732334098
0,462992743023649
0,460654843216579
0,464119979787398
0,470634272400787
0,461070610672138
0,458158815133811
0,471602124227039
0,468444965913344
0,469098441848748
0,473637251526536
0,485842213986139
0,480878371201199
0,488536930809706
0,4818032075755
0,483278101703285
0,490874595812422
0,501260069057767
0,503051890767888
0,494825169949523
0,493429015204285
0,499486509654937
0,50054781110138
0,511209375903802
0,515594477673955
0,520663055690526
0,52041562890442
0,515694466116091
0,516341689081454
0,525796341365524
0,527406174637163
0,542586928988536
0,542867778769713
0,551004469095744
0,539616691516378
0,560929282270201
0,542485814872288
0,564928558817643
0,555109146171179
0,563279987304932
0,557589745218127
0,585374100692565
0,568127496301039
0,576544309614914
0,58607115263673
0,581832695470778
0,572263778376791
0,580510952414508
0,565963468492469
0,586158686640475
0,567308215312433
0,580169837368056
0,572753372117452
0,580762492122126
0,572758519520223
0,587022401619915
0,578378143205815
0,575722538546374
0,573780322893148
0,573024042751089
0,569964316845449
0,587276908299254
0,565502769200277
0,57784348418472
0,570121422631362
0,584367230907331
0,56910466962853
0,585428403342625
0,569874452552934
0,593479564690362
0,57019092941888
0,583040284791414
0,570811465243596
0,58206881724356
0,569400108055612
0,579400995421128
0,570777943713746
0,572701040683329
0,570070109600024
0,574139815456206
0,578486432095324
0,59262491796682
0,578343392138319
0,592386137512001
0,574691688247284
0,587028184169444
0,561737221570186
0,595705998502486
0,577309475505522
0,580809239875403
0,576448331908439
0,578669962389296
0,566105033608939
0,587722837134753
0,576657068521996
0,582397323867874
0,558714901871302
0,581713989280588
0,574133421172627
0,577281056556576
0,562590850577051
0,580480575707228
0,561277865854477
0,567938019748618
0,560343243879066
0,566759181098822
0,55229274930189
0,552809878154844
0,553273370505787
0,548649219147691
0,551944670363362
0,5452621125834
0,532217241194785
0,542855205977226
0,533730090661938
0,529421436291333
0,521655036092711
0,534692093614043
0,512091067267927
0,531283363996866
0,512335336405851
0,516443528848845
0,501216045358991
0,506239429748329
0,497023790607507
0,487102976636411
0,484384639933944
0,490427301158852
0,487361967183773
0,486835173447367
0,474275142920494
0,476151178382539
0,46699978651955
0,478753077156323
0,454848615379848
0,464453793621207
0,465572807798113
0,462896637785557
0,445234634981977
0,452634932814998
0,450397705007683
0,446094870058654
0,437843511600092
0,434624584395398
0,437500868607844
0,448200275059144
0,425296416686486
0,438852213581678
0,421465285563345
0,429440278754839
0,414891247253198
0,426621485073934
0,420381748236856
0,423664898740214
0,413602250081126
0,413954612550451
0,404116961272235
0,411792793229407
0,396186691318692
0,41241355309824
0,399038247154382
0,415406876598755
0,398994379929322
0,400211728252259
0,388886811253949
0,402829056574337
0,391880714120768
0,395734680560312
0,38579263815595
0,395288659791457
0,381590759808406
0,389022579447469
0,377213191763001
0,383051527297216
0,381536827010403
0,388248297266372
0,3770860057108
0,37813143593147
0,378274947793589
0,372576314865196
0,370094857622674
0,374036466457633
0,363783464268632
0,370573984669612
0,362634478597134
0,370924052229469
0,37257801285041
0,364706730843839
0,361537700071464
0,365557071084099
0,355092618315087
0,363800286506891
0,364121026662195
0,364277014568146
0,353476698283646
0,363762499317459
0,352841171056852
0,357975488301402
0,353876514581432
0,356798307041586
0,347089037436074
0,352549103038338
0,349743255663333
0,348980816774779
0,34258524333807
0,34859802449572
0,347456232466949
0,347678859818961
0,341770069763762
0,342188143490013
0,336426588957633
0,344990267006818
0,339104430769599
0,340127925394717
0,336174458454366
0,339503690584283
0,33338769002025
0,338238974880608
0,335747166112822
0,335418204999008
0,326676087565828
0,331378584428257
0,323788795495982
0,332028557839675
0,324380310728631
0,32957938591621
0,32048500524272
0,331730732740587
0,324780456591015
0,328319624568995
0,323586419972913
0,327592309519762
0,326773298879444
0,324298103458835
0,321623906829788
0,324113605510593
0,322189866056464
0,325642799808522
0,31794436547864
0,328963779703137
0,316084055321684
0,324846808750512
0,313536978175141
0,320537558051306
0,310727042231824
0,323405477204452
0,316124301391915
0,316767812099569
0,312329453593398
0,324945822191671
0,312166388488689
0,322716834539477
0,313570989222701
0,317438866873538
0,307412939698701
0,3174677500894
0,30339160325899
0,316607107797943
0,315833653541883
0,312296845774919
0,305467270229772
0,312134227997477
0,305801620709202
0,31667819260311
0,30262174705693
0,308232700027304
0,307698539326414
0,309965702731404
0,29748275253252
0,308187485380158
0,299186133401098
0,308043604719006
0,300419552693608
0,306540501221333
0,300716537532675
0,30921650792864
0,304178816214466
0,302499389580138
0,295566622794899
0,298803970287627
0,297931818181394
0,305637885117538
0,295876673872331
0,300675635815393
0,293875538298229
0,297621082458579
0,292291147777802
0,293194803651101
0,292534195016416
0,291349181387196
0,290100711432362
0,294938742874855
0,288949568660143
0,292382614347063
0,28573703111426
0,294424882340331
0,290072134491347
0,2917126098424
0,283612477446979
0,289931366947096
0,289248786597902
0,287534811879954
0,279011803461717
0,292555172816627
0,282870661766725
0,290567184872046
0,28075984637072
0,289711256448354
0,280903413071152
0,286474783271848
0,280204473623802
0,278437791601006
0,278445484068994
0,28174023639033
0,277769358609338
0,279208229833209
0,273582128061171
0,279862904056876
0,269557071136988
0,278167128554857
0,26924611369923
0,268922482757302
0,266267511155839
0,276586815077256
0,266423346619503
0,273463384252329
0,268432553838414
0,270747212798472
0,264490269071589
0,27555242603203
0,261236192347367
0,266624667223237
0,257296827907181
0,264997954333582
0,256282336184361
0,260165171966595
0,26173098200877
0,261442496524561
0,255047318736197
0,261852005860498
0,250580730352031
0,260623287307975
0,251966151668698
0,255286788142047
0,249926902730061
0,253353189395045
0,248861058569951
0,252471705339342
0,24605181626804
0,252346790511447
0,239839660630924
0,245472551567155
0,246265072713249
0,24829922864099
0,240869534400674
0,248016147878893
0,236339573176495
0,238983847996717
0,235969758907911
0,243405986370283
0,235958302888594
0,240772984677312
0,234766963897291
0,240405154147322
0,231068308769027
0,233060287852376
0,231204604135565
0,235505636598109
0,2284306817206
0,228759065599827
0,228523549277257
0,232371330442662
0,226410102471748
0,22837872931408
0,22243275384005
0,227158786146999
0,22225617041823
0,229090377410557
0,219402417234078
0,223655616150085
0,220710546847689
0,226425208561356
0,21593081567713
0,220556092535617
0,214957564573935
0,223274933403053
0,214476297189772
0,218344588639718
0,213645024814697
0,215563988495611
0,208106538554135
0,211670870598762
0,209119689268406
0,218484538277941
0,211544411053953
0,213204760618978
0,210960875590145
0,215726950488859
0,212801576497195
0,21222879979285
0,206349265721861
0,206437998899546
0,205160043273462
0,206991403735343
0,201611741363892
0,2046489496313
0,200343820749069
0,20600694607966
0,201831012237875
0,203669901212351
0,196658203653298
0,199967133918421
0,19609131929279
0,200781600867966
0,194261060599887
0,201409907744001
0,194740796903169
0,194731862561135
0,1948810447921
0,198291504063399
0,190719422367667
0,193856835733433
0,192454569346284
0,198907465202909
0,191282622556362
0,193060840322299
0,191096470133813
0,191847801201451
0,188917432041279
0,194653334264782
0,19007451244339
0,188991270493
0,186385753881818
0,194165243597455
0,187274525115215
0,191085453007887
0,186800807332679
0,188360924644589
0,182018090950169
0,189808151657442
0,182906209194673
0,187791060899254
0,183897319210778
0,186403579215841
0,183752422386785
0,18794878971407
0,182568559995117
0,187236096946883
0,182581759519552
0,186157402584433
0,182106514790893
0,183132716374596
0,179407635754704
0,183526617980382
0,178465410353727
0,186050592730796
0,180272034657493
0,18069226874919
0,179155629878658
0,179913778958512
0,172874712988144
0,182461573291658
0,175503478578875
0,18082734977339
0,173284107297999
0,178170735644192
0,174849089720257
0,173718033715199
0,170713930055667
0,17915538012199
0,175842351306951
0,176940801294292
0,171734513039119
0,176124825153392
0,172076842239777
0,174844337057318
0,17077693364742
0,175242950375286
0,168165762498954
0,173073687157342
0,165665550665106
0,170378845337803
0,166287821881624
0,170667907983977
0,168685587507317
0,170622466557902
0,162213034369927
0,171252057975052
0,164865806280034
0,1670777910535
0,164006523941446
0,169073099275036
0,164482434836377
0,166601195659199
0,162461798863576
0,168417685553347
0,165839752548855
0,164466733088925
0,160895876363669
0,167051447373285
0,162031824963449
0,164195271026467
0,161297025154009
0,163774850412611
0,158843148834238
0,161159377329179
0,157257278585786
0,162781703250222
0,157193409178822
0,160422428817101
0,160312850981726
0,160214593381672
0,154660626088676
0,159712434622804
0,155574995044167
0,15596236397293
0,154684338830563
0,15769333163887
0,150992160535461
0,159176601787363
0,152625263422891
0,151651594963518
0,152721469420285
0,152267393264543
0,148937024837626
0,153758676047347
0,148251612190962
0,151025378584216
0,147077229743324
0,147889766864773
0,148142864650637
0,148706898700995
0,144795571891477
0,149982346461959
0,143681815369832
0,147983301995871
0,144085539394532
0,1477527788785
0,141615165068558
0,144991742194907
0,141214274924309
0,147029232370317
0,13975074905096
0,140961192731002
0,141050033920177
0,144656840249523
0,137297722527942
0,141748272711226
0,13490291930193
0,13868900464766
0,133855038433137
0,137076952461602
0,133635447381223
0,137530529878812
0,13327017242515
0,13636370826362
0,134177414994646
0,135021186118416
0,12871206710747
0,132691098068371
0,129472521689483
0,133384945670083
0,126824379433952
0,135173153717231
0,131021026286102
0,132705559882611
0,128423359010678
0,128354515905425
0,123276155450906
0,126531648044093
0,125346594318873
0,127202722105138
0,122518625441091
0,129990436644973
0,123359745123578
0,124524344163057
0,118569707806651
0,122756093472779
0,125267151140542
0,125362258990329
0,121068768640693
0,122833697590769
0,117030242306498
0,122803331888276
0,119956031322186
0,120515823262898
0,114412121384594
0,118398664677456
0,114711719165276
0,118161565668343
0,109725747124525
0,114953012322387
0,113048429374443
0,115380771745066
0,11435718466197
0,11872391884655
0,109843854169215
0,116623176881094
0,112357957434765
0,112773875308922
0,110316679181083
0,114183478073858
0,112542461589142
0,114860471496283
0,106630325721229
0,112039380881777
0,108546951549089
0,108434911398657
0,105133892050808
0,109159313496282
0,105729778556232
0,111219521526315
0,104524729813952
0,104826144696191
0,102719140517155
0,10688407896102
0,103760747962023
0,107135848975438
0,104015722177427
0,105727278453683
0,104337869128029
0,107813122195069
0,103182479939369
0,104724428322798
0,101694467346363
0,105981643048555
0,102255316290014
0,106360072543893
0,099887830031501
0,106271544893208
0,100329046919754
0,103220979419796
0,101360566611015
0,106906878458528
0,105567909095932
0,110329299195541
0,102823942154026
0,107250629283628
0,101277627618778
0,10796674078396
0,104424451417085
0,110203193268711
0,108377720140134
0,114544632437694
0,10548374925067
0,110639413375807
0,110381129209682
0,118100669751996
0,109201121904633
0,113006610282781
0,107665029676859
0,11779614864157
0,109442235864134
0,113667844334074
0,107148851905924
0,108112709918978
0,102227799463889
0,114664950266007
0,104345617188879
0,117413723485892
0,10985217621652
0,110867053925756
0,106290176687548
0,106297630978264
0,102947415598558
0,108535947103047
0,0938542930104043
0,103082454669886
0,094933636110392
0,105662776916296
0,101751749818029
0,112441455656422
0,0985777902822711
0,108168014410574
0,101470129738381
0,10552804810594
0,0991362362808763
0,102218113002393
0,101791642184246
0,105561475839747
0,0991967795890599
0,100971892784403
0,100185060391572
0,0975359803690035
0,104912640771725
0,102175962653992
0,104213771065782
0,0944724469010699
0,105696027076779
0,0890667236548441
0,11408526175448
0,0891628122192889
0,111378706732515
0,0771194440089045
0,117323642265644
0,0801338106724232
0,119927022333699
0,0683792939236765
0,120563132306267
0,0750031271564152
0,120587321899057
0,0656439164283897
0,111025012630339
0,0747234381488601
0,10269044103884
0,083249067483482
0,101566433882781
0,0920868788678875
0,0907102620717071
0,094369941572789
0,0854901426467854
0,0939613975216848
0,0819258212129672
0,0937494422089743
0,0841531083578441
0,0876266743144072
0,0893914579139942
0,0846678889960731
0,0886888104775716
0,0840873741777447
0,0868444790382632
0,0812377153677015
0,0873128645647476
0,0876367638179741
0,0842405765648507
0,0852319079902521
0,0858996212766367
0,0828754741934146
0,0825202927471603
0,0826883614898097
0,0812925583441768
0,0838284797349086
0,084450858329711
0,0824214341864137
0,0846628191660304
0,0817210814236238
0,0818265837229254
0,0827593908688079
0,0821307184535347
0,0826281618917968
0,0821825399381282
0,0806086562990841
0,083190470332706
0,0828450002916771
0,0801681541609695
0,0829121265339972
0,0815683872082429
0,0829084627359222
0,0820622956646603
0,0819069974381988
0,0815651026348631
0,0811306919554349
0,0831142204822467
0,08103071168599
0,0822567114364577
0,0818928987390733
0,0780195509206035
0,0805636883396942
0,0821248464398837
0,0797558496227507
0,0804876295081349
0,0806229340952792
0,0819382941304608
0,0806902935066322
0,0794930326978404
0,0834836061260911
0,0797200419436921
0,0810280013674563
0,0824381556798941
0,0841073069284512
0,082949622053494
0,0840629675076799
0,0817970746621872
0,0817335678203898
0,0824085661347481
0,0800845903711158
0,0796511865403327
0,0824497031544952
0,0806165728114075
0,083652735623648
0,0787329853590504
0,0828432199573544
0,079530559781764
0,0809411268000414
0,0818548670929551
0,0809653782174472
0,0785500391572546
0,0805548082759274
0,0813956000657187
0,0800883325793798
0,0823568563557717
0,0839741701065813
0,0788168159717608
0,0820460811005258
0,082975390968455
0,0841528791264674
0,0797691925304341
0,0818641625423373
0,0798793931020983
0,081784930115941
0,081123254650514
0,0851460550140222
0,0815516104579792
0,0809118162023456
0,081394812782909
0,0832323144393543
0,0822618576306895
0,081743498138097
0,0808544877738673
0,0821117406352248
0,0811299171460636
0,0817340038304189
0,0817194689579626
0,0814112733426198
0,0802925655027263
0,0831864688753521
0,0836049617268682
0,0842457044735902
0,0834097517509932
0,0819202939687822
0,0817896215764175
0,0841269193799307
0,0832728543648206
0,08251682909666
0,0839197256473126
0,083561245321954
0,0820428246896402
0,0833847557550509
0,0838830836853006
0,0846624031375053
0,0845985926019859
0,0845586125720628
0,0834691477045517
0,0840288054698725
0,0829343908571202
0,0858740941440508
0,0857563820507475
0,0848389225422466
0,0835933067864778
0,0835457977387789
0,0852013689671035
0,0846238231654794
0,0846704520063211
0,0856308842506334
0,084546416494001
0,0857890802203914
0,0834776143262826
0,0840162886824853
0,0818930830652697
0,085142937468388
0,0857518895176976
0,0868605324988542
0,0851052347121766
0,0854389274554262
0,0855150632791249
0,0866041318542669
0,087131165784103
0,0837742295739306
0,0832041068385426
0,0846866786297235
0,0859084636426599
0,0880559794485726
0,0866151137092433
0,0887069386389811
0,0881802674037981
0,0858858514346005
0,0854120233449189
0,0887994383934853
0,089193901321177
0,0881434296934902
0,0873213158046707
0,0898691815983309
0,0863961914977864
0,0876905538124535
0,0872996906980099
0,0879686158709851
0,0879760474746695
0,0889783796566764
0,0868194915955881
0,0890044907542273
0,0872092267246449
0,0904025530990936
0,0879141563370707
0,0877159000888358
0,0899550544530035
0,0877563190197609
0,0870730997072921
0,0899269090149405
0,0863877301729765
0,0871103679646712
0,0855284879990971
0,0866321566396154
0,0866931620492407
0,0893776613534081
0,0851917297780136
0,0838767612166147
0,0856782521849926
0,0855997687477658
0,0848374299017843
0,0884740587392627
0,0859499278807215
0,0853533181575503
0,0840990419962354
0,0828846359740397
0,0837647250353603
0,0862315244758793
0,0849344261030545
0,0885583789833448
0,0829759122839338
0,0830480186134926
0,0832683469764972
0,0859940808746029
0,0825421318366818
0,0844139239739353
0,0815273231121801
0,0823375845111478
0,0836660271055691
0,083748503717026
0,0845046095926309
0,0844083718347626
0,0817720244374804
0,0823440008993434
0,0824385869614529
0,0825626085744589
0,0817326297818888
0,0814857474503422
0,0815273205209876
0,0821593517113233
0,0800728499539077
0,0838596874298041
0,0803118862607692
0,0807327585677212
0,0800780079306791
0,0812799157944483
0,080818977632258
0,0836529094428072
0,081819718187419
0,080997515134497
0,0811324970020029
0,080521519935472
0,0802176436585745
0,0792742413641672
0,0794041148253173
0,0787411316742906
0,0816362699879204
0,0810709743616585
0,0788107251048365
0,0819401651849509
0,0794558660345602
0,0785509537499726
0,0818056622055606
0,079239462347437
0,0789408466755657
0,0786515840149879
0,0776679789555063
0,0798177978778337
0,0807664033122685
0,0775053444244183
0,079177310299959
0,0790025228669821
0,080528576453311
0,0806842513765373
0,0771038545627828
0,0807952765923039
0,0765458637202757
0,080094178515717
0,0800635418131614
0,078954658726244
0,0780518615411695
0,0792923429193644
0,078705874939832
0,0814310898326436
0,0819680680086788
0,0786143475197219
0,0780969851314594
0,0786283726805671
0,0819872930110145
0,0783358369005148
0,0785857663621072
0,0780817116316046
0,0790523613197098
0,0788806281743176
0,0764463339801031
0,0772259020845868
0,0771782370232249
0,0779305892666248
0,078795348726587
0,0770722773553154
0,0783938278714124
0,0756508554729106
0,0767159171852049
0,077405709884787
0,0763564798444869
0,0750450222257529
0,078856917411498
0,0790089201690147
0,0754097851976338
0,0778873461692562
0,0742637516465193
0,0784668602494255
0,072513083076269
0,0782072917019126
0,0743660642884499
0,0729212619291749
0,0738654795029366
0,0759967985970214
0,0748040711712613
0,07611029061489
0,0722712237160207
0,0738552592745925
0,0740260781540199
0,0757410260449681
0,0735832475246822
0,0717980939190747
0,0733517876044615
0,0721677787748204
0,0722286776693276
0,0728111927501283
0,0735415509853506
0,071657882109136
0,0712922803842326
0,0734940644945364
0,0702456609236464
0,0749685609984774
0,0715736324129535
0,0708766130597591
0,0703391603892548
0,0676962972800746
0,069326651681992
0,0671309748015172
0,0692083116881562
0,0684921675282123
0,0668175556328926
0,0703715519628766
0,0662246612378997
0,068797880390388
0,0671001761182227
0,0656010571542716
0,0672828075758889
0,0655262794593116
0,0645501881873584
0,0650853070966277
0,0685206726072275
0,0691797533349241
0,0655067840954658
0,0656851273841788
0,0675316940581749
0,0692879557798862
0,066093540952113
0,0637440127694111
0,0704339756358133
0,0614632957468848
0,0660273355707173
0,0620392843983862
0,0667497018749115
0,0622097766068636
0,0658583223694861
0,0617185864387646
0,0661912926927674
0,0645682500170283
0,0646637137694986
0,062834003544857
0,0641513098307706
0,0643538599889491
0,065402605714326
0,0622959101612416
0,0652046806813999
0,0621527493650422
0,0610964402383105
0,0613082982343235
0,0667754880282244
0,0645190341682988
0,0661876044592908
0,0631058775434703
0,0648895992612163
0,0618039623471844
0,0655115011085134
0,0613105411590731
0,0612031475685981
0,0623198851561112
0,0621976773557228
0,0610358059325754
0,0618210787170015
0,0645408074724202
0,0612231337054083
0,0632072529608208
0,0610372600410484
0,0630476415923947
0,0616358779530535
0,0617605482602653
0,0616298560184393
0,0593690638781225
0,0601132132687844
0,0611175008172581
0,0562421100716987
0,0603284928683002
0,0590260721106244
0,0617089117560981
0,0576481668001221
0,0616979123760748
0,0585561105351017
0,0633627554670655
0,0561216731415485
0,0689069938252983
0,0565002398923891
0,060086153916329
0,0561504712489097
0,0583574197917507
0,0607257497732776
0,0582671399966685
0,0595034781115267
0,0603394022233468
0,0575342826519831
0,059629211930143
0,0587264331231168
0,0592290311340932
0,0606268774788527
0,0579860527767906
0,0568571983219577
0,0586054562155963
0,0602844381954609
0,058592919635028
0,059165374340961
0,0587176006254825
0,0625843489365885
0,0602169775592351
0,0562584947614354
0,0621980508606378
0,0532480386116927
0,0628740099164856
0,0601762361901861
0,0531476490142358
0,0635664393107986
0,0535359300796085
0,0618817600672159
0,0542585894975997
0,0626817338410668
0,0532299811731152
0,0652579563779008
0,0548355125745719
0,0637865328572704
0,0594481068213605
0,0608933299329825
0,0595845421388457
0,0611611241127199
0,0570970236106618
0,060827933406992
0,0581239653487443
0,056657817988769
0,0578748874604835
0,0554347358799791
0,0570991781011443
0,0597096257001275
0,0533624360333822
0,0648794676990527
0,0517256736296886
0,05907391867816
0,0569701134105376
0,0636768391613946
0,0528538475462522
0,0657072047539924
0,0538376680277796
0,0609522512172428
0,0567417158488903
0,0572683070717194
0,0581972928236694
0,0564319961414138
0,0583684669292851
0,057445476331586
0,0577217098477604
0,0578171733789708
0,0607520321966496
0,0553853109492812
0,0590399192927418
0,0599854155337756
0,0609615661250306
0,0577689398607633
0,0588069955035642
0,057733102391697
0,0564786298469497
0,0558930301733938
0,0583432520594735
0,0673783769878454
0,059928158152422
0,0634421055607022
0,0558740808999482
0,0609604571037721
0,0550911739823397
0,061361727341372
0,0536703275823138
0,0637160907215288
0,0562551306473034
0,0598698014463878
0,0600540232836971
0,0594803894492048
0,0561415871665614
0,0584760588414838
0,0549900531279858
0,0633036558806541
0,0589622818381055
0,0603176053533916
0,0567938344444514
0,0604462686282147
0,0560642749641215
0,0595790843178444
0,0610531096922428
0,056760924843957
0,0614661184825735
0,0552747610400859
0,0860277986284263
0,0457881154709845
0,066400257006211
0,0561903658626776
0,0621088397422849
0,0600933803131779
0,0593428180605129
0,0622500878034092
0,0626042654040355
0,0594256793183861
0,0637753457914555
0,0603961454040099
0,0606588724283303
0,0617859773823219
0,0610681249338104
0,0670185200744202
0,0673929601150629
0,054400292678286
0,0657561385688072
0,053854128739215
0,0748719330127612
0,0569695579275826
0,0607444836448889
0,0677774519409269
0,0594953535514004
0,0634368362660355
0,0602925265810915
0,0680994729851074
0,0587183201742337
0,0672585914930698
0,0635216807902628
0,0660000745736135
0,0625740260429453
0,0637880450224723
0,0665773990102321
0,0601728022845862
0,0684779782554251
0,0635526102385862
0,0644214409914536
0,0687735496809957
0,0605613996336621
0,0657326952158078
0,0629871753341722
0,0653104645613421
0,0654781258278003
0,0741423352519934
0,0650203605190828
0,0677049179699838
0,0732806057978681
0,0636923094836875
0,0661558889895761
0,0704250561215194
0,0675430996115663
0,0744300524578321
0,0571947351581632
0,0928311685380271
0,0603740933112644
0,0793113380978054
0,0697067806925909
0,068600925242889
0,0701129233984987
0,0697412276895411
0,0720321627679182
0,0650830949252324
0,0807907702426885
0,0604432593087367
0,0805816426474708
0,0612052514666526
0,0905491714150024
0,0647883321110889
0,078145256466564
0,0711027210024142
0,0751797145817216
0,0692623137057534
0,0843076122941113
0,0678274280228532
0,0834934844337609
0,0870857346183528
0,0776196740001575
0,0840851982749188
0,0680815557390781
0,0781060943073047
0,0938549098240297
0,067066930845775
0,0820746369220233
0,0720734827758341
0,0885354939128618
0,073426176185568
0,0850712465144807
0,0848371000763091
0,0788135506475437
0,0860558333090675
0,0794812682938816
0,0772105033142749
0,0999535184929355
0,0752438826172095
0,0889735886622941
0,0781294024083917
0,0924616285900437
0,073307362885415
0,127343042734242
0,0664956719058232
0,112488945657738
0,0765630949302014
0,100487803051101
0,0899065517886226
0,0967471864648903
0,0915864481370146
0,104730998522073
0,0969235755920963
0,0969917411317403
0,0929565982232264
0,11609775960301
0,0979858106059859
0,095647555790769
0,106953187937472
0,0994694005994684
0,113603082002706
0,122089965393978
0,11999341990448
0,115892964935376
0,109597817163688
0,111753201747619
0,132854448574183
0,105023558412769
0,122018463816516
0,110990125955726
0,12221695041348
0,11789124762928
0,120500457190817
0,13040562948006
0,1203684283756
0,128597594406845
0,122885201088326
0,132829919404295
0,131619896834866
0,140983443640593
0,141581243091757
0,128806434791872
0,164243029989776
0,128512663399023
0,141957767940681
0,138171566084393
0,142985892104889
0,150336938318864
0,140979580757956
0,146782473305232
0,141891735578557
0,172602093156532
0,14697326757017
0,158068569065846
0,159334990869346
0,157263473176126
0,177428141189602
0,146854851644883
0,281613014799345
0,152661442907608
0,197483985612252
0,171444266779624
0,208920511027933
0,21087116175053
0,200563967329026
0,205788526698486
0,216034945201076
0,214560123679594
0,23392264452187
0,23375694445521
0,240002920187655
0,25243540393338
0,251544625757245
0,255343022700946
0,284000386227467
0,25123522733492
0,297819971510083
0,286333655266765
0,295576840339054
0,301935811413798
0,316271237777607
0,309269142057009
0,334773087114559
0,323627431638102
0,354089144265434
0,362897793845904
0,353637376449663
0,363429151648435
0,36220152276458
0,399768187012777
0,370903727780265
0,43240049059648
0,408769568822247
0,418618075957379
0,416613745125755
0,430435120931477
0,439182039546175
0,440524840878816
0,469748600298752
0,452442699139163
0,465594659466614
0,468487986807968
0,478075996350487
0,490474222295667
0,497681809390286
0,505114011932883
0,497335316643756
0,526215851270576
0,54533516139948
0,559490972142688
0,528709769340088
0,506960035603624
0,518527248679612
0,50432916970392
0,555461620060797
0,515588477453307
0,559878269676306
0,52725450020523
0,526280933336559
0,524713521449628
0,521778777506061
0,525602168337395
0,533445911436434
0,539400059362972
0,521495692429324
0,563210765973784
0,532016839636707
0,571051244397753
0,578520978330057
0,529607011622443
0,534039456984481
0,532026542963816
0,529792099756198
0,534084933802943
0,531403221498576
0,513464454593279
0,550676355676525
0,512398337882086
0,530389645820414
0,505910456798283
0,52500247644178
0,509939241678236
0,496337016133097
0,489246479778639
0,490282190501972
0,485516135522783
0,480990079970534
0,492817885492692
0,521019174533354
0,468094442711105
0,468527502669041
0,457852568178945
0,467030330091356
0,457372530454622
0,451188066876603
0,444604122698775
0,454060839928404
0,435952852934755
0,452999664657983
0,435734688829388
0,445090585883664
0,431256936045872
0,439571936816255
0,430001786785141
0,440270600053646
0,431765008476402
0,432574359085999
0,429170612950796
0,432656367478572
0,429315412714877
0,43620297057138
0,426174332148184
0,434312133741403
0,428673780483317
0,432529889870439
0,426397282654241
0,432364169644734
0,426926443595237
0,436316371128196
0,417894095698855
0,427579109139221
0,426515108212559
0,428195352221992
0,427544650920006
0,425523934935433
0,426325130451936
0,422745759025402
0,421359194008145
0,421181414589929
0,417269546949459
0,413898837170818
0,445870301149045
0,417645069568181
0,410137154975063
0,422931601151738
0,401213948152043
0,414841968897609
0,392818712095754
0,436967246969948
0,407424429888294
0,400179033596088
0,399970570053158
0,394529260078131
0,398432551098351
0,399062886875279
0,384517285709159
0,400213650995319
0,372264473580023
0,429918424793909
0,408065884185761
0,355966493579544
0,415265916646313
0,390638307573484
0,37604939506675
0,380846312218936
0,402595034763715
0,369655426036044
0,385758495295161
0,36431880412133
0,392668216060042
0,385705737393463
0,369325682412258
0,378311697547014
0,359348611624606
0,38232749846873
0,376431540744451
0,371722643520845
0,376267841525301
0,393083401073899
0,36046819565052
0,417984007422373
0,356621036379989
0,360833197329298
0,345808156085234
0,355205566569021
0,352473261480094
0,332159313837953
0,37944584514061
0,344341385368478
0,341854516633097
0,33481953080281
0,332250018009601
0,339780038984348
0,326839529870175
0,346498498022439
0,307028130386431
0,353747905632338
0,304856346092027
0,328363141566454
0,316017458037475
0,324337527136575
0,323469266296901
0,314002536578161
0,305043302384583
0,310159085615504
0,323125190812905
0,301609765178268
0,311546071567185
0,30132622088727
0,285191515418042
0,311901995996002
0,281818766971225
0,297991934308652
0,280019140600057
0,293927702035105
0,305049290369733
0,280367838249136
0,28508254625828
0,275073285121735
0,271617027684728
0,278547185376629
0,269197331292636
0,277903226496638
0,265135382926679
0,279603090268696
0,281130540102623
0,259925764485843
0,300077926461618
0,275510370879781
0,27720309444877
0,27822788644402
0,275421547857961
0,283340649258236
0,292851188081123
0,297664204324389
0,293613676438943
0,277055850328396
0,305490442345842
0,291498637269285
0,303043417904723
0,297512241591101
0,312441217270902
0,305041144747491
0,323184345143087
0,320492810289984
0,326293943877746
0,333455520376672
0,348015381806139
0,342075664719199
0,381093378754613
0,346152203969021
0,391712085340271
0,378162800801221
0,404318334339785
0,397425550476461
0,391358522702297
0,400626924405027
0,406048329314154
0,422702955531216
0,423190592544287
0,420681312462545
0,454040109540037
0,43504135875957
0,445073359164904
0,438738588338778
0,456560060613743
0,45388894690263
0,466889384010606
0,454383962499271
0,473405383211279
0,518190740977048
0,472295558332327
0,485594381682188
0,48098314551735
0,490798152481294
0,490472975049791
0,487073006378149
0,500061874497442
0,492225394557948
0,50557029069266
0,502359309101319
0,503102520144732
0,505432681067636
0,510811533686103
0,517994037507031
0,51404795804959
0,523427381816932
0,526221393248042
0,519976290062596
0,533041253724856
0,527203849617323
0,574428156755527
0,552515851051347
0,536706155408154
0,546956246140755
0,549950233310346
0,566368320501978
0,550228312576806
0,571352781726341
0,576699677785612
0,566660195104191
0,577099971749785
0,575128169615552
0,588344640852785
0,577087402862226
0,605871563699495
0,591197170440169
0,597816425402432
0,603583729504931
0,590698894599092
0,646736810737014
0,604872016556537
0,624118204802049
0,61965663800254
0,63212566047908
0,613946970304111
0,619988595146187
0,624088313425617
0,629132779094212
0,630439056548346
0,630906425466481
0,627274194244771
0,630185436895767
0,630293453919836
0,626683245082046
0,64955279674675
0,628147612535543
0,625329405792017
0,63143783778855
0,626293546789931
0,623786785705724
0,634852345714961
0,64751825712773
0,631087191366362
0,636017014312916
0,630615331457919
0,645133383200437
0,6316022323543
0,634569733620268
0,632112400295595
0,631146823085576
0,630432500446928
0,63943936006782
0,623641091827107
0,649420094986156
0,635042761914223
0,647378911287495
0,638398234058913
0,649392230384712
0,655570957373376
0,658070655629327
0,65713738431653
0,660201227807325
0,656775008948941
0,670780347416778
0,66777168773905
0,67131390125731
0,675951530925023
0,67313163250356
0,673804224731947
0,664211141996717
0,661213483689097
0,667220877218302
0,656296322911041
0,66487370538603
0,653177677759701
0,655320107521745
0,641428610988652
0,642694424893362
0,628911758439973
0,655425801274726
0,630363857925837
0,615746988407943
0,625453059817451
0,608844220250204
0,613687415074336
0,601801326600038
0,606328990630286
0,594350620331474
0,60078249419458
0,598584104013558
0,589869354496016
0,591480256428164
0,589879422988897
0,581412477022272
0,58445358718684
0,582142218899843
0,577170781556195
0,574918534609837
0,57726372124201
0,581366518983819
0,574531517769486
0,581028626586624
0,576962789688029
0,572591580166643
0,585606203272476
0,571259637297674
0,583696143229922
0,575557107298322
0,579497056244085
0,574835560064985
0,575132626442063
0,574855013257981
0,57771038497941
0,572692730652047
0,578531195789174
0,570362647628392
0,568668809894555
0,577026978855443
0,576249144267483
0,569330815610014
0,572560497143146
0,565477556782852
0,569213609087301
0,569150099256049
0,570732778890132
0,574797420615407
0,568235077620921
0,575129044376065
0,57276235149901
0,576479584491807
0,567488646325655
0,570797467301949
0,574435075744788
0,57476206286077
0,575857998930831
0,57178494013704
0,57506888195887
0,568557981736981
0,56867230699416
0,568261957982357
0,570474994050961
0,568440672668518
0,564745029108961
0,56770370192718
0,563578499650083
0,559416490783441
0,55271974507854
0,5504357453933
0,546363630532249
0,542613306429445
0,537952839350959
0,535623179819789
0,530475467011931
0,523503801057943
0,519153123061282
0,515497985656719
0,509918968390362
0,512334997266642
0,505325305822846
0,507582755335332
0,503544925325334
0,498768301792972
0,500297110825251
0,494200052202434
0,491547630839471
0,492336166315021
0,491152425865023
0,491656280987808
0,492549512283593
0,488743565268551
0,492392953489736
0,49309760705586
0,492292876335532
0,495500999600955
0,496074279555279
0,497922986098833
0,49910632342155
0,501765673489371
0,503715325880191
0,509702565161685
0,506792022242857
0,506164214084816
0,509555284947578
0,511771778706889
0,512342905618319
0,51839565800503
0,519642572959889
0,522062626694632
0,520072812874517
0,521828082264706
0,52278260407736
0,522723995880967
0,525535307753547
0,521801482781869
0,519366838389126
0,519239829281234
0,523465304925454
0,521594036919115
0,515666769298099
0,520458311544155
0,51881631565246
0,517147766583647
0,516301022828953
0,517123497054059
0,514681172808426
0,51255319482982
0,517626990915186
0,508965668113554
0,504070156620467
0,507505698228099
0,50556071377125
0,503264600657625
0,503572732418878
0,505658217942991
0,501378009774144
0,503435810973259
0,502059391901513
0,496281476824229
0,494952110032776
0,493995251183268
0,489352417322088
0,489705003256763
0,490710360380727
0,487666499437065
0,487238534759514
0,484168078939234
0,483502747443911
0,482496838410138
0,479985309528821
0,476398413957194
0,474304227511411
0,474150422309488
0,470326450272749
0,471067019581937
0,469650816251521
0,465694988366115
0,463967770215057
0,461027398121322
0,456057212471137
0,453144187554591
0,447717904739958
0,44836020352421
0,445621856276778
0,439426419403911
0,435472668733055
0,431335043392625
0,428552754657665
0,430950608360214
0,425506405680649
0,423308675673041
0,42620838375771
0,422965398814084
0,4209372319724
0,418103433433471
0,420804997770489
0,417278369201087
0,416145228775418
0,41182205205831
0,408031601576234
0,406736176047703
0,405498665880191
0,395152904529438
0,393491861658794
0,389810413455822
0,382859987110089
0,379911902267837
0,377127077336925
0,372009121879414
0,369925358401528
0,367419900909183
0,365335747387213
0,372245615814047
0,375067743874801
0,381227691179571
0,388817110289191
0,396140846546535
0,404704348393264
0,41893889840056
0,431613138848161
0,444627612541438
0,460438672731358
0,4768216780371
0,498673039302409
0,513386106051077
0,535041827045383
0,550344634970949
0,567756887235814
0,583116752739014
0,600268525605878
0,617902239254692
0,632379687974178
0,649475777289933
0,667208572567566
0,683045762482402
0,700148145650015
0,710201012393382
0,726253380822889
0,738975431457707
0,75038652734552
0,760175664530515
0,769214512759745
0,788813793384159
0,797498261705225
0,800200663245127
0,805942312026431
0,815548922524151
0,818044329709122
0,825767943560651
0,824878621514641
0,823450960374538
0,830005589729622
0,835485056501586
0,832896309986854
0,835598531179938
0,83486852917552
0,837612095691403
0,840871751979153
0,845922984070885
0,8490396283219
0,852741536133368
0,849153586963615
0,853968481237082
0,854057594832921
0,863653237557069
0,866105280143564
0,8736486510111
0,883190585092469
0,88965099821974
0,899510636561548
0,898519344543061
0,914769119348501
0,915041290225946
0,928678501856653
0,937304559515563
0,956902991509615
0,964382273781903
0,981572139752744
0,993364798132841
1,00340465525434
1,01149591612891
1,02846383340306
1,02713539577682
1,03848435268756
1,051560112534
1,05600983120423
1,06781601135976
1,07187943838727
1,06874063902525
1,07038967386534
1,0713375175219
1,05877929541521
1,06168822967983
1,05348248589011
1,05706538788277
1,05527453011277
1,04749104912155
1,05466471044438
1,06130068097857
1,06875383564413
1,08954559258962
1,10147252335077
1,11610829614606
1,11205572073398
1,12948210285665
1,17317199698821
1,17575519232251
1,189357101824
1,20877735604403
1,21973200669071
1,26027365635411
1,25486578147154
1,28871261458473
1,27593929399531
1,28985554453848
1,31456201116803
1,33058758902159
1,37609312717452
1,40689970235293
1,39449536110274
1,44075961925791
1,44231026801766
1,47575167894491
1,51129163383556
1,51704143649694
1,55722353467597
1,51853375202733
1,65012542639292
1,61922935294296
1,62628383083392
1,66272287846945
1,681934179129
1,71221981315707
1,71091081795935
1,81222249716993
1,68928862802768
1,84940709358914
1,87016222301529
1,76575724799452
1,68937110605708
1,71295848779271
1,71844588353841
1,85269487317709
1,82510117666188
1,78850058933246
1,69275372905541
1,7960317304425
1,76663564754164
1,72836342882689
1,72748230797664
1,8271467189874
1,75542548737537
1,80661309398949
1,76258217185929
1,89155750893942
1,89481830169941
1,85209915757494
1,86364771196642
1,88297844101421
1,93503826489327
1,89600903061451
1,97770351217011
1,94776918287716
1,98157794421539
2,01715908100578
1,95083759332637
2,08430555597088
1,9993075689341
2,01612456770684
1,97548431994181
2,02015093031758
2,06725438625179
2,06972631402787
2,01437141137297
2,04128532776395
1,98703200231506
2,28761889452406
2,17878514877545
2,24047663920521
1,97958457163944
2,0283271565397
2,08288978784022
2,10719190761209
2,00820650378007
2,16485593217599
2,26051172422898
2,09881677033502
2,1701081033829
2,40568355249636
2,32379868547117
2,09940007504654
2,16514243592445
2,38105111275463
2,15762626962448
2,11594338884255
2,01935991372755
1,99077561550992
2,00974544775441
2,05999951012636
2,05059850177074
1,83574328972347
1,82713786432548
1,83696663754451
1,6919354953893
1,69319796084667
1,55312012810053
1,66928416524585
1,58637055135213
1,58496615906069
1,50242464690936
1,51758892458366
1,51577424308719
1,50958862817183
1,45230048591171
1,44100797875291
1,41927014304567
1,47202164515045
1,40928723475246
1,41525095368751
1,41322533913558
1,43635577656627
1,36915399023283
1,38482910858886
1,34990526304607
1,27466547228212
1,29085860885254
1,28951098407431
1,27245936374341
1,23140697793587
1,18206247389346
1,15653176057569
1,11158940757742
1,09524580627495
1,04027942751441
0,986205290236598
0,96917023385727
0,930535611735079
0,894026806284963
0,844644049002906
0,811590380170188
0,776298147232469
0,733524236681198
0,717205762307808
0,692249870279383
0,662330719139711
0,636870875691785
0,614539694058445
0,596524455273498
0,581299650445272
0,562738102932768
0,554050613139869
0,544206971678097
0,530609378129624
0,519262393630916
0,518130673039837
0,503893092443475
0,511794026203476
0,501668106520267
0,497173540816205
0,491995330089257
0,492685322591328
0,497082736013165
0,498547155538185
0,50066105247718
0,506534006789929
0,49098094077559
0,50204914506847
0,503510130752534
0,501290645741612
0,498487857349746
0,49808794793405
0,491772869203648
0,488000315058776
0,476907975408288
0,480444718647529
0,471905888559094
0,47127668474487
0,473369475663956
0,464017217760507
0,461706225666531
0,460084394404235
0,457114053989303
0,45288268898704
0,452058653327062
0,4664306441916
0,455161098863111
0,465499841272791
0,460129243485114
0,467129043030333
0,472914166279472
0,468328721554408
0,476941209758763
0,4770303716323
0,485503684986702
0,48598279884126
0,483930290531718
0,492868574704853
0,502247868595379
0,498764724337266
0,499696168809137
0,502556397614786
0,488464913152414
0,498478288986402
0,496294743247009
0,50739269706587
0,496842063559543
0,504295820164385
0,500130641830425
0,512238483590415
0,51283465427816
0,515026153197324
0,519702394966351
0,532678813888335
0,535045472905169
0,547185598696341
0,546259024795932
0,562177069333978
0,578986546112612
0,591903099352218
0,606803162561134
0,646164359865537
0,639239274521266
0,661767284245873
0,664707504467614
0,657310152971707
0,665447894465472
0,669721934138843
0,663384570107217
0,666892645628583
0,644770035227839
0,642312152662935
0,60406843946385
0,61637229561292
0,592576788213564
0,607914556221028
0,588002621497538
0,595989010418038
0,586456773747155
0,588764782707656
0,589040260917774
0,588307354614462
0,58459905966698
0,598611245454852
0,595491795388925
0,599298579827323
0,593536982305688
0,600745993241783
0,559995779759041
0,579916802764242
0,573639073801785
0,57603468002249
0,554093257163395
0,553088142572008
0,54546032978195
0,53252956789193
0,531310766692371
0,54626688748878
0,527756344960301
0,540543772681736
0,522090485615475
0,527993552455536
0,520788058968552
0,52477968974392
0,508215390951753
0,514866534151162
0,497237229109427
0,501242638313608
0,496643940401374
0,494485251922775
0,495600132290394
0,491035850860182
0,486594226155207
0,49233660375967
0,480642306410064
0,484501747458316
0,485006301312523
0,47866868906085
0,461961563218582
0,463534501952803
0,458158914602229
0,466844921869298
0,446325079847053
0,440666258324902
0,455318930444665
0,459463496363111
0,440932343620177
0,445042531738351
0,441602658334343
0,461909900045837
0,446169609800746
0,445357278430497
0,443807434422987
0,440903900238939
0,422359905211298
0,437792986111082
0,440914229219607
0,45295978012904
0,427228725711204
0,428997450222513
0,445068508415283
0,428926887461317
0,438239872520081
0,438412648535481
0,435897877733458
0,465398541865416
0,438990158831014
0,443571026001836
0,450700282374432
0,454448703649032
0,452274883133819
0,458496797538624
0,463725877933871
0,453983934523954
0,458746862801139
0,469349994457955
0,453471975335492
0,471432020396391
0,481861038790675
0,499896572140365
0,476226734190417
0,5157929484147
0,498940064156479
0,518188968360033
0,522501812244726
0,533731629750332
0,525106998366429
0,559539503149169
0,571025026572105
0,574648405775319
0,592602770098371
0,587500714781774
0,641105138206148
0,658170179561168
0,625685575235481
0,692421792249339
0,647270171873927
0,710065482537704
0,692643499563867
0,756519624144325
0,697175306106954
0,790307823811249
0,771676252606104
0,787791983098263
0,761703263446873
0,801364452684973
0,773709312711036
0,805024505634721
0,739163376326223
0,792111604914072
0,734276608012266
0,76942960997812
0,760614199142176
0,768453130728947
0,730424446354108
0,776637100818479
0,741902945615738
0,758917455945891
0,737577687689341
0,7441710198252
0,735433808798566
0,74070364426616
0,718959519710671
0,720573902112516
0,684202020389861
0,73470735216373
0,679290031670859
0,712475204905818
0,700487915813618
0,724506627506928
0,699517240620879
0,707380774491449
0,658417051753351
0,701109383176585
0,646962560960966
0,659983685345631
0,636881465373436
0,692151127256247
0,673278141201616
0,668551494708269
0,627833474161884
0,68484640446443
0,633289059607979
0,668115943235177
0,635527861423865
0,675457976211069
0,701438305643469
0,728439602112019
0,706080833267946
0,693570447077415
0,650965388750109
0,647663965096594
0,649828330980896
0,727745832209211
0,693915350056646
0,713219465696881
0,655026249730217
0,669803192901758
0,724050681088667
0,723986543278107
0,694298033171487
0,78400061057802
0,68864097550841
0,718591291688936
0,722586642069607
0,661946939301455
0,624662870418597
0,813735659744949
0,76993422611268
0,766053971689235
0,680122235884568
0,742600860756525
0,706188694539218
0,817098232709586
0,804743638482343
0,80368482394794
0,802918637003771
0,83857928887744
0,705625679875252
0,978974324677289
0,823503204852089
0,912038259202152
0,915038631118579
0,92795136386621
0,762544042366966
0,919973789848593
0,860311226452291
1,06238609130207
0,958054656242106
1,08243427340401
0,903411610620527
1,12190069119269
0,955474960821379
0,911106866284367
0,9055115032425
0,932748396762843
0,841791895828697
0,991353868570271
0,840094911106392
0,89625654541395
0,788176106897956
1,06664474837227
0,934767758210329
0,905045436999943
0,797641616040303
0,991933555450096
0,847897363903868
1,24616825156065
0,751336779985476
0,89471094916881
0,751786344700188
0,911161980408188
0,799710843819398
0,972576437126885
0,821404015106403
1,07637682756023
0,690908435058027
0,986953874903891
0,853078171097886
0,656423148373118
0,713396734090534
1,34109553445953
1,14816013944087
1,05956749109555
0,571539845597898
1,15226301004906
0,961186324021063
1,02212538828081
1,41094866509754
5
0,760033338752724
0,852883532564976
1,24884446822533
5
0,82749891010264
0,764647362602472
0,747300204054202
1,21028596545021
0,887579024324402
1,00999297682635
0,747547371467618
5
1,17879038045476
1,47816317603505
1,16263831724669
5
0,794063483600902
