3596
4000,36533379555
650,420452594757
1
2
2
0,0727436705360058
0,0638785237134387
0,061263831145264
0,0614959156069851
0,0487985314751325
0,066211571016593
0,0601918045592482
0,0588825085071432
0,0605747936690777
0,0609777102252233
0,0568536472661659
0,0607739258411561
0,0615550617900941
0,0632675176230789
0,0560295159403056
0,0674753363927879
0,0535372298456759
0,0773116964468115
0,0613403917353541
0,0609143494783858
0,0568494162552861
0,0654848727771576
0,0560514505995922
0,0656319616007094
0,0671290641642785
0,0749071429378378
0,062842358677144
0,0653555064167128
0,0576232975075247
0,0561383850801427
0,0619873906763101
0,0642682200451115
0,0566888961216704
0,0576230589172161
0,0486792864546856
0,0645460571964985
0,06287517928123
0,0617216165652148
0,0590608305118452
0,058081070618668
0,0497580067025069
0,057810349407627
0,0590216498769637
0,0658398913802547
0,0569974521363256
0,0577741900577236
0,0520156207061028
0,0584931236795559
0,0587659091699649
0,0583106944371557
0,0617440983271534
0,0611105447295374
0,0639799856422676
0,0620033047088883
0,0683169231801236
0,0620059317782774
0,0583285717444116
0,065383669851278
0,0483309813680837
0,0577519870853551
0,0589117958873847
0,0523913586890565
0,0614869237089198
0,054719747942692
0,0688356687999317
0,0523148808686316
0,0598476740482465
0,0467169284814689
0,069623183554872
0,0529894147120041
0,054956954104304
0,0609673662926078
0,0488678857060076
0,0695537781902196
0,061856922379271
0,0603848986679884
0,0617292412483084
0,0497490925171903
0,061519687132571
0,0673283790765933
0,0557655567253226
0,0509528288323143
0,0484075850775352
0,052775385708018
0,0813109256543586
0,0453660932936562
0,0585497555850556
0,0634933473462286
0,0389877176563856
0,0518032044192828
0,046102822171343
0,0471554208823443
0,0490969491504516
0,0511222096627524
0,0578356289541459
0,0491512230317442
0,051197435324236
0,055110456743908
0,0588577330155989
0,0583437738383096
0,0340170398192505
0,100419328400826
0,0184379928363687
0,0749219972695569
0,043483274584207
0,0508598843906916
0,0752313355102754
0,0297539628252434
0,0628921387178392
0,0360709217612014
0,0571155381663545
0,0457346225105778
0,0596258206950124
0,0476958664221384
0,0643588567197789
0,06158242128434
0,040092091865174
0,0470484824089072
0,048120842946287
0,0478580792386066
0,0573087205336622
0,078748665356719
0,0202478740635299
0,0525921137912662
0,0414247582195602
0,0475180184370283
0,055131426728959
0,0618518027719019
0,0264696925770091
0,0538648795398
0,041105222906089
0,0490442072181332
0,0396848879316991
0,0810907503531371
0,0366992829714283
0,0521245881441083
0,0499234217567133
0,0529428273194145
0,0781800022661618
0,0250124837825465
0,0539512868510699
0,0470763744251778
0,0458314766628377
0,0536610241810683
0,0516196407335422
0,0446643857267457
0,0573354943087972
0,0495837307902079
0,033904815873553
0,0579372031751945
0,0350292044986811
0,0645310259918822
0,0402561506372459
0,0450993961957533
0,0567921153804834
0,0969925221907567
-0,00361831683739411
0,112091205668779
0,0210910398781532
0,053013843039718
0,0398747953886446
0,0474891105362428
0,0491432675204608
0,0511183619525078
0,0495134454410598
0,0431337978724555
0,0670713888466328
0,0340310835827577
0,0565365548779492
0,0478405974356834
0,0514202889171615
0,0276088707383466
0,0917495451823482
0,0340096085907548
0,0340808710618495
0,0600928286427853
0,0353104811936873
0,0469651409222379
0,0376584053022267
0,0679414891306106
0,0411726085782299
0,0545246230191941
0,0382267940900367
0,054411818411133
0,0439596842005236
0,0522938251184313
0,049186547732581
0,0539146345774783
0,0371816529854615
0,0593401294322772
0,0595357539952674
0,0706720987903702
0,022534310557816
0,0687694221834275
0,0408004436880839
0,0631953364396825
0,0635807553765073
0,0334370938918256
0,0576717656573972
0,0376992877300069
0,0465233776829126
0,0407271522014244
0,0460543099208441
0,0541916025689098
0,0350558742063982
0,059595652581921
0,0392850710047495
0,048258231573776
0,0525970619450012
0,0417036553598669
0,0541018611532745
0,0670125122080247
0,0886042214073478
0,0294467661145333
0,0520334740790315
0,0403076975914296
0,063794615446816
0,0432770067397939
0,0398165755458713
0,0519746398176558
0,0440583386372016
0,0475099677891192
0,047674469406394
0,0474267893699224
0,0476557611973654
0,0519098582673099
0,0488334194715477
0,0487995535181162
0,0446095081973492
0,0507680380876099
0,0487112289338018
0,0425287967852492
0,0548489854291247
0,0446302936953447
0,0455801106854756
0,0745499110735541
0,0347653712449787
0,052851435411112
0,0489261614837195
0,0491081708685059
0,044394677859829
0,0515847560121456
0,0380899910024663
0,061958958325764
0,0442036711474558
0,0708886116816554
0,0434914279325483
0,0511116024635919
0,0468661795256988
0,0438829407367878
0,0702110538364623
0,031658438811994
0,0634543092819928
0,0449622495494871
0,0675798075462987
0,0376026524384497
0,0743275597078495
0,0384463255612554
0,046974456018233
0,0466960208669296
0,0669185688802671
0,0335246457945733
0,0645951976818454
0,0415672144592396
0,0833832858062761
0,0423409323627469
0,0479831277145425
0,0542199430429483
0,048674786436044
0,0379189182340143
0,0668674873822805
0,038827560513567
0,0996182329847268
0,0412913378774248
0,0423164419690715
0,0273866160794609
0,071988044171743
0,0417386113930663
0,0585161377794973
0,0606392531538169
0,0443523877187424
0,0757149795041084
0,0413112257859263
0,0658675710996383
0,0502284640200246
0,0479676777486443
0,0933109477079045
0,0226768953862996
0,0645597256933759
0,0402466256936108
0,0659621936207462
0,0501064912819698
0,0915894283148857
0,0448400895982535
0,0912434701969843
0,0269936706455711
0,0985750401841292
0,0513669582650539
0,0587397643380218
0,0414149867204659
0,0787012618013494
0,0494312068908916
0,0721072207674604
0,0488684699171379
0,0705752010802326
0,0632299232808946
0,0585702524689397
0,0770170907489201
0,0783740173921827
0,0507844793012192
0,08746132166902
0,0463625564729417
0,0620284749049016
0,0604430902589897
0,0653391786116158
0,0513127950449449
0,0637975479365305
0,0644421046302901
0,0765386271814493
0,0619553469180848
0,058886339724994
0,0649354183633345
0,0625972243610634
0,0618533538048299
0,0746466326179101
0,0706625575681106
0,0708776368741085
0,0666996209252639
0,0663445055628255
0,0632013978865538
0,111825659212396
0,0638325245254522
0,0770680920528771
0,0954551590561711
0,0493367673157894
0,0727214128384788
0,069807937328445
0,0740441132539117
0,0705621299838643
0,0755142836314831
0,0804317522171806
0,0741128010765673
0,0885738453429855
0,0738072248792837
0,0831570792234363
0,0880720205957856
0,0991923745651149
0,11099121664202
0,0869466957773434
0,0692091909020716
0,0851755729581395
0,068601632329196
0,155815175234244
0,0572239222584984
0,120391823703987
0,0645314299180061
0,0983765412850725
0,087883452027361
0,0997169071273694
0,0939339088742894
0,0953154096849506
0,0999683742785336
0,10776091154908
0,10570558311727
0,103683039757899
0,112571226632249
0,104144209664078
0,128267830727277
0,119717442011483
0,103306105177193
0,117662702547272
0,117150042907544
0,123205359854649
0,149595068604985
0,12145480314722
0,163422091388394
0,107139850888612
0,145317576460898
0,11472809588527
0,126674885378674
0,134290547724345
0,131304244494052
0,152471709420267
0,142846601301127
0,15116229249563
0,14635369179277
0,152470425472106
0,144543614767571
0,164746340059256
0,155110828605202
0,16494944387882
0,1569478645874
0,192087253340277
0,150920450085481
0,185796313837146
0,169516071126271
0,229938772820877
0,183873727480568
0,203601250270803
0,155537182512516
0,205636327575995
0,171016267385285
0,207246004456503
0,180931775888833
0,210140889429009
0,191941829402591
0,220236386789981
0,206996936063394
0,213743084850061
0,222291538088373
0,222147667757236
0,195192665593554
0,258771048780107
0,209868542365405
0,250452658861059
0,211488556347314
0,246020831976483
0,220690922356203
0,261303224246957
0,221625078099908
0,282769529775128
0,254443116725842
0,265259589171019
0,252198865962833
0,254759048103494
0,274036092123893
0,268905759495609
0,266139260959728
0,273367457558827
0,271632891038753
0,28680776830083
0,273297502796718
0,29130687997694
0,312834844090511
0,296782873706024
0,296762839074122
0,325903033783577
0,284430971513699
0,334884985456456
0,281734922955739
0,367163217794914
0,293934330684943
0,395294991989313
0,297048187582925
0,346953670849183
0,326984013814262
0,354230913215599
0,331683401528827
0,361731161746677
0,361204285705169
0,363220920267275
0,357909905656407
0,383092379619346
0,357496672741679
0,399410789104317
0,369806862992606
0,408792180322229
0,376926125608189
0,406714987631937
0,383323463159413
0,419728668110646
0,391870329496506
0,512480835196431
0,384563204597555
0,478747494177496
0,411408930985033
0,438701104994023
0,417114697982204
0,43636021358748
0,417267329722433
0,468588853800393
0,449240620901675
0,468364084475998
0,449998986652399
0,48049082022768
0,483863415227457
0,49581571443263
0,474645084806077
0,537958122581539
0,486590121065402
0,534118011508936
0,510202432288961
0,54651595512549
0,511131508144386
0,526022545356546
0,530260093277146
0,553255835937876
0,515713045329458
0,578733921021894
0,514713583566206
0,578618588404024
0,576730387121025
0,594061603276079
0,543926203706197
0,579295280525904
0,576116139753799
0,602192158708309
0,578354664275095
0,622457069801515
0,572319518846024
0,626150807033848
0,600889054312631
0,645614695338215
0,606644023571267
0,680766118436577
0,589411788763693
0,687639263002698
0,626351502994897
0,673216702251177
0,635750383317097
0,675763897402137
0,645398707937947
0,703781245753706
0,645891749341404
0,711062957132008
0,676884565308879
0,719054623694509
0,654421646952915
0,7509760857459
0,669205245141613
0,71667073230364
0,691106668464448
0,775485193573907
0,680192669247531
0,782739421405032
0,77681304880339
0,775376762274612
0,723667954639433
0,761356386614773
0,703777582586636
0,7952066009624
0,713047838897979
0,87015958770415
0,73894393253897
0,881501165268765
0,751223299335599
0,811597982142313
0,792828401042373
0,833640037887278
0,816137126031006
0,90379447374309
0,822675302726523
0,90867029442288
0,83637504994677
0,885183935943616
0,814599312330698
0,895354014382112
0,832462818410103
0,941810334491437
0,821819122838822
0,993992832216547
0,82959048657731
0,972596727001722
0,916236247503366
0,96737249870602
0,881805512628797
0,922972621775221
0,858905947161849
0,977126731896579
0,901172769203185
1,03281709873069
0,903477463052735
0,944178765991671
0,961408250711158
1,06211567700206
0,910066206637261
1,02812125906479
0,914654550281538
0,986318369278226
0,957520919642733
1,0366972794897
0,981586232583628
1,1007491152042
0,950594981135395
1,04725141690552
1,03395212903207
1,06609830731739
0,95536518902628
1,15293609036824
1,05139133533031
1,07268405144255
1,06576673662078
1,12615663958556
1,05256413451022
1,26357842627474
1,05472208943952
1,2113362272246
1,20237720670821
1,10468094974231
1,01126430605264
1,15205508505625
1,05679538857968
1,20588294696843
1,00961102193443
1,17550025408186
1,11046693233856
1,20314906193133
1,07959749977028
1,17534811408862
1,11065285177744
1,30919699713608
1,14080867264979
1,14530199534045
1,10606555769791
1,20013156087326
1,19014542700311
1,23079381137984
1,19439652460108
1,293778262381
1,20619231189431
1,24165018497919
1,27375954549743
1,3448491242418
1,30321485639666
1,26138115817123
1,21438596860275
1,38075436494616
1,23306320229959
1,3529788072151
1,23282278440244
1,37251954249336
1,26541311796343
1,27025372546976
1,31238444531503
1,28009554894047
1,19852926995534
1,24912780583377
1,20201363514338
1,52078327897025
1,22732459887594
1,27529427303308
1,2929576137597
1,39050819467207
1,30463112350145
1,39900378592055
1,35430092678136
1,35941949007433
1,25659723354903
1,47632552496934
1,29309168912508
1,37024723349648
1,24680266730107
1,39356771843695
1,29612863092688
1,54711576536046
1,4500562039374
1,53082975884715
1,38762350113452
1,37340458813264
1,33186395849683
1,59817855158685
1,41155051637158
1,49418924714497
1,35281443070409
1,42623222626876
1,34036201717894
1,51220901338187
1,36998914773382
1,52996293496507
1,42706817094162
1,5473960957135
1,48221687207474
1,51279447154379
1,51815488625238
1,50780208306353
1,38050386483033
1,65731409411124
1,40337672716384
1,4730122328192
1,40002367220441
1,55089847020213
1,27216653100028
1,45062101784544
1,41409211887172
1,51975015407191
1,36292170100176
1,4764062413144
1,49570106139005
1,43201834872073
1,53211333238175
1,84034051770574
1,63059657737439
1,7489849821444
1,49059904578334
1,43438903460847
1,53758888149554
1,52746503013847
1,39073224608076
1,70685268363712
1,42040116350605
1,6632379986288
1,47040928240166
1,59293686126108
1,54952394454065
1,62117011375483
1,45957595140237
1,70292939686898
1,5518104198412
1,59532763545506
1,66409567388398
1,60220254736945
1,54336347931752
1,69099248164559
1,52849927455684
1,58590549683491
1,57487741562564
1,49599391186729
1,43533554052163
1,49928731565433
1,61530666240052
1,85784712182022
1,54216954755007
1,5764529123634
1,59646786385164
1,671071856903
1,56966706870678
1,77269288048867
1,48970388480559
1,6492817107254
1,72457738351114
1,70603652563215
1,57380311428573
1,61854213574948
1,53981300347023
1,62365971180256
1,46604611232228
1,50465055105855
1,62045045718984
1,59174877164023
1,7658180547112
1,85884409630957
1,52933100584784
1,67902905858675
1,5397527281895
1,52852625207691
1,53366338084003
1,5773829796696
1,50232930301107
1,6881754942345
1,45709886823943
1,57395467457858
1,51473007486515
1,61414683616392
1,6518778276711
1,55133481567461
1,50332849946995
1,68759093198204
1,55576467089544
1,87282835210941
1,82850488595968
1,59603483305994
1,52411376394059
1,55552450581764
1,53309996601402
1,755802363685
1,57875374199589
1,55126906969387
1,63779389283959
1,67352270066223
1,65489150829623
1,73276619404055
1,54360806176411
1,76798312613085
1,63896591410059
1,62150762679534
1,73966674364791
1,78434677171424
1,42409575409349
1,56127492066858
1,59319749542857
1,68159928846836
1,79979270830753
1,57076556210586
1,55324784785239
1,65285347817485
1,65575216489922
1,69889539102079
1,47098726520633
1,50762049319381
1,67010933697909
1,63514266605684
1,57651404756127
1,69117129309569
1,47952419574959
1,66035535107241
1,66458371739145
1,50928173235999
1,48972224114356
1,62088941225865
1,56865621478417
1,49248387837781
1,64486565615648
1,68029113174752
1,6030592248613
1,58664653467148
1,63414561917826
1,53789352241191
1,57667599797017
1,64141138943919
1,55879318757909
1,58007323287856
1,51263080543503
1,56250150513505
1,51575771487555
1,49681183030001
1,58566823752396
1,5966658471674
1,46569199366472
1,52994682410049
1,58498549561187
1,63633562113542
1,4760352183205
1,49534574999576
1,54869465854359
1,49793443844045
1,46353907888959
1,49583880183166
1,5323978305851
1,51508792245552
1,44277227589254
1,45471141183105
1,44790603968123
1,56645466049012
1,64796344778551
1,48909921181671
1,45010621361819
1,49028495285467
1,4609193179716
1,46931621644714
1,45482287739076
1,49385362330672
1,50075106265327
1,51753827437036
1,42805965576773
1,41195030494447
1,41348546213252
1,40535727260631
1,44810196658566
1,47627345799812
1,41782109837721
1,55133395924237
1,51122345913935
1,3504382683724
1,41646958044751
1,42870727550487
1,48065494477368
1,43223476715753
1,37425751114828
1,39006319966859
1,4433960557075
1,38191518816058
1,32101168515846
1,40564228688043
1,38176917869795
1,34303554862603
1,41817496960026
1,41921960762426
1,36934031922336
1,40284498778819
1,40540187869488
1,37715453079069
1,43413170973619
1,4245598553373
1,36311379278387
1,43868491949198
1,39346988720665
1,33245628485001
1,32485791053232
1,25381610095951
1,28901970914602
1,36399521459883
1,32209310524567
1,34844055198419
1,36450284371913
1,29530058592107
1,32648335320158
1,30816708868763
1,21869505810735
1,26007888224739
1,30716950080431
1,33297796927507
1,3391701855887
1,29893678563971
1,25420867805757
1,17327488648459
1,24645392320714
1,29297959249863
1,25882387143969
1,20824964813828
1,20665009392267
1,22424999396375
1,24867735052716
1,24613514715775
1,17198112410999
1,12254563100278
1,20572518110687
1,22677263894099
1,18004544616251
1,19379362549913
1,18266290535708
1,17406041777543
1,16947476329467
1,12791083854755
1,13027733500306
1,1344003490943
1,14736438065235
1,12821774183769
1,13241755034674
1,09520389287346
1,11196001441263
1,07305055829826
1,08165023960783
1,13088720230913
1,09467072212146
1,09250777065365
1,09024116482653
1,10654948586281
1,07255841451528
1,05327277464934
1,07452259192402
1,03854702770267
1,02360446113733
1,02103870624776
1,03127604101511
1,05236447042159
1,03229811320379
0,981707664959906
1,0257839582319
1,05877706911093
1,01883423147756
0,998410799780141
0,99428665796349
0,995531302585749
1,0127971656401
0,960997457713752
0,982625951899135
0,986399966123086
0,986999379284013
0,943566680545981
0,953545204002741
0,962485782028325
0,978300844921685
0,953073087144258
0,938423973062944
0,933340706790014
0,933809832911783
0,940114772291226
0,925865657821701
0,910294791071024
0,936870000497573
0,924948563624173
0,91614517287332
0,893108180415353
0,901117594399285
0,918793446849518
0,927528977279322
0,892525269380882
0,868191935246877
0,861431875501395
0,858425112881102
0,873031824363026
0,865004045668029
0,875962350489178
0,882554580135686
0,849597546200681
0,852402660748175
0,837961461683698
0,841447315932738
0,813145004241778
0,8359334088331
0,839577121946801
0,812803942458097
0,807863961067914
0,826580016686337
0,816745573674456
0,802538429792471
0,819834577618246
0,806491087591206
0,784492560599426
0,803343095383985
0,779966799291655
0,786211326258697
0,783399243271153
0,800503470498215
0,78144810695285
0,766569831426488
0,756807686845002
0,756243667758959
0,764535613258371
0,762053997844479
0,739314488504296
0,75821726330817
0,741746587975201
0,745814487353933
0,742932636471077
0,737502521323317
0,722977874701588
0,725847010296785
0,712169630910045
0,721798024379581
0,731121353784636
0,723585004951973
0,701144482671094
0,691975717680307
0,682595207165033
0,69694762697088
0,69418976445791
0,701519804545597
0,684159406348812
0,692341626291522
0,69034251814683
0,689388180175498
0,67436038105285
0,68097594564506
0,664650536527565
0,665029260077125
0,663860269216456
0,663160181610655
0,654260780193679
0,66110597743573
0,664566380708266
0,655507450450799
0,62857339277179
0,629116598387243
0,630136800378895
0,643835589972557
0,623112304073865
0,625727019963642
0,616703445446118
0,616625070514024
0,604540159712154
0,619866900389144
0,609789098982063
0,605748219125483
0,588321492733247
0,611014768384148
0,584151496709343
0,587863951664355
0,597171302200159
0,58371086708792
0,587772682123303
0,599936314061263
0,587130953745761
0,587232655142489
0,573034546861486
0,574152094571058
0,571092472708497
0,572342527424162
0,568169142125461
0,562772447795658
0,549705883269034
0,56503940080388
0,549463162532389
0,548888624138155
0,552620534662952
0,54905356707552
0,532506476726031
0,554712822254556
0,553762122880657
0,539432656514429
0,549568259365405
0,525916640893021
0,550283731336872
0,533088520429579
0,52791587997285
0,531914625011582
0,519893620418122
0,532445101215227
0,52246931375254
0,513449660549006
0,524852336222114
0,533052589495124
0,513527819249985
0,515146440909764
0,527540423806979
0,522622730656746
0,511270784115423
0,526898197472151
0,510049013065021
0,523644302715587
0,519078760524851
0,531377957948522
0,512246198830467
0,517326377635346
0,52319099055404
0,5284282448153
0,51175764634367
0,518790919893703
0,517330824139405
0,529513087842171
0,520734100459966
0,521585306380485
0,525943128582371
0,533663282790221
0,528702725846791
0,530212044799797
0,533040145580982
0,537584922063497
0,538450264637325
0,535058611984935
0,55178931603006
0,55002194490201
0,535402152509132
0,551022694049417
0,545023038337826
0,561561678178255
0,564166468385496
0,5635966258382
0,561086375236608
0,568475438587906
0,553390989260828
0,575057780926762
0,563278583896073
0,572804473373898
0,584812449121143
0,58800725744608
0,572548681342847
0,568312270588156
0,583517319238107
0,60284320052766
0,591453046997797
0,605601180047259
0,59452919264356
0,606959238553725
0,611305916183022
0,61160679139598
0,607862092227537
0,611982044890803
0,613311843283143
0,643644533568983
0,618238109334337
0,636829161626546
0,626714727265043
0,650904610147256
0,636781695515516
0,639563131796494
0,657119444072165
0,657564031881746
0,653877289710592
0,684468889994785
0,658979988212285
0,672203952904424
0,664008289554614
0,685256617438292
0,676735979077307
0,700731386021022
0,679277703971264
0,700592481602282
0,690742456050452
0,700133003802668
0,687845820846804
0,712434645105872
0,690657970710996
0,713305677565031
0,694981449152353
0,710287499750158
0,697076558707332
0,690589443150857
0,666525756088947
0,706603055738921
0,684623653386921
0,687770183153203
0,673830534498813
0,685356174373639
0,696146376244605
0,707094916820755
0,691678459437385
0,694733159705309
0,679940199369097
0,702732538367744
0,681946967652259
0,695212177836695
0,677842383070779
0,700656487256193
0,688322099268356
0,706090748797347
0,691405864294283
0,687728342515069
0,673812168718974
0,700440147313363
0,6912632639222
0,692531268531124
0,69916391232639
0,701518614390638
0,694558819662153
0,706311374583941
0,688931610523333
0,708974267682575
0,697034543058262
0,709680325877514
0,687470498038664
0,707175112308663
0,686491474714218
0,703548522871168
0,69152128991016
0,70955553295234
0,677921555701087
0,695494459026508
0,679256355238993
0,700885174606903
0,672849982579819
0,702341442333699
0,687913109128519
0,704970588448878
0,672834612736096
0,694128703339726
0,674435309195192
0,684785098302957
0,666555633236469
0,68147173374226
0,658452451525317
0,684389723359864
0,663523919602958
0,675708103110231
0,658403454265028
0,665085248030445
0,641184260940959
0,653209543091641
0,63810241502994
0,63565410100659
0,624562748728724
0,641482470748532
0,617630781943414
0,623790783041314
0,613530867616077
0,623971507965579
0,609603047013328
0,611401896600834
0,581137347414686
0,594230040565243
0,5746602541097
0,583494011588779
0,574425794233865
0,579330385996962
0,55973713766383
0,576951486858557
0,55636209250402
0,578166551707651
0,543552021157265
0,559873298535715
0,539906139921775
0,554916651426914
0,535477789770088
0,551838335576671
0,526466210731886
0,546000707872298
0,521925553189844
0,532408124683881
0,517452776225466
0,528619955147645
0,517466544489768
0,520576806276323
0,496390517242343
0,510297463018273
0,501582116424434
0,509731798153842
0,496595139199871
0,508060860147557
0,489353091979374
0,491804560547243
0,484748093091019
0,490616512857741
0,478479728381342
0,502673936804255
0,480689070775888
0,489554817675819
0,481951067844806
0,470078044383171
0,473814602744344
0,475872411942743
0,467549021944878
0,47800362206834
0,463122419947749
0,469231314410321
0,461575921645287
0,472127008144766
0,455149360399765
0,468400967401362
0,450680045983299
0,459700142409589
0,448532465757088
0,452914739920514
0,44893198687098
0,456608882119968
0,448664566538567
0,449106231101068
0,440184619685147
0,438501668752095
0,433361694722666
0,437903337586652
0,430770594616943
0,434154311084641
0,428263128194052
0,440662655355803
0,432389175870158
0,430541025733356
0,425647469524712
0,433499918223446
0,419449013850899
0,437906007117346
0,417429356006198
0,427765883071421
0,422689461264698
0,427648664543429
0,410065998755216
0,424757764849401
0,409981696569223
0,419513182190835
0,418677067888374
0,414112948919572
0,408195153566509
0,411255870541462
0,406342843492824
0,416212919649085
0,404873170828051
0,414351124506
0,40148558663061
0,414219117941887
0,402376408802059
0,408838694438397
0,40028478593306
0,403983253133578
0,399516188056782
0,408460705363617
0,388892112556162
0,394686108669752
0,386121641056691
0,399050588927987
0,3950133853295
0,399498997311803
0,387493651489591
0,391638701009477
0,383534194111872
0,394127940618352
0,389792708702847
0,383921240360515
0,383680746596187
0,394162881317415
0,380516989618573
0,385237372078407
0,386207501876314
0,387534393901521
0,378428321894418
0,387111327563675
0,381255176050817
0,386336182715641
0,382030469246901
0,388078060780817
0,37820755426451
0,381812043769437
0,372022202577242
0,386174178070019
0,372876063866825
0,386125111533047
0,375193316015393
0,390658572882033
0,37176366921657
0,378982352676159
0,371741732753772
0,380013611818848
0,376360690941662
0,374920238464811
0,371014038194874
0,381954527158363
0,370806380636615
0,377950421881166
0,368771453430616
0,371418453282899
0,363945614409714
0,3723374268838
0,366766786653848
0,36784028434903
0,359419273952771
0,371521895084101
0,36040068139417
0,367561403246883
0,366418081552437
0,366269444280519
0,364969914884886
0,369829251640267
0,359650180965122
0,368146963697593
0,352757412966449
0,365701268854469
0,354012286188007
0,363767793957039
0,361170508510083
0,357807876399707
0,356452351650377
0,35715079700579
0,350961019953881
0,357666505876815
0,355670775219057
0,362168383387846
0,344800809843374
0,35367434830432
0,355852020215441
0,357235947166154
0,354874599750083
0,356467981693833
0,350592339468547
0,353266766050606
0,345060803787403
0,348371208090265
0,343944215765001
0,350014185484223
0,339148950225265
0,3509908931523
0,337504052860453
0,352683750588809
0,337154143179432
0,348468431294363
0,339811977331275
0,343583001909432
0,337748935661584
0,345887375662016
0,337770835959734
0,339054028292387
0,330991940247676
0,336241403609211
0,334814526863719
0,341039646591849
0,332278761934927
0,336008517135422
0,327972757923465
0,334533774218773
0,323425095036607
0,332626468585728
0,325900409397874
0,325012781828447
0,323205517915138
0,333401616482164
0,318508376527342
0,328844789049712
0,321348978619034
0,327986112921173
0,315448166225453
0,32451969985618
0,314955201639119
0,320002722401584
0,318467492335461
0,323531312295675
0,312531896556358
0,31343406138126
0,30916563783011
0,318034675684927
0,310749870916489
0,311425119619195
0,300618886379879
0,30996762933264
0,307211697047368
0,315185188681297
0,298742633426309
0,304445548936567
0,304918669705749
0,306708690342762
0,302040225320114
0,305791660935445
0,292607056449286
0,301695345108609
0,295702021624708
0,300728886844338
0,292252114017901
0,298737780118873
0,295461406886149
0,295673669186016
0,288452705347633
0,292237391310481
0,290504966286797
0,292184425761749
0,287855890589287
0,289821163293736
0,279018118985341
0,285853212482923
0,281186585454676
0,290406944621997
0,278217261158906
0,284216885563369
0,282616802575383
0,286233512202133
0,279425152343635
0,286956772372565
0,275114097642087
0,280536870281124
0,274741131633596
0,278747257379971
0,274575353179638
0,283165114236533
0,272038156136088
0,275780715059934
0,268460473986648
0,27534368662388
0,269198261889538
0,274311395284542
0,2679961452473
0,271488907622162
0,266928345643047
0,273480401970828
0,265128748526968
0,271799244781085
0,268412597456002
0,267297032700072
0,26529076417184
0,270778336021296
0,261268608640096
0,264666406926935
0,262615233690546
0,265023706080914
0,258085693774201
0,263705990245719
0,255751456177315
0,265986818975044
0,256903306465104
0,259713984846255
0,254923337011162
0,260705696158442
0,250120728869837
0,260245235339978
0,253709746435432
0,259432069206999
0,251446089856142
0,255389286388216
0,248965661124621
0,254715956926739
0,249053105434419
0,252283463688008
0,249325363652271
0,255240117218213
0,251449385870715
0,253240692329943
0,245429510825576
0,251170386369162
0,242579335402408
0,252390450913325
0,250294299421844
0,2513376622398
0,243440346754488
0,255458874871409
0,244538979335821
0,248417499489763
0,245693574921287
0,251346499223621
0,246038952750034
0,251768472378401
0,241935948356131
0,249073015015831
0,249933739584871
0,24644081078014
0,241306129986752
0,247601689867356
0,236646580331033
0,243615955467257
0,239446406052616
0,245284956952708
0,243341488357261
0,242324548854145
0,238978915947173
0,239488568340639
0,237039829258625
0,243764922151571
0,234978289455897
0,24217238905231
0,237554178993949
0,24218404370232
0,23349727479586
0,239842528651179
0,234667147103134
0,239138070006905
0,233361725183493
0,236905094312839
0,232428689728081
0,235516792125259
0,233448402045947
0,237507933351053
0,234252047760209
0,240572665024564
0,230274340523373
0,235518590567324
0,230740274637953
0,235034686696163
0,230505937570882
0,232528680441237
0,229180673017243
0,234149138941208
0,226222171127059
0,229264844934571
0,228261481141086
0,231752699599767
0,226528467600255
0,228223419005293
0,225315814087407
0,231274819565319
0,223726504129477
0,229408751096174
0,224550464507508
0,231481933265647
0,22272251563737
0,22707652352084
0,221412886545733
0,230944750284991
0,224146796352754
0,224917889996955
0,218596338325681
0,226372608150327
0,222099871103963
0,226738186145437
0,224430987710037
0,225543287569603
0,221594947290031
0,224070759232689
0,222693498122541
0,22222586286035
0,216604315036616
0,224876356088929
0,2173947056907
0,22133893312601
0,2155177167425
0,21898077656981
0,218208421555086
0,220324999292899
0,213270684735119
0,214578730698497
0,213575425358372
0,22038868757313
0,211336058382865
0,212859611425369
0,212016157499985
0,213018114331524
0,210868368569646
0,213280039398723
0,209249825346511
0,213027542932333
0,209231787165899
0,213527924391376
0,208598537944212
0,210548253825185
0,207253879901215
0,209934177812156
0,205936291710849
0,213201427366956
0,204544820216269
0,207793072583984
0,204858491302702
0,202579626367378
0,199109303771398
0,208271371912975
0,204666679559752
0,202592823768084
0,201994399839479
0,201859917998395
0,196987105434265
0,204409117397324
0,198276297464951
0,203102651565111
0,197655433086429
0,200228284451027
0,197815456636034
0,203603116396937
0,194675967021853
0,197937482183706
0,195339327711176
0,197431873044598
0,188949542693989
0,194639421421852
0,189795620908637
0,193145662884898
0,188795837134428
0,195483040936607
0,193630929296993
0,196419951417272
0,188310056257094
0,192353268181839
0,188022151089318
0,189537073844148
0,187084075643149
0,189355829265326
0,183829635925342
0,186519666286667
0,183375883125198
0,187585223072259
0,182922356940628
0,186026432888446
0,185045296087847
0,185909296569421
0,182702087638198
0,184881574125804
0,178473775497071
0,185628164722497
0,181373081215955
0,182471353849511
0,177585819601415
0,181420909405607
0,17398430051812
0,180525626181926
0,177944839403004
0,180945221353046
0,176109833752838
0,17851865459133
0,174611926548066
0,178876138773963
0,175416131850943
0,180439804903092
0,173640256410336
0,17371054731418
0,172789702135834
0,174727454272212
0,172756338204577
0,177541279153114
0,168107713331918
0,172691603689666
0,169556601287998
0,170309095423073
0,170453989463685
0,169821430539981
0,165592898618113
0,171827647790484
0,166187328228237
0,168896028798294
0,167788877686011
0,170678412602757
0,164981129806048
0,169087710450733
0,16570411547407
0,165753099014948
0,161706145330302
0,16847726645654
0,164556565351822
0,167098860303346
0,162281989255174
0,168011185638411
0,166265228755942
0,168046107335501
0,163622199085001
0,168580155594435
0,160668796192111
0,163323644808059
0,162122714094705
0,168060241104371
0,167289978926827
0,171997628306138
0,162190840425469
0,16909544918508
0,167464838430215
0,172528449411128
0,167337916697646
0,169609838234961
0,166372071449625
0,177331411572604
0,167121214958641
0,173708194491369
0,172170249476781
0,177564508651333
0,168439623743921
0,17445204100113
0,168302683496013
0,179320750632206
0,172606148977183
0,18132862885707
0,1745347896189
0,172474116234682
0,164763629153166
0,172127569920326
0,160864064204183
0,177649228823048
0,174967548417537
0,172939953213455
0,165483254916236
0,170131470055115
0,162968593669468
0,16946378743976
0,152097775622915
0,160264615964054
0,159224493769087
0,166954935665669
0,162172523722258
0,173750160023213
0,156872665261467
0,166743334395306
0,164168730859606
0,166393197568709
0,157538673240364
0,163831431001028
0,164296020636628
0,164976644162271
0,158605478000469
0,161722886739398
0,157074146240893
0,159358627924657
0,166320964768174
0,161232308499396
0,16320326264336
0,151576328516754
0,161097895879817
0,148884646288316
0,176163313334682
0,147487017292205
0,167905510202311
0,135243380301096
0,177734128551251
0,14079719476475
0,177977705114686
0,127704093971598
0,183367916994796
0,133809763487487
0,181719986106474
0,130459655230443
0,169754825332726
0,138437472213035
0,167920291558735
0,145529654884747
0,159176347659238
0,149243499987877
0,152041212774704
0,149977691606569
0,145038561284527
0,15733960653036
0,141493596099776
0,152364812784354
0,145051719634662
0,146489815820979
0,14425279528599
0,147028907439233
0,148570095847934
0,141499844449704
0,145295993405754
0,14161370851005
0,147484049637448
0,143264792626983
0,142167587747207
0,144596080584522
0,143639916537909
0,143124925525846
0,143011638596561
0,142137274971167
0,141794117159409
0,143303337974593
0,143964717102687
0,14116083387325
0,141246764559735
0,138326909954896
0,139598564635142
0,143007451544213
0,142830963929364
0,140753627388805
0,140819388793556
0,139966458083649
0,140024507877871
0,138340055250955
0,137935195747693
0,141026908745253
0,143492604325069
0,142170062503788
0,142203126926941
0,141866238579531
0,13933874155408
0,138507632007692
0,139877269398399
0,140205409387831
0,13926975059075
0,139464326029775
0,138254709446013
0,139755634986316
0,140232654698057
0,13903424896639
0,141926251752786
0,141608483008376
0,141372339068529
0,141686520095962
0,139347579780208
0,140834160435113
0,14021740930345
0,143247858489319
0,140937208798425
0,142621420967265
0,140720942336303
0,138712898352051
0,139215988132739
0,138887166362755
0,139164737161084
0,139521498668988
0,138636537125345
0,140989867815656
0,139917631505531
0,141084922513848
0,13652064257673
0,141278708679831
0,13902928633128
0,139552888747401
0,140283590589635
0,141103035559158
0,139856998490324
0,138295599265089
0,139306419886526
0,138406079536941
0,138963256252732
0,142108242972534
0,138392981355137
0,140490955531468
0,139739733905439
0,142346058327219
0,139558467057681
0,140439214338664
0,138052738638436
0,142435890777948
0,14246209562508
0,140940644343763
0,1415761211119
0,140468043481642
0,141327277295231
0,142478446020606
0,140277731212428
0,141321319396518
0,140180144590347
0,142055915274656
0,137937755515889
0,139437545742981
0,14142188968315
0,14117292182638
0,138986328999861
0,139545612732709
0,141656830744321
0,143908809955433
0,14147092516834
0,142459704791655
0,141438804371172
0,143336500730745
0,14356217602363
0,144050627558528
0,14359268941646
0,141701881675614
0,141290046022317
0,143213911915083
0,143143048269292
0,141324593985072
0,142561325489028
0,145798388330355
0,143612088738891
0,142290042172267
0,140936754841938
0,142928791342313
0,143067168095893
0,144146355023142
0,142190703747743
0,142704024680174
0,145809699298626
0,143897564945471
0,143047987454451
0,141703846432207
0,142487484386607
0,145741670372507
0,142578414608187
0,14335409065336
0,143464267338955
0,145950479501107
0,145380968709075
0,145543166501692
0,143139136456307
0,145333802683721
0,14464425935447
0,145449048622065
0,146888069353122
0,146482948213713
0,1428895640647
0,145256637064461
0,145830311620032
0,146655432704251
0,144302800505048
0,147179428746358
0,146284260071592
0,146331532268286
0,146214112313721
0,147033716711649
0,146164733083872
0,148895975493113
0,146805063072776
0,14862514005181
0,147426913266505
0,147476979216811
0,148420503422401
0,147674240205068
0,147633401708964
0,148423378847972
0,14477125833277
0,14764245482684
0,145848531153568
0,146140430928729
0,148704010365866
0,14882078338518
0,146927068715933
0,147906905641773
0,14559660963506
0,147261455775445
0,146843031174755
0,146023948095481
0,14616917645259
0,147918699705549
0,148015876381587
0,147337502082604
0,145809305331606
0,145028594020975
0,144546785988377
0,14588700338132
0,143366827058311
0,144992378631837
0,143755895166669
0,144255109491806
0,143130170208093
0,141881758108528
0,142797202398356
0,143631765594411
0,143227817951954
0,145781730603263
0,140383974409175
0,142459875890779
0,140353603074971
0,144572591457891
0,140849303360255
0,141726200934682
0,13941510186355
0,139688349947907
0,141186222850684
0,141993527359202
0,139596153500784
0,140530917873068
0,142980679826249
0,139560888376863
0,141064084744076
0,142953725685969
0,140323827076994
0,138701594898499
0,139199675651681
0,141707475369489
0,138649467424233
0,14005256750538
0,138447083949591
0,138963407508393
0,138875111675659
0,139953136705244
0,138757768214564
0,140488348438878
0,140462653019449
0,138578498579935
0,136655200217423
0,137440883451323
0,135194052989196
0,135087746785051
0,137338718004467
0,135241560915761
0,13776229149788
0,137458612546171
0,135056504572806
0,139459440644299
0,134283402363488
0,135111885540493
0,140002978802218
0,136424716059312
0,13404425240535
0,135914289070549
0,134170603935789
0,133393473735323
0,13528752490456
0,135930090012618
0,13679646198615
0,134361806402308
0,132402756379249
0,137322290927788
0,133778649017017
0,136237742459475
0,134129650396288
0,135022082420008
0,134717730049
0,136887419070005
0,133084885473845
0,132794999593573
0,132737604060532
0,137202726041714
0,136760932969398
0,132718762470853
0,134358253183862
0,135290369566478
0,134094713416059
0,130881518847838
0,133409679951046
0,131355055421067
0,132147350549304
0,134851044882974
0,131824308351335
0,129560113572747
0,129954337153226
0,12920831431778
0,130406292612667
0,131453916442838
0,130498084399545
0,130095151581109
0,131159689344282
0,129708240346886
0,130346302113659
0,129106024512563
0,130274267009096
0,131709671433698
0,129702695239389
0,13104734042904
0,1281351819066
0,130173671543879
0,128107881555916
0,132428632691661
0,127381895524836
0,127390441140778
0,12755940237695
0,128480374783067
0,125527018598921
0,128003929196415
0,125315056346302
0,127080906321875
0,124501384375918
0,125287805089255
0,125394415893807
0,124825895069858
0,125207328610041
0,122514596348299
0,124255991356247
0,12527330774452
0,12317016480984
0,12077865034607
0,11986165172309
0,126283360335759
0,119482637121989
0,126103966655929
0,120853272318804
0,122225019004904
0,121355829562186
0,116886516277249
0,12087693234506
0,117951962668031
0,119324979125445
0,115392401957052
0,118272302474942
0,11631328941796
0,115928352774346
0,116333178960087
0,116890576213184
0,116639485289049
0,116855540388578
0,114120276918277
0,115639225222862
0,11337320785354
0,114842853094138
0,115301499807994
0,113664999359015
0,113864823142474
0,116125743620545
0,114315583808778
0,111471185527579
0,113157870757369
0,116523179846131
0,106585004102042
0,112284687192293
0,109335099375296
0,114921369358741
0,108497405851316
0,114217408896633
0,109265416404945
0,113889617483304
0,109624713782017
0,109001280414723
0,110278811826606
0,109449677171745
0,109208430998442
0,111717080533139
0,107660632008432
0,112104357045438
0,106326685001137
0,110257322180245
0,108986314237825
0,110293581512672
0,108387230174793
0,110009969057293
0,10699589401885
0,108342362919692
0,106061247149824
0,11068295844001
0,106573089931426
0,106762823195537
0,10580525103397
0,106765024910087
0,107105338214614
0,105713949297479
0,106497847211198
0,105503387031319
0,103464301376037
0,102806290762932
0,10566512018356
0,103940577802122
0,107334545867655
0,105315651451322
0,102980724185433
0,103094983088579
0,101895839367428
0,103579974875716
0,104079694230796
0,101791122327894
0,101630327264789
0,0996433888129913
0,104567626244561
0,101110538751452
0,104293399540845
0,0983377730760106
0,11166822986993
0,0982494441997568
0,102379483855738
0,0975422479017746
0,0982037212163343
0,101161786006877
0,0990358694008504
0,100320037729329
0,101040547436923
0,100841929557628
0,100755663941154
0,101293699486321
0,100998396715992
0,101451405710533
0,0997840986646901
0,0989033500772784
0,0991839557935172
0,100391423336238
0,0988298054479755
0,0968720516098617
0,0986616954054575
0,10360555164555
0,102342798119114
0,0950948794602828
0,102265247022211
0,095318456451235
0,102852341973533
0,104470509755331
0,0916589057492776
0,100619293675621
0,0925760637748015
0,0991554351157635
0,0936786147898716
0,101317953558012
0,093916982178037
0,104876902133453
0,0928651645456844
0,104470471492969
0,0955928270295447
0,0995574047954764
0,0975659792077268
0,0986619315313122
0,0967244409423377
0,0980594796524999
0,0951773531429227
0,09725822755639
0,0956034892944825
0,0950324371381486
0,0958609611644253
0,100367285967986
0,0950406819620911
0,101873109153343
0,0913920276922815
0,0997973647839414
0,0927272569596654
0,101418970153485
0,0898889175159519
0,104498568663072
0,092690389395261
0,0973076755058505
0,0940756515768167
0,0936222412480861
0,0937075239486111
0,0962532363191051
0,0933297947021826
0,095331301354401
0,0979574323272245
0,0946060582263882
0,0964178702581354
0,0937413930773993
0,095653200018689
0,0976005940506426
0,0961826081421695
0,0935225702406875
0,0940336575408016
0,0925300730164414
0,0957313863712325
0,0956637737495248
0,0956783274844755
0,103580852280699
0,0927029269799622
0,102077974458397
0,091218921908724
0,0961777284408499
0,0884046509056612
0,0948240483874218
0,0886401660221341
0,0970691062768766
0,0930294418721948
0,0968783010385606
0,0950056041201184
0,0972065351254072
0,0931236285608236
0,0963215058912246
0,090396498509943
0,0971792644154226
0,0924854749603495
0,0954765796353673
0,0944978388988762
0,0946374782827293
0,0933705814226827
0,0926965067366182
0,0988701716236491
0,089575960794364
0,0970698330249251
0,092042109875798
0,124752192404439
0,0794327299209024
0,103538985086846
0,0922728336251644
0,0960316356041734
0,0917868404194456
0,0943595643466626
0,098611894938955
0,0981937443587647
0,0936937831493895
0,0975604554437139
0,0916456293302586
0,0967053443079385
0,0968779246379683
0,0965383360398611
0,10516099827994
0,100732178865793
0,0897543348091545
0,101344117404257
0,0882629035395058
0,10877617653076
0,0899780378902796
0,0955085986771307
0,102211983554752
0,0948153851022261
0,0993206716295977
0,0951852073786599
0,0982865458726887
0,0941915081140942
0,10237476177887
0,0940171645900082
0,100447140241699
0,0968007477811569
0,100210515105827
0,102147656583552
0,0982055854898123
0,106383278961952
0,100106645742011
0,0984354951077779
0,106723361522276
0,0945683838020234
0,102376072848108
0,0978193568491566
0,101179993328637
0,0984216861366081
0,111418930123637
0,100061763847569
0,101902337159491
0,107685591978119
0,101175425285658
0,101159814007376
0,106589336211667
0,100378465505875
0,111322528497939
0,092176865650554
0,130441387532995
0,0936234981775708
0,114690103716155
0,103602791132076
0,103393140998596
0,105486938740931
0,103835392947184
0,107394122907088
0,103943809245042
0,114311762059088
0,0945855143439975
0,118725880490199
0,0959705291972932
0,127450167694085
0,100026252727393
0,114576033560428
0,103114846113222
0,112228254209075
0,106510559912805
0,121365953278299
0,100721018301501
0,118365465700475
0,126106951668228
0,112815311088084
0,119802344016772
0,103773639200977
0,11737489279732
0,131622468760445
0,103627881286956
0,123522964385827
0,109107999191765
0,12124642620388
0,108007954566656
0,127603455559742
0,117422509211119
0,11138230431987
0,120456958428956
0,118286032014748
0,114434689393833
0,1366107132174
0,110609148631186
0,123546279482336
0,116033724530172
0,127648858006294
0,112118666515759
0,174285092986741
0,102228582100188
0,153101356430895
0,113220296503434
0,135182471424224
0,1249795927984
0,134352685019602
0,127881642833248
0,142184414339208
0,133883250788305
0,136447261709412
0,133672973560633
0,159212350005927
0,137818793470297
0,136296772368058
0,149209854904159
0,139129878863332
0,153829077289709
0,166280966143279
0,167031107696411
0,155179937818093
0,15357010539342
0,157534963981061
0,171932615720118
0,146779421460168
0,166389218376209
0,158843062253481
0,167558698750877
0,161955208368705
0,16587047942239
0,173812124791319
0,162586774110862
0,17466916335257
0,16731145494862
0,17705146604175
0,18778739082118
0,198387766872669
0,187398586479888
0,17554174772847
0,21597289538237
0,179772056123265
0,193153164992596
0,18741398346179
0,195854573662758
0,200529842113023
0,192017298972075
0,199144615979396
0,192222911005439
0,22277962010086
0,200362082890934
0,211242811629226
0,217720236404269
0,212962794263583
0,228874397152765
0,206087535502235
0,393919739774103
0,204787093946932
0,257151199839447
0,233746626154417
0,26995607093771
0,275090254527648
0,266742795736962
0,273292325594794
0,286671610109512
0,281693342968562
0,301870904634802
0,30234029190278
0,315579859311303
0,325203626092425
0,326233680276959
0,327443607369252
0,366297854768216
0,339854725869152
0,37855239887341
0,368829067236224
0,371532871613233
0,39083897573122
0,407962966399555
0,397309194878341
0,422174017094212
0,410421000024989
0,441544562305455
0,463660484944565
0,447050997302609
0,465281995241771
0,469590873453804
0,502126360439683
0,476122191478312
0,537436631892388
0,526023931438974
0,523594582590101
0,528567404150399
0,541237690665683
0,552499862984844
0,540801016839156
0,604182354641039
0,571287715880854
0,591461024162695
0,588251889165873
0,602631793309157
0,609205748810101
0,62746480636513
0,630754139475045
0,621186815143642
0,653915478343644
0,627557384353035
0,785417203096986
0,667654156270493
0,639490514440835
0,653195034330303
0,646643585914531
0,726557685616679
0,657390261567275
0,70475552182915
0,677523307980473
0,675667309144441
0,664628177052458
0,683258492159109
0,682050675280624
0,675737054687646
0,680284948398754
0,660740371239204
0,701365305622435
0,665831139085511
0,700442144631181
0,757469057965671
0,673648602276138
0,676898823177661
0,670341265220648
0,686397174323232
0,678820476168581
0,690537388168649
0,682708326181891
0,716598786778805
0,654058092263767
0,672971793831832
0,630392168241906
0,693643003574739
0,65232580274297
0,649344342914948
0,636998800335363
0,626098323939721
0,626357584956477
0,597813326207949
0,591512691624719
0,676526343918929
0,592647140321026
0,601015834957209
0,58016281372349
0,584511889221043
0,579017224778535
0,574660494325869
0,581289402675168
0,590452336250097
0,555227951038097
0,572034269773031
0,555421650859921
0,568429652971057
0,552975920365897
0,567769381356791
0,558741866070704
0,553568373989702
0,546075384502974
0,556770246932743
0,544367752002331
0,54981996697872
0,546365555915781
0,547039588968781
0,536709314325428
0,558944306392102
0,538559454488276
0,560529065004946
0,539350059719911
0,545811467624829
0,542475492566883
0,545263180279439
0,533559442509831
0,552113588497863
0,547447413885494
0,541309981378777
0,543495368686344
0,547087176797271
0,534656427946313
0,541405304392919
0,533489870792581
0,53309199247138
0,530462822793917
0,522610588641862
0,586877372194453
0,543704680565099
0,523168880017196
0,53451068843995
0,517119949292296
0,529232481205313
0,512577487880683
0,547656140430721
0,53354254454085
0,512677547799547
0,513549142423079
0,502770194637945
0,496651154595295
0,513131488634516
0,491221916973399
0,513249695779495
0,478991783899443
0,524537144640221
0,541876591363647
0,555929244422314
0,525619611195841
0,496497505811069
0,473708394808671
0,478068761633743
0,518813605591456
0,479285067356386
0,487732245964385
0,471905785786528
0,506375890387906
0,49784261949202
0,47117816416441
0,479085114283262
0,459834127895476
0,494142091578079
0,486266356232307
0,46641539196346
0,460565545005686
0,493382218300783
0,459813454294466
0,515325434967968
0,476921824740455
0,467852443038231
0,443874367109415
0,44754893717011
0,448547789810431
0,443501657271665
0,485258497457527
0,434856008315255
0,442971194351217
0,4311757263743
0,422786877872252
0,430546156275675
0,41694107869755
0,444153630958143
0,394824874264027
0,452318602444222
0,396777227124169
0,420159224265876
0,41193152644176
0,406343405905461
0,410003663164777
0,403258979052879
0,386754725002451
0,399289682524434
0,420343750478952
0,385954775513133
0,397093190868011
0,387944649246971
0,376463484451358
0,407543781870779
0,363254210470607
0,374717388771157
0,375225652465465
0,376908369831537
0,408678632598241
0,394966337046072
0,383440501923667
0,361033427089328
0,353153917607161
0,359807395165202
0,352594092236203
0,358715300914076
0,346510951032481
0,357451126997027
0,361660425333763
0,345602902195496
0,388206525561258
0,35411954609318
0,358345224425473
0,361590144145874
0,358914447966897
0,367352667924245
0,375587608425833
0,377158978918951
0,382160262625082
0,372479325283304
0,395147003974104
0,374721044677778
0,396807467094916
0,385541285220461
0,401449751575369
0,398857788596868
0,413532218977658
0,415591695659234
0,42213549524901
0,429737687579297
0,438551537516195
0,430911571395688
0,474838640278773
0,438223423809457
0,48396225491507
0,483340580073704
0,509693223583563
0,50652599979902
0,505673980996956
0,517713766508333
0,515682309889078
0,528592323954589
0,535040524092931
0,538275921545556
0,574529539506795
0,548444252629019
0,557570199559187
0,55745921583707
0,577365555747995
0,574586193954872
0,594309990270129
0,585847435784835
0,594785575420669
0,625715556534585
0,592989750393679
0,620004760418459
0,60085401494537
0,616185832818146
0,624308113972514
0,61108745689415
0,620803376238919
0,621591299957745
0,64520016283396
0,628959041413055
0,634553168061901
0,636047081978897
0,634571415797667
0,643520867042451
0,649254283609301
0,652629566890479
0,662739436183698
0,658001499828916
0,659920350601798
0,6577370534572
0,707412030507429
0,687780875911047
0,677346317765416
0,688920161059413
0,691573408814563
0,704042985393711
0,689485955161572
0,707462548746763
0,713827921279401
0,709145076389034
0,725144793778027
0,714096895023516
0,732083630721592
0,734720532286491
0,755379535762633
0,735541771852409
0,753692788458516
0,742579275591274
0,718461341947102
0,819876260730774
0,74732832250191
0,773060394146221
0,763322962810149
0,773481207306707
0,779166674368385
0,779077623972312
0,776596160899346
0,789192471425611
0,783076109542703
0,791066710741569
0,78694817586827
0,777582955716433
0,774352707752067
0,775157473477089
0,805620947104186
0,787548919373589
0,784560804760536
0,787943716147418
0,787619569016517
0,783812327907033
0,78984566791782
0,799963535226443
0,776591936031925
0,782540349750776
0,782264312298412
0,798124689573279
0,780767293340199
0,776899390266256
0,780577614525039
0,777456723868291
0,777619347552248
0,804588492392236
0,777762490253022
0,800194048393448
0,793659514063757
0,803802538028481
0,800373167611131
0,805009692910157
0,807171063137171
0,825287576672043
0,820426816120629
0,822582458316113
0,810968599805207
0,829056716113898
0,831901305943104
0,831802411912947
0,836265200864156
0,829432445655629
0,844155136600987
0,835642216361818
0,816918943148576
0,827823659311542
0,821266334454184
0,837415239631127
0,824552640391408
0,814070444524197
0,812207324134417
0,817022752842082
0,790141253034568
0,815394247386864
0,796852056284257
0,775392985302707
0,788332945120142
0,764174261601764
0,770998661352117
0,769508869168444
0,761245439602156
0,742964590799639
0,756362952593302
0,750340571496115
0,743426881432184
0,749414862777051
0,738165692201001
0,72811092815572
0,735239678200671
0,735578781838055
0,735169911242921
0,731975144700847
0,728623296808121
0,737541932838531
0,733592706326313
0,731178372481617
0,729455516223658
0,730386908646744
0,738867806421203
0,735891682738409
0,73953509780047
0,731895834744935
0,737052973339874
0,721091538315978
0,728177183709887
0,729997678569175
0,732651307625003
0,718477286579145
0,726187045589024
0,726578482361626
0,728553365017255
0,728079879079789
0,721236565031922
0,730403074311013
0,728412006247674
0,71794704418164
0,724437463135079
0,726676280897015
0,722387284525233
0,719339254860205
0,716748715381327
0,723503935409381
0,725488575207732
0,72980987253839
0,718689347626079
0,736341905089386
0,731316349373545
0,723392620836969
0,727271404933676
0,726328342070585
0,720086682811658
0,727844243128003
0,720600580588391
0,717655776560663
0,724217648678606
0,723918049737051
0,715436807791408
0,715593758068814
0,714819169272064
0,710343214862973
0,699322917874243
0,703101653038631
0,697248420115823
0,68939942416551
0,686823394706453
0,682826567448815
0,670121446022793
0,666124709051606
0,663539779191619
0,662479632205384
0,656283276836838
0,649924425732885
0,644506470090033
0,643537280770076
0,641969902218641
0,641546045312671
0,637650983482378
0,638900660177081
0,638148303394979
0,62937339977001
0,626586807057374
0,632167761218292
0,631053107795
0,630846054719689
0,631476992338287
0,635986925523113
0,631578546359232
0,633949044984271
0,633338039882509
0,634013149877015
0,639235058808166
0,640747461776325
0,640679548236768
0,6408453912898
0,647931215083756
0,64858688387641
0,65653513074777
0,657867903808916
0,657076553340516
0,662561723947566
0,658981524572123
0,661011578460264
0,66311822721401
0,660627431325531
0,671357615347103
0,670795750021869
0,673302941920261
0,667403722532225
0,664350659901268
0,666112571360788
0,668893916883304
0,664229631165917
0,662488340480106
0,661406238404907
0,664386402054586
0,659069365355349
0,661337314521827
0,664255257314718
0,659682679295788
0,653338970497947
0,656922879240245
0,650746201619217
0,649561019821506
0,653498286570798
0,64945984979278
0,646504156336676
0,644012576527176
0,642824571578416
0,637811988852353
0,638345653850678
0,637201885560326
0,63496445496652
0,63504520454356
0,631976598499238
0,631695037598895
0,631558315607922
0,630316114194598
0,623725259424782
0,62106770495565
0,624414540078188
0,618896984909678
0,620671333613156
0,616412357386594
0,615256388561195
0,611539831003045
0,609000253494809
0,605858590528923
0,6005581526366
0,601967223416471
0,603201979363807
0,594615865635931
0,594380513784497
0,586101383474558
0,581834543051592
0,578317896132794
0,572719222228707
0,569141545806097
0,56489604089154
0,55967546612654
0,559316045228552
0,553006681093928
0,552065524907934
0,551179689145491
0,549370647062573
0,54795237336374
0,545140157140506
0,543180797929848
0,541151435034279
0,537914936558828
0,53393525410455
0,532797920175771
0,53278208839515
0,52907636574172
0,522987449355083
0,524670305913779
0,513755000166881
0,505117994659109
0,502785050548341
0,495873560202643
0,488729014796717
0,484472340836243
0,481782960555511
0,477334982645165
0,47309254291277
0,474034766035053
0,479085090831593
0,482104338786653
0,491682935948248
0,497842323223084
0,506656942097381
0,518938426290722
0,531496636490847
0,550017487462854
0,564412735383387
0,581710870537764
0,606324510739895
0,626064203533726
0,645700392455322
0,671483544750464
0,684503391148435
0,705568252852254
0,728106129263298
0,748501808782145
0,767316023772631
0,789616064536229
0,808840839433177
0,829214601359142
0,848291542519448
0,866652903977411
0,883491373580471
0,900652287591672
0,91580736971462
0,928352529593122
0,946175673103033
0,962521498120678
0,96530914695955
0,976133420310095
0,992857755982541
0,991516214114284
1,01244873880754
1,01282387158151
1,01334546513904
1,02479391947695
1,03441103125718
1,02381782923409
1,02120008346535
1,01860522613414
1,03202436806172
1,02423102975283
1,03724580866036
1,04428776190208
1,03672520068008
1,03946322886947
1,04480586800264
1,0536398236712
1,05039534547806
1,04911281875614
1,06102075262787
1,06035110776744
1,07576536655907
1,08354023806678
1,09755862812907
1,08482942354649
1,09032615491336
1,1018891504477
1,11841503417629
1,14581192983748
1,16127804124498
1,14035603451879
1,1708958578779
1,18713365360429
1,20393792526455
1,23071483430151
1,23956655565768
1,26280919044049
1,26033219055228
1,266857334483
1,29641381708799
1,27105327642058
1,30828908845393
1,30539791305418
1,29356753962103
1,32241010202425
1,30127530944601
1,2942159861707
1,30379682045566
1,28756692176339
1,28180850579137
1,27010587937669
1,26374059586259
1,2757824092289
1,27916572429105
1,29671605755095
1,31208112923283
1,33174157650886
1,34516161701308
1,36046605851045
1,38629519789233
1,35927542770536
1,41116142180676
1,44123526765298
1,45497044162091
1,45691987089254
1,50474613916138
1,50024691657378
1,51135212845494
1,53401516343207
1,55349752454034
1,59278655386583
1,59800268768614
1,62210077242372
1,63987932755733
1,64127470715404
1,75573358577143
1,74192359261099
1,75920882827696
1,79578864177142
1,81725597059754
1,79095781525789
1,95465110670244
1,97458316611095
1,92642970462358
1,89678351856287
1,96309970642544
2,04827348704522
2,02851268239328
2,01437864501351
2,02618489755632
1,9957134904591
2,06508148912115
2,10089769657638
2,22332469625878
1,93254319740677
2,05052871129014
2,26981727768772
2,07419201684151
2,15185395144298
2,10597593379884
2,19868107699279
2,09767165434784
2,02261718744489
2,10056676883203
1,9818136352401
2,25173802398119
2,02493029771015
1,90075692825426
1,99770227713407
2,22635060739549
2,14453347653345
2,27009136482273
2,10348814533262
2,371541830045
2,3675651181786
2,52279379511109
2,34825922787384
2,0792379272008
2,18472840502032
2,23562730797647
2,47936411033422
2,33641309700282
2,40769019821985
2,40156430825989
2,16718877105282
2,6138913118987
2,19056376358769
2,28344848647221
2,79211095688934
3,88779899124196
2,1446657605166
2,6702874727146
2,24393511919338
2,32477439892356
2,35753015574816
5
2,39961791994199
2,55775563587707
2,28415301616101
2,90254288679617
2,21953498774831
2,30700926678379
2,24979991787477
2,29104563908342
2,45716668201448
2,55128524895901
2,14439391198537
3,54974378909112
2,38067313080694
2,75235302176281
2,11670357325368
2,37433200258997
2,14202146264911
2,45179562780376
2,14206432365683
2,43121410319471
2,12904306080208
2,22602564557064
2,01598431308018
2,17847370681462
1,95712686366373
2,22192531348341
1,82729080354117
1,93201827452196
1,83151338738366
1,84632484538332
1,88728380702827
1,99968957076734
1,85834334702532
1,87914514078176
1,71837668735077
1,78564159595955
1,78654522538378
1,73574666993682
1,754546381811
1,73771295389221
1,70301739778029
1,77143685373367
1,66487055580149
1,70873440704163
1,59327104580096
1,61517319137539
1,5739810081903
1,58332089104834
1,4913108501002
1,50548632446199
1,47648405305428
1,43394060498556
1,37938545538237
1,38303733286814
1,31748218615494
1,29479537628919
1,22660286723877
1,16457275133371
1,14912060889963
1,09994058441804
1,0511173682433
1,03778709671304
0,991082526538349
0,961048001954556
0,917641181519621
0,89985374349944
0,867139782815497
0,850467113148859
0,820166115393725
0,786164881516871
0,773816934097257
0,769376599465337
0,764747993862996
0,755924122978642
0,744445139672278
0,742670349597854
0,730567137173651
0,729430417877595
0,719690066102192
0,726259151942595
0,717984796383887
0,722301639421364
0,70535535515867
0,720813742177669
0,721455176915912
0,725948930101636
0,716159988902451
0,721251327981786
0,708842130209694
0,712287436989162
0,708942828136167
0,694500744490122
0,692397594278791
0,690546328036421
0,69381370152596
0,691575219281901
0,674108248735643
0,677647265304023
0,665084736004362
0,66197059670716
0,6627917575579
0,657850482271229
0,652759581399101
0,662321551721156
0,655955572389661
0,67004296001018
0,669826954285101
0,675826736691663
0,682902612730783
0,679147098094823
0,682023868936269
0,682728946514088
0,678766748274153
0,694062370536046
0,698074546204876
0,698881695239555
0,709223410721006
0,704651092884457
0,71557252029514
0,712292854400608
0,714334651348074
0,715916159127386
0,699276415203242
0,707265982294039
0,711934482823474
0,707964696585585
0,704536335331875
0,722959748874763
0,718110354989751
0,733238800675596
0,734284080588353
0,740284812868755
0,736857048698907
0,760154605990204
0,762884740704949
0,77441403676065
0,805741941108928
0,816302079902161
0,839194804999535
0,87940350429716
0,873721946418296
0,898523069421614
0,8749853359666
0,923364086205162
0,909792607990286
0,925190397997692
0,912525262103511
0,908137313152246
0,882736558934023
0,873231014426336
0,87078654971368
0,873744285584324
0,821502720260381
0,845032417412808
0,829057346435776
0,830156979809291
0,812260316869088
0,841542735011936
0,832002198760729
0,830142061151944
0,833420838313988
0,825813957777652
0,844302579808178
0,839356484984474
0,82505379421386
0,832053625946098
0,818153543215557
0,809456591769263
0,791959973192707
0,818327029341
0,784072652102382
0,7779005207862
0,766075248230216
0,768608076687875
0,758414309993159
0,771323327206276
0,754194068385326
0,777789762442743
0,749305730634455
0,769658062102002
0,726873852716459
0,750199791430706
0,735486548531787
0,749879378092069
0,751484799309827
0,746859453541453
0,701325246929956
0,731653975443062
0,707035214962129
0,7318259264923
0,707359307850305
0,704427033598866
0,689094803727067
0,742644016316186
0,690518454354093
0,705161162513445
0,69358647802491
0,687085123769225
0,667419014371517
0,687348824788506
0,667543459256014
0,690894683520304
0,642796196262689
0,683330831498893
0,658883549639364
0,671362731118083
0,631331857941348
0,662587295990312
0,682076151146851
0,650719833743667
0,606834879770986
0,664368635597483
0,637044096696639
0,67189719420729
0,652283949938983
0,650488421445031
0,625586162399121
0,65479097991733
0,654560847100912
0,666976165298807
0,635501172296444
0,651434837653474
0,656985913482099
0,680017147574096
0,68753847756631
0,666740224436292
0,660501984570996
0,680783266480748
0,658987714891251
0,683429245170348
0,67169366477807
0,702732303554969
0,648262024971655
0,701130080422456
0,667334418591373
0,715016404984883
0,680594104927569
0,719685887385441
0,720115433517178
0,753956105306168
0,722704558486957
0,762170304011573
0,738219979422589
0,74943897412425
0,721773973350586
0,810738357520802
0,797479807203352
0,837115798149182
0,808485771941852
0,847695320293348
0,889787765042883
0,917843733718701
0,900634035443662
0,980058509966871
0,953557215065748
0,979511976942314
0,981510666929022
1,08284094846037
1,04507791815426
1,10668208415204
1,03094641217344
1,0690829728146
0,988411655747175
1,08811007313094
1,05047704521476
1,08527891614127
1,100357442066
1,061454843335
0,99639931989087
1,10451372575996
1,02098447485628
1,13048150111186
0,990028050646449
1,00656868733827
1,03915900304952
1,15119488041199
1,02821557687845
1,16111240021527
0,951894111546088
1,09093562214328
0,981562703523582
1,04295304905401
1,04026230490681
1,08741108937727
0,945208128584615
1,00814070029271
1,01202232543639
0,977148539285669
0,947250804881854
1,13485463911889
0,926263650391623
0,987920239329037
0,824046554183433
0,938788946204175
0,92778821605561
1,06967426240624
0,925980435207888
0,945540872975803
0,947161368095634
0,973376597491568
0,943452257344795
0,970329281658942
0,897189504660529
1,0629642060769
0,911684827402887
0,997500179728065
0,956953640104837
1,10515064129436
0,914241072287779
0,930687447494637
0,902387672867239
1,01564882214214
0,934749604104055
1,08677600054264
0,938586191276889
1,06125992618555
0,959089115083022
1,03771578024442
0,916235634141446
1,00993952002504
0,94568575323702
1,01578068636364
0,967088317897064
1,04759572187887
0,910637406468693
0,964667251417521
1,05233509137564
1,0985268654359
0,963018834832069
1,03970946107598
1,10292059291867
1,13017043924737
1,01997338247132
1,29896745269552
1,10346406972727
1,43087473949021
0,958542531140525
1,2189407002338
1,14103280805448
1,49159393040958
1,29474093191357
5
1,26846506396548
1,36028454456534
1,24329982370449
1,46416783039966
1,07356769079602
1,50584627893005
1,3630449305478
1,85888150470992
1,33236652327855
2,06969272396941
1,28503602066104
1,00841534391011
1,15277894046088
1,26002301554295
1,18943432865175
1,09121383261532
1,14776251239196
1,75922334483204
0,968747433393433
1,15972443878019
1,29548777013208
5
0,868854923944807
1,54705816840064
1,09683962243266
2,66345535449578
2,29234735859319
2,75434509631278
2,14776336777135
1,22979371262898
1,25680032868605
1,42887269066383
0,95104409096475
1,33269226243808
0,928841423013131
5
0,845729885166243
5
0,933434210916079
1,06245464860613
1,00445005119852
5
5
5
1,16861551504704
1,42796970136234
1,09258964246096
5
0,694715809526062
0,870641950883119
0,878966483417227
2,7312417598278
1,60597202314333
1,1421106714907
1,10707407863919
2,24685347832216
0,996480029130807
0,97352723896509
0,510113929049938
5
0,812682051454869
5
5
