3596
4000,36533379555
650,420452594757
1
2
2
0,0523085340150576
0,0463216655461636
0,0486481049418532
0,043213258674715
0,0448308631374702
0,0562889116803647
0,043147363879851
0,0423437906646991
0,0523331027299652
0,0457321307775006
0,0404517456248985
0,0517170066149199
0,0459021151031452
0,0460592778197156
0,0409837445989686
0,0542659890846433
0,0346437502307463
0,0549634632046989
0,0500845082696751
0,0506418225851217
0,0475265317074734
0,0436137434002913
0,041414452255168
0,0599564428570854
0,0485297808618759
0,0486540627450938
0,0527354060177261
0,0493939176393917
0,0453811731697141
0,050029683575164
0,057323449277456
0,0486318514162633
0,0429702319085357
0,0465214147803369
0,0405229029638066
0,061167685016268
0,0435258038537927
0,0488078152652411
0,047365295701919
0,0458758441238462
0,0357186773065105
0,0445839616612708
0,0458451447555961
0,0446186293992785
0,0434873897440942
0,0503562242023867
0,0392229175542932
0,0412135964423372
0,0421946407521639
0,0491618813365064
0,0466121251239166
0,0419125940917714
0,0491228373105521
0,0419419376515594
0,0526580964383571
0,0552054188180351
0,0520605816878192
0,0533681799620339
0,0363269291230128
0,0500391423352665
0,043801645296603
0,0371645417325516
0,0469593211912401
0,0421491070073679
0,049241636714759
0,0404361266378417
0,0431682491161208
0,0412912774206336
0,0590828526281732
0,0366226853832706
0,0517399968742106
0,0520026006920834
0,031583731274388
0,0545840223608264
0,0508942758499176
0,0411790385750256
0,0406545845065549
0,0379726197046535
0,0465395239249446
0,0457160783254222
0,0385976110318545
0,0360180976215215
0,0356188207410068
0,0487325996940618
0,0597198034224855
0,0177473470815246
0,0467966591692467
0,0485495065925668
0,0349030539788974
0,042261740301514
0,0328638262331416
0,0368069820179985
0,0342238263141489
0,043744751179845
0,0438163756380849
0,0349632501534856
0,0456535739591632
0,0466799660603981
0,0436215201524422
0,0483349860589774
0,0250139250111453
0,0819109629041128
0,0133316327098945
0,0785917144495982
0,0361552790414373
0,0351163933876774
0,0642916202523923
0,0253426160492526
0,0500968425514682
0,033874828078484
0,0407262275319877
0,0324689930559474
0,055866483841058
0,024952886437336
0,0365767710926418
0,0416074881138373
0,0465559164978868
0,0372225346074757
0,0348742572095168
0,0338615052959618
0,0398005986893156
0,0757408084471849
0,0212024885190985
0,0512345712018982
0,0314518790027101
0,0384739050321149
0,047008458601941
0,0418468416665168
0,0230974448333363
0,0459400806565001
0,0279938700221092
0,0405218848355392
0,0178075098650294
0,0729487831235451
0,0213128646508292
0,0413833788239016
0,0455899790516972
0,0425111577917118
0,0547636011562112
0,0144811171968147
0,0487217888705373
0,0347304554217928
0,0318993132046847
0,0467003965868097
0,0304708012085179
0,0376697398993372
0,0464075857704368
0,0364053577009554
0,0208612103006951
0,0498052859903051
0,0240001400075742
0,0513734372379892
0,0434461709561611
0,0401579898102703
0,0479793609375245
0,0870696906542255
-0,0182767755804181
0,106176289058395
-0,000851598347557554
0,0489979526979143
0,0284064700671185
0,0336575000915525
0,0323841419574083
0,0403215641909982
0,0394366553965231
0,0309246722640147
0,0597328885489815
0,027517817797296
0,0442210474819159
0,0282630823145363
0,0400114189811442
0,0243597427906903
0,0697598247730431
0,0286204760463632
0,0188239029448648
0,0614983214283557
0,0385018349323123
0,032965680513472
0,0304936805451546
0,0564958843293354
0,0260617609287036
0,0373935189887403
0,0355963374691899
0,0371257110047812
0,040635498758746
0,0446839179327223
0,0375779835358834
0,0440289821011974
0,0280367145198408
0,0534125320935483
0,0459084622728538
0,0530112207153716
0,0184888587192173
0,0514848788265177
0,0268130373043366
0,0530338852302641
0,0478269627087049
0,025509287739898
0,0516245146476177
0,0374211777496938
0,0393564501982926
0,0383784491395783
0,0336221572892827
0,0460447216290589
0,0296955221988319
0,048392827711585
0,0280776961177643
0,0332343220547235
0,0381101324079239
0,0391533322457466
0,0367776501227184
0,0492946584447557
0,0778418426506613
0,0132000275010646
0,0417902637512613
0,0348000637785883
0,0587947669853699
0,0330185698270132
0,0330546989842429
0,03142125188063
0,0308323760015266
0,0342727189292336
0,0402737799464364
0,0337514250805523
0,0374221360707937
0,0377337461894928
0,0339477055262245
0,0322206100189636
0,0390788659883083
0,0447809259509162
0,0388377585823981
0,0292828633103233
0,0418184256846718
0,0364297938186021
0,0307417312962215
0,0532755054477202
0,0176923758377781
0,041428926042148
0,0363946929513155
0,0423843053349524
0,0424619253869475
0,042504646247035
0,0259526596918936
0,0469481506523313
0,0314435740168674
0,0573959282961742
0,0354641221181041
0,0442227274407055
0,043877871372779
0,0264656076200751
0,069326736398862
0,0148899515139764
0,049572738420188
0,0340929864066352
0,0558254926186924
0,0247172278605021
0,062753324783231
0,0310429445388911
0,0375845107536138
0,036536631618924
0,0470247544973522
0,0295687542994153
0,0490038023139239
0,0306140903129821
0,0718431173784668
0,0347703378177065
0,0276364545030665
0,0530992651385453
0,040471721973365
0,0221733856181524
0,0588202504301055
0,0283912945809158
0,0748724340221326
0,0214111220563202
0,0438829882901437
0,0245782309369235
0,0639208221283557
0,03540675924845
0,043755669988616
0,0508460373353176
0,0323673670220318
0,0677822599053944
0,0229145239885825
0,0692699071625307
0,0356156354178658
0,0418852873395007
0,0782867230791342
0,0180563497883428
0,058255442270534
0,0278731901949096
0,049095199534974
0,0410283844510891
0,08247678864761
0,0332110852399894
0,0773666495569329
0,0228946140402517
0,0760749354611003
0,0296645698866716
0,048148726266481
0,0330530434099411
0,0678060177927598
0,0380221029552714
0,0596195744154073
0,0398621744638285
0,060727563276861
0,052783468833917
0,0446047389138858
0,0690789209766324
0,0676886423411897
0,0348607268078463
0,0744322376477505
0,0370280298507789
0,0577394749934524
0,049694884000064
0,0517983826317721
0,0414357622259436
0,0500508369020719
0,0448074426242844
0,0617140952537597
0,0529480251803256
0,0440810314576369
0,0550815108351539
0,0552847061151007
0,0531787406705411
0,0552095728738962
0,050556070649603
0,0536869289682333
0,0580391495372431
0,0599313359286454
0,0509561926589821
0,103445052908142
0,0558716003452832
0,0666078934003001
0,0693682119153309
0,0403158451572882
0,0638194406626797
0,058954427343793
0,0615211263809065
0,0656030471033031
0,0580215942859034
0,063239398652085
0,0598623538156485
0,067718129297531
0,0647570217228628
0,069941422062943
0,0702372281689731
0,0856807394928778
0,0869280786769223
0,0687124820748639
0,0589943276257716
0,0741636866070005
0,0587307481119944
0,135014598962478
0,0420428896773229
0,118711019900526
0,0488353651505029
0,0790557189232052
0,0749243390613462
0,0795179989344037
0,0786296845560175
0,0869299536631135
0,0895844328861536
0,0832113765424884
0,09025221554267
0,0926439462060111
0,0899670241951153
0,0802450513974664
0,107022626767124
0,116912056622443
0,080318484289167
0,106519359404696
0,0881737171180388
0,104405593439451
0,12637622588622
0,0946090349990925
0,152350162393235
0,0860482879273659
0,138073937409988
0,109203095356642
0,0919541712480656
0,113227671511876
0,114417318319136
0,121426872513957
0,116683828564643
0,128248764053214
0,124490807882287
0,128506231454972
0,124824082753155
0,134853324217082
0,132017314580007
0,13742522874355
0,136901119285
0,16355553932525
0,13102548934418
0,165163085435216
0,141994174738083
0,202775914674659
0,139707274477172
0,189581181108947
0,117343200654748
0,176751679516687
0,135128805553575
0,180655247439141
0,148938390378717
0,178301791063081
0,157545817271579
0,189999197427813
0,185588590137865
0,194933394021892
0,197268464002686
0,179264106533452
0,17410321042144
0,227102124195756
0,175165041130737
0,21901349917905
0,16554081465454
0,212743247105015
0,18584493720832
0,248507327110065
0,183903179873793
0,24367423847938
0,191549982041811
0,229166941907801
0,2070474783982
0,223282129345266
0,228673333725839
0,232997506954717
0,236152112724899
0,236058572391911
0,225128245656494
0,25013590407088
0,233120547711411
0,260032688351772
0,253295460285461
0,249079796920817
0,241584177044229
0,274091427747782
0,248540704355041
0,281777045995863
0,241027217911369
0,311319999234527
0,246687985867175
0,322321716060722
0,256164320961387
0,284813179959291
0,277628304064453
0,300658157979847
0,291880135275272
0,307015265500945
0,301801244666149
0,330610086787553
0,31037081884999
0,345888742280799
0,314194149665411
0,342271842754576
0,33201491936192
0,347359734170858
0,335662466046855
0,352577244864842
0,322686325864613
0,367203534513463
0,341074660222881
0,436774512386506
0,355590613244816
0,383185564252966
0,343679763515832
0,366667667570498
0,339991621163601
0,384453147485989
0,368298308700793
0,398773047145019
0,403108728661826
0,405258345140866
0,394060234234219
0,420884509912496
0,406594461375587
0,425525071017864
0,419097524370377
0,44409979337119
0,423964174055758
0,461722597173686
0,404444743185037
0,446892948283429
0,444752027494157
0,492266186181359
0,450041062698742
0,469903792288771
0,456320348015074
0,488279595371901
0,471699624485431
0,466986707495181
0,464512350445864
0,4956315612081
0,477601115529571
0,507693729267641
0,483362149283027
0,534542815115008
0,493758393231821
0,545194053380771
0,503175635530854
0,541133694235939
0,517436110904472
0,579274664779761
0,518160615184198
0,573396622539618
0,545097529775723
0,568316633117902
0,53646544550475
0,578914669217027
0,565296399754776
0,605761796940846
0,582717075368457
0,626861819676633
0,565578118398583
0,623229301854752
0,592303814951254
0,643711602665948
0,597272132265438
0,605825941501479
0,597098273582794
0,620549214511377
0,622793672277922
0,646426827297633
0,635744240039813
0,654184206206131
0,663249383076401
0,6995595304785
0,611956217036375
0,675757128768474
0,668674505063788
0,688392478480732
0,631736117894955
0,753942016478548
0,649788494147291
0,710166333487546
0,659844849480282
0,704782624742631
0,68635033722761
0,744110657756715
0,667633005803937
0,763948581715727
0,667382361738589
0,762410120935993
0,73529021697085
0,771377828858342
0,714864167637733
0,804922464960664
0,75032644389282
0,805305805648733
0,739980899995709
0,817600430272633
0,789095425522675
0,824528972888739
0,770045828793784
0,816912561252337
0,796671252787111
0,829395181113444
0,79154613403381
0,863686813963989
0,801020434905475
0,914469246372806
0,778192131531581
0,818326293439795
0,807174608514798
0,89236538734325
0,819925939139045
0,884331983523499
0,817247454709491
0,899795929250049
0,811449641253552
0,938548564997017
0,859055117958241
0,977716939085132
0,840696330525759
0,987540236648871
0,920344456709021
0,958210776442614
0,906069904449867
0,958137509280223
0,879912098326871
0,983557660841566
0,934503993598505
1,02730926442668
0,93607258366487
0,995438448981617
0,929259169686838
0,990676714363065
0,89755498092483
0,999566346583989
0,907059505867793
1,00814730497617
0,922865329936196
0,998043634732305
0,933610183203861
1,10558702709257
0,974343199185856
1,05780536920151
0,920478613386402
1,08470049744186
1,02461297312847
1,07733097457059
0,971896162527777
1,0733426637365
0,992478487331996
1,07772805764818
1,00907871363308
1,06718839482075
0,974349434372711
1,17949221383733
1,055620126237
1,12620883593106
1,02156251036208
1,10497915899708
1,06695638718543
1,2058328712695
1,07608239221992
1,16642438017385
1,07670709163457
1,16572370377238
1,10432365486785
1,19743567750172
1,05698659517349
1,24727849789822
1,10918534337551
1,14310201364959
1,08392580994325
1,10095044281079
1,08044673455853
1,17432637487933
1,12267506983641
1,23067123194453
1,08070043153433
1,18891509348433
1,07677036224339
1,26077993075576
1,15156989592392
1,24045505039475
1,11047144274259
1,21961464269781
1,05713154373135
1,20233903366752
1,17846807593447
1,17265248171524
1,16761726572713
1,3129109436882
1,25040930391999
1,3266719015409
1,19093060853418
1,32287904102448
1,11397979687722
1,1830608047726
1,16312567165578
1,31900359117591
1,20041469416604
1,28378610442536
1,18662387463438
1,29320985356643
1,24081859520226
1,42812024273786
1,23325002276792
1,51151295846706
1,2980583582242
1,34455253999758
1,20509230950429
1,40804617340574
1,39010999978559
1,30213127708714
1,28262310385329
1,32334363132653
1,21676901240112
1,36428874184699
1,2148551522382
1,35946445247694
1,21036386818333
1,33112643009385
1,29605179432592
1,29025790873805
1,22610505253432
1,34103643764679
1,21120364365573
1,36978897568038
1,33432047490753
1,3450414240578
1,27469121885012
1,30635202221943
1,22810882715529
1,38470202055883
1,34568946279896
1,45081488537565
1,33201692987249
1,30883630469681
1,3438147748361
1,4434756712914
1,37109515380872
1,43297128095777
1,39295706267742
1,41105365122049
1,28583624517789
1,32196970902014
1,25755075960679
1,40195574990146
1,40048042690581
1,43321520751031
1,30101084842214
1,34091184531382
1,33435481756109
1,44304785509692
1,47423253251895
1,56948261288585
1,34927559253638
1,43762488372596
1,38787289234964
1,43117842632174
1,37514075791084
1,48865633870325
1,34810993679468
1,42732835748623
1,38892047286593
1,56254197777572
1,38806443614554
1,32594001305502
1,35626811050375
1,39330689794454
1,3312549844094
1,35541113133625
1,42228780992743
1,50575750747616
1,3874036558393
1,52789388031892
1,37498919566395
1,4713536144127
1,48399238688425
1,43533683023005
1,37720733996612
1,40761353602534
1,31139653201696
1,38972421411774
1,33338876459451
1,45427724382371
1,41514226281673
1,48475955107355
1,41995453816168
1,5004097867538
1,35094405046736
1,32871836571216
1,32238063496293
1,41269195375466
1,43952183896409
1,50382751861766
1,40306282429578
1,43522991612171
1,49980006809189
1,55057972119736
1,35840549829263
1,37306500923116
1,4050853538981
1,45364396466323
1,37656358998531
1,35210766900044
1,40066848889914
1,54115704081943
1,37865457532345
1,40414548722782
1,34748740411328
1,46888284890709
1,37633806919922
1,43394838496856
1,43737453617933
1,36607073131953
1,3623258610971
1,54459269828947
1,40703185460076
1,41925503781847
1,42046308079509
1,42418356039302
1,33969829737029
1,46435225696717
1,34949804438304
1,30694820044137
1,38183461166858
1,46828606384299
1,36780875376895
1,39544182598054
1,46833483702377
1,39998719636769
1,36323687291706
1,49739003331554
1,42127761400883
1,36101166827682
1,41106377896918
1,45888094141465
1,40596522050351
1,37611774620788
1,36048055644314
1,46915137362013
1,39223640046278
1,30742733319939
1,25870368434885
1,43531129525269
1,43229852916005
1,31560574842956
1,3094956766162
1,31619035530787
1,29920473950931
1,30836567849012
1,25375143549384
1,31001558123204
1,30365497988051
1,38334592112946
1,45878160380261
1,41710454628627
1,35019587835357
1,39447038773517
1,31841965760683
1,27736206672305
1,28928956248679
1,34945494489137
1,31290743261168
1,29394854769872
1,28118482273936
1,28732563035877
1,30798582698101
1,27362006111863
1,24855709503817
1,28568076991633
1,23442329485097
1,25902843627069
1,29839258401542
1,34642921916657
1,25614339272906
1,23974677088748
1,25453184643926
1,26178690975182
1,22032417626366
1,25829436012991
1,31202342701642
1,25798572507669
1,18327282424284
1,29354837542969
1,26506791151443
1,20140448697861
1,25922632395004
1,25719310742989
1,21264733206287
1,18692959318959
1,17736614916229
1,20338170844562
1,17079100261347
1,22476367641984
1,24164868201563
1,22672728596336
1,20017113145517
1,16351296198154
1,25093586793307
1,22876750779301
1,17674130391909
1,16159262290538
1,14847754746507
1,18472837818098
1,21083941131874
1,15949026668287
1,1445727209506
1,1223763250481
1,10457474474884
1,15240393400845
1,12633309048203
1,12610534156793
1,16149049253756
1,15627174071745
1,13154546831493
1,10059711818958
1,11927115143759
1,08084134665181
1,07272337202148
1,09719908284878
1,09816089980356
1,10813154171921
1,07394585351954
1,11847450792015
1,10384690078511
1,06890285177906
1,08085024497245
1,06153127345009
1,05016384464585
1,07040757190065
1,05217140550216
1,01401263280752
1,02453921521991
1,0114324867168
0,994614254215935
1,02909902461863
1,03875509479133
1,01686188407297
1,03081580803455
1,00228819028887
1,00327555654571
0,997734096787869
0,996567448629544
0,99011994741438
0,993159340995927
1,01481929280808
0,99441979144363
0,96237449944076
0,976441486648352
0,938026019380039
0,953940802286575
0,959717639728707
0,949544279163824
0,943179770415324
0,949913572586068
0,95460641583208
0,92663417035959
0,913302219435613
0,967678640978172
0,945733183272224
0,92272824705872
0,919675147188844
0,89157509892851
0,909749104664644
0,904637367697479
0,881539566452504
0,883819936381517
0,884945568306217
0,897735626628626
0,88005291692266
0,880843985763023
0,868378575728167
0,883455377175466
0,869772580563926
0,839092586028395
0,853485073451459
0,857462913256152
0,83250365970815
0,849134918394184
0,8301663448317
0,826652059457681
0,811108670942338
0,824249535527928
0,845420076469855
0,835134118700698
0,817051655240132
0,833811314285892
0,832459109461966
0,812760514364516
0,795993734112917
0,804951564622431
0,809759843521924
0,782361684983056
0,77822167735248
0,760539169235723
0,783805212686583
0,816280332453424
0,773438997627554
0,760912588147823
0,759069963007148
0,769335449585977
0,763846317408394
0,766678246531627
0,751558528208431
0,751159742229436
0,756614796787676
0,749704287307464
0,738721191600635
0,728787669899143
0,740075302067639
0,73781057682923
0,720576670359373
0,725883996568649
0,731866333539566
0,725431736765638
0,707119797098272
0,732108952838961
0,685469463867835
0,711606138035485
0,695373812385451
0,709992650909558
0,698794901255243
0,70512662779576
0,710513380838623
0,708847727149804
0,688004236192859
0,684845385200043
0,674139601881322
0,691369639117679
0,676730015626991
0,684166331588111
0,684748205253813
0,672889847481667
0,666385181697798
0,682162574531768
0,661244827663709
0,67075832588005
0,656818499847963
0,658676715771766
0,656869867441605
0,649864902102563
0,6302825634205
0,635134521624255
0,624043663472649
0,634437449691193
0,616349886030368
0,623541649217585
0,622758800133901
0,62893171097199
0,620549595251259
0,616669793648412
0,619576933607763
0,613560737709129
0,609915674935192
0,603019763628643
0,600828411975926
0,597556326380457
0,591595359359037
0,607025125160547
0,585427793625573
0,599778264645283
0,592901476533302
0,579521241737879
0,581038073346617
0,578809569992928
0,582330331543601
0,570193271147606
0,571021164589817
0,568767270075562
0,565328726263132
0,562710980680297
0,547332599892085
0,559999606191961
0,551893674857376
0,554554566152316
0,549937311582176
0,539920298288864
0,537780019934713
0,543339360680659
0,536715707950729
0,527157431531137
0,534237965420101
0,536805370065706
0,524180135778608
0,524415807936385
0,517245831209767
0,522077844965711
0,516849548065905
0,511774942228185
0,516436669474589
0,512740654288523
0,498429260037848
0,510233418600335
0,499137967751482
0,509145646067282
0,503025871649816
0,496247443646387
0,487322612817605
0,50602635100803
0,496235435499709
0,486716744683604
0,490803892958982
0,489398279053854
0,482648019691923
0,494143868661038
0,489774992843873
0,483913736847061
0,481150046499342
0,48568312995548
0,468310133319832
0,471008652681404
0,474613682032222
0,47951618953687
0,468748667952176
0,46933329872302
0,463363969845952
0,471125110878508
0,466852956298806
0,470882633919748
0,463706803956165
0,473480984262708
0,457961165073998
0,470606910892806
0,469958532702412
0,46927212036149
0,46477142955685
0,469451464078776
0,462562031369327
0,477336911763442
0,467794383874762
0,471707229720461
0,47282102243097
0,471910944656691
0,473776772620102
0,475863091880975
0,480782685744181
0,480674398086145
0,474025709959514
0,488810409835322
0,484105427801803
0,487622850383918
0,490348333350605
0,492038549391985
0,483648841686537
0,500002815887346
0,499858514852821
0,498315203635668
0,507929248830312
0,508708056398489
0,495355764025607
0,516598686409084
0,51099955816917
0,521454905755784
0,518009780373791
0,520065275550454
0,520901727796858
0,532265183118881
0,519281911112576
0,532826538424905
0,522744698381511
0,528985164471901
0,527111604100562
0,551067396750587
0,529895814703359
0,547547377764748
0,526995860430223
0,54771054685707
0,538258106451769
0,559015040347532
0,541037803699306
0,553172469504738
0,545529260167661
0,562327471251237
0,558868036915404
0,569427783129258
0,56474261735549
0,560805743442285
0,573278674047522
0,589894881802521
0,581810127758916
0,592883319418875
0,574167215331598
0,59875360893076
0,593917054537739
0,602611540452359
0,595155909449512
0,605524522831747
0,598635387204232
0,603864304601206
0,596049967110603
0,628744069277159
0,612749641010795
0,635227064764294
0,630979748698074
0,634809136361793
0,641555616981739
0,634693224809193
0,611557488926472
0,630670376824742
0,613437669185122
0,627381973600408
0,615110610164278
0,625482482356155
0,616830341813398
0,632472665029919
0,622182269402432
0,622528855481161
0,603939147724321
0,621466473077719
0,616128044106038
0,6154785781307
0,603669639626959
0,612253495575753
0,600577658494798
0,615306014673458
0,60532843611136
0,608324921868183
0,591662759472165
0,601960357083583
0,611139273196874
0,619546962735648
0,603000385935835
0,620000189136029
0,604111930401793
0,614272910262459
0,594570642788132
0,61386242545363
0,596187718989047
0,611922513924443
0,599777739433414
0,610998446006055
0,595804628677908
0,603302619231503
0,61491385512486
0,619749798165498
0,591050404512356
0,604609963745635
0,598073775511293
0,610481228088605
0,595851669971431
0,609726955445743
0,58554996654099
0,601967333503872
0,58976894882365
0,613824606765365
0,593749160131342
0,604721695444875
0,594061903724212
0,610172126645319
0,598659058517666
0,604392351313931
0,590516456287667
0,599664885797527
0,586139905740096
0,583475976440314
0,5801992084392
0,593368441313589
0,570387109082637
0,5897324906669
0,571946311087043
0,569162143797626
0,563947836015179
0,566047745383964
0,548158721223779
0,55502693017609
0,535734080001536
0,550408290879709
0,540371909786823
0,540934130567494
0,520177342886082
0,542271869884703
0,520676301544231
0,532793632727309
0,514016067916302
0,523632784490282
0,497023507845215
0,50838116220584
0,496972948543034
0,50692456770719
0,500972122951672
0,497915758721746
0,492332887468224
0,501673130694488
0,480801093648392
0,483271018030898
0,47491708638071
0,482984284350921
0,476123077404298
0,470922223219417
0,458806720742114
0,467708724221451
0,455164773359275
0,464066272568788
0,456559328015939
0,464422472877785
0,452515088073984
0,45036114781293
0,449594447062773
0,449145939575031
0,438736625045087
0,448985266511907
0,426203021104438
0,437818047113503
0,428877090667307
0,436995741198261
0,427002572245513
0,439430090464211
0,422713529039654
0,437366676794976
0,423200694593019
0,422439618939532
0,408975002856263
0,421106641246486
0,400154722292562
0,423337799099022
0,414439220511896
0,419526775435054
0,404913906043748
0,413218958606414
0,404682945727692
0,410055501608467
0,399835707768275
0,401364969425565
0,402092252441153
0,404059290941053
0,391197313438581
0,403414425030891
0,390470631519985
0,394211574650063
0,387300581102328
0,393948849948479
0,390168600562879
0,388612062654494
0,377081060135414
0,39083191990929
0,379885290005874
0,387220532301685
0,383176658242919
0,382769057586556
0,37416214218536
0,383808445024574
0,371773464665066
0,384310528471407
0,379647091319189
0,373633678436038
0,363978022318465
0,371085378056331
0,374454608330905
0,371685091729746
0,364901032990007
0,374081835500361
0,36624442002832
0,368806327762902
0,362350546893872
0,367851029251165
0,359167107582108
0,369078541858077
0,358094620944247
0,361334154852439
0,362001516603429
0,361376970760313
0,352871850472838
0,364183892676656
0,348198848087974
0,362156455246169
0,344379788751568
0,355598931948567
0,347838976604168
0,355421304289006
0,338573511552958
0,350468597470837
0,342242269307624
0,350735752514286
0,341107058481518
0,350869521298433
0,337024147608916
0,351158701819416
0,344781090878038
0,346699817908059
0,337906606920703
0,344569361704484
0,338613313556792
0,34526786520915
0,336358094317694
0,342089030541091
0,342528083303225
0,336916368022242
0,336492466830694
0,339409307764171
0,337262751936344
0,34071294183988
0,329305573898002
0,336477419881561
0,33608944840901
0,338524873817722
0,333223324585425
0,332397384075848
0,332282604084676
0,336692847119913
0,330114157662253
0,335817862483693
0,323713610444812
0,339806336911018
0,324980569345796
0,332844984419066
0,326217097310739
0,324768593032901
0,326361309913807
0,327412753967595
0,324025034775967
0,327195241035461
0,320439394565574
0,328150428988443
0,321678280430592
0,327176657547741
0,317157298248765
0,326898590789914
0,320999928332621
0,327824185944147
0,317761263611879
0,323077287145109
0,321530094648655
0,32287856120037
0,312549113785393
0,323085832154062
0,313616443416952
0,320245369659976
0,310860316414188
0,318232321678439
0,314933673449612
0,313894941158337
0,310355517995873
0,313118575517384
0,307459492838883
0,30957208835032
0,308539416450124
0,310335329234422
0,309193993744196
0,308088837079975
0,306613364710852
0,315219446211055
0,310480198010292
0,312525189200471
0,302333760247365
0,313254876066071
0,300280961484469
0,310606115614547
0,296694110777441
0,30783100260502
0,298822925167442
0,304712708147818
0,299361723756422
0,299308382353218
0,299892220947962
0,304616356714561
0,29946466736186
0,301626016145288
0,297315008316633
0,299292695118551
0,293181137361684
0,300259453487013
0,293534771023385
0,29749435980304
0,28971183908911
0,296578961828156
0,288414774039274
0,299211191995765
0,286364119314325
0,290985759015316
0,288219794070491
0,287089767616847
0,286606372860553
0,290008948742119
0,280724513028738
0,288069189387425
0,280635466491331
0,288150367385259
0,277164504663494
0,287612810830217
0,279214643458059
0,282919287001056
0,277856837288471
0,279621633775528
0,274061420098018
0,278869175788872
0,273762406418367
0,275733484266187
0,269165307977087
0,273327686688951
0,268424319422813
0,273477800178344
0,266496668681164
0,271882753585315
0,266982405772659
0,273213867375493
0,264874831697634
0,266680845623798
0,26231943127824
0,267819501952524
0,261342277547531
0,266296810177751
0,264440363873427
0,267401645243941
0,257323111623424
0,258085946653701
0,255479467215206
0,262481364091176
0,254311714552959
0,257945552138367
0,253717296430399
0,253852461416446
0,247101037720409
0,25639768664634
0,248322454448982
0,249700991595446
0,246705496251864
0,25796084916805
0,245144628142631
0,25070999814499
0,242745165632993
0,248885753718047
0,244771133242007
0,248290699534566
0,241437209096368
0,243619653776532
0,239637248540598
0,245474888729559
0,240069040706044
0,240300264766401
0,239124946127
0,240797989154689
0,236705749818297
0,24239263799964
0,233325298422088
0,236944666706604
0,234158590609097
0,234549674575434
0,233221948248015
0,234916747313252
0,230072447325559
0,23131647067729
0,228593756478631
0,234316188742866
0,231025883532594
0,231003108787133
0,228493612292993
0,232860176280757
0,227703592253385
0,233393326991873
0,225293580015552
0,223370207095276
0,224487218530881
0,22304153114196
0,220409903663752
0,224717912947055
0,223391859970229
0,229866675256548
0,220206700980917
0,221659710939128
0,218053536326762
0,223775054206429
0,216493032097851
0,222907849449784
0,217248330331462
0,219815575173969
0,212657847216826
0,217491751670037
0,211410624265849
0,220943867675613
0,211960791632334
0,218193847022567
0,213861419787016
0,216645431593121
0,213404169627291
0,216576584001536
0,210763612247039
0,211764116556364
0,21401965233022
0,216424094914954
0,20943356979337
0,215129710950424
0,204468790775328
0,212637644509744
0,208508298999527
0,214711249681002
0,208830159627236
0,210986660132997
0,204190673999137
0,210246854008135
0,205488189947674
0,208616011266151
0,206292408678908
0,208042586403407
0,204560247407141
0,21453829589832
0,203755802475685
0,208960173695799
0,206820231528202
0,207913798838761
0,20341096367583
0,208954986422887
0,199580455956494
0,209676318851315
0,202831437496818
0,20472273823794
0,198812829935849
0,203049023514242
0,200747689773632
0,20320244170154
0,192776137640987
0,198912738641609
0,19937601155168
0,19955965419115
0,193449958705736
0,198843421472632
0,195841031928158
0,197578046387522
0,190527464962438
0,199139624603122
0,195159553710478
0,199208592794307
0,19305654100357
0,197768191294573
0,195241327258477
0,19577934948134
0,189979913445158
0,196594844431255
0,196040265592025
0,19622668741951
0,189231927387104
0,195120069717166
0,18841634350812
0,194452359178731
0,192435162915419
0,195915995373439
0,188208432498117
0,192814953257061
0,18591679041877
0,192426271197912
0,187746305192673
0,189135894770707
0,189577536228056
0,190592603032101
0,183442090969221
0,190004396618219
0,184914079050941
0,185912055905418
0,1866138449034
0,192263756124165
0,185794976548047
0,188272721983134
0,184971094080142
0,187485699381022
0,181624171687417
0,184593084133123
0,181506809991348
0,185998020343788
0,181089298185114
0,181149885019052
0,179642366864426
0,183706261969409
0,176815051213098
0,185041731596416
0,178341808433956
0,178781192012427
0,175885958629952
0,182026499749839
0,175577710100536
0,18268353242964
0,176955065105496
0,176087216638297
0,173980537452512
0,177682221973638
0,170138645829713
0,176855958856687
0,173794952602115
0,177071856526093
0,171010847065182
0,175767548245633
0,168690090195965
0,171034981126111
0,171399168827017
0,172248122556322
0,168160123432659
0,171271295682877
0,169906723372892
0,174294889708938
0,166364048782793
0,16813198970469
0,162671490906692
0,169121596197457
0,163817548344492
0,167363387718326
0,166620571691525
0,164875565404908
0,159340409385671
0,164738106769312
0,159235562351959
0,166165554895811
0,158960235024808
0,163200845806856
0,161046532534326
0,165931569458519
0,157053467596717
0,162811896377084
0,158955171814717
0,161441108891312
0,155204606335987
0,157489030527624
0,15464775618058
0,158098079428285
0,153990855978677
0,157217989342548
0,156321090787322
0,15659936064083
0,15074028379513
0,156504819787487
0,148229455011704
0,15416032943602
0,150973170236901
0,152635978649931
0,148170867585789
0,154886446936535
0,148300748304455
0,151658978365225
0,149141960329116
0,152355779394482
0,147020023447757
0,150562460286444
0,146211693957718
0,14700133146048
0,143439334256988
0,1462938327893
0,142391338786325
0,146035427750716
0,140442950097496
0,146230934032683
0,143185866844743
0,145612320516957
0,139842583439175
0,143861245658216
0,140713320818629
0,144019173656184
0,139447993664865
0,143767203450609
0,137551444925931
0,142553576349265
0,139272199093541
0,13899531388395
0,135978391850307
0,140999842288001
0,13664501600668
0,140321952259
0,134731646988927
0,136297471603767
0,13391273034786
0,135583641066995
0,131734731489663
0,133272898523901
0,129510581926581
0,13729996398834
0,131058287474659
0,134516716555359
0,130742046729689
0,131694124822687
0,128762926790754
0,134381209733528
0,13002820373626
0,133579964687786
0,130442724370114
0,134027478898678
0,129914893074508
0,129657500982897
0,128421305933742
0,13036319418284
0,128552510221958
0,133540691518894
0,128051139973331
0,131624717949744
0,124689344722997
0,130647095641125
0,128536099307963
0,132414308632552
0,133583645482705
0,137869860080461
0,129073649702031
0,13454724209807
0,131459124735849
0,137944497091609
0,134872299240266
0,140833715399825
0,135421074759339
0,138697450278883
0,132127825091581
0,143566712599937
0,141791159503775
0,144074644995869
0,137636956578824
0,145231928536331
0,135511753654104
0,146970253359804
0,137516958533425
0,143969455475661
0,138970674278525
0,14056562647745
0,136263316014708
0,144344239483611
0,131890523952187
0,143677457094126
0,142618403022174
0,144160313641035
0,133022380295831
0,134788084337691
0,129804001560096
0,135590550240895
0,125092202926024
0,12887607317704
0,124423367160271
0,134941290188652
0,125721115413264
0,140740081325608
0,127357437739444
0,13475844804146
0,131976232327399
0,135055207213404
0,128190852716155
0,135040359721867
0,128746274311281
0,128401382291452
0,123400201858029
0,126834765656823
0,126359571222549
0,127724545563699
0,137800500812862
0,131713302262425
0,133352858139571
0,123770060921713
0,133511982542346
0,117893603741906
0,141357919222474
0,117629929907103
0,138324287303933
0,101795107657041
0,143858342035877
0,110999873804904
0,148579755754227
0,0948250073325703
0,146039507068641
0,0983417550577377
0,145448014455477
0,0945269318989556
0,136642914285247
0,103531448198989
0,131846241728582
0,109595425824238
0,124986733992427
0,117827278123058
0,119267865474303
0,118699332916226
0,113308552105608
0,121272701352847
0,108793263962727
0,118902516862809
0,10727648186589
0,112143135145142
0,114938485262246
0,111662652441975
0,112251851128404
0,107014810073345
0,111139985551685
0,108736901461664
0,111252942724674
0,111066244588814
0,109875101246988
0,108870899044647
0,108507943353159
0,108714155204525
0,109315831847689
0,107572915120982
0,108244609584566
0,107075652047841
0,107995254105822
0,107390188882
0,107767206051369
0,105948077997517
0,105617444436253
0,107446230118319
0,107474810305748
0,103110582292306
0,103893859706107
0,106427003180296
0,107216124140914
0,105991723621802
0,104012617923322
0,106346615944487
0,106739009269172
0,107472556914567
0,104525611624007
0,106094019712752
0,107614306188642
0,104873734354478
0,106469356949089
0,106702487571699
0,105254790058984
0,103154828762283
0,106434416090959
0,105661495597287
0,102587893889008
0,104025800500546
0,104247541125671
0,103288612667941
0,105100096477662
0,106829807554642
0,104363369250638
0,105290782690372
0,10465007008522
0,103624509739874
0,103714789830927
0,106237293221368
0,101615931383686
0,104384110431539
0,104979737724037
0,105491122675377
0,104748867766842
0,10248491949866
0,104133757196368
0,107418959808567
0,101873325848414
0,104282732447046
0,100655160049465
0,105485341701604
0,102663628721025
0,102703755215173
0,104202143163177
0,104629137333676
0,100934281786201
0,101988984189435
0,103364399786266
0,102993237696288
0,102724999929377
0,106377984618972
0,10330644518804
0,10452245125546
0,10411652784755
0,105659641730878
0,101530978885467
0,10351550373574
0,1026468603507
0,104391750783562
0,102894431672738
0,105800121932484
0,103965149706752
0,104369909003999
0,103901334186131
0,104014088819498
0,104236560686916
0,10606200384673
0,105453648074115
0,10567094189921
0,10285965966678
0,105651552342443
0,10411806253276
0,105514844270903
0,103777042096527
0,103158738608858
0,103982070547005
0,106116393278114
0,104596781036435
0,105536315073005
0,103926505475874
0,106773618512702
0,106323603456112
0,105607065298484
0,105680145535321
0,104283413983706
0,10261071469079
0,104921234620081
0,106412135674013
0,104312949731123
0,104099911721451
0,106562003160622
0,105568007790908
0,105630995012416
0,102712108266713
0,106478268982732
0,107738293005268
0,105833482590291
0,104464567543741
0,105874337624112
0,108258598454112
0,107251436588655
0,107719796823594
0,108849479145639
0,104322384958806
0,106175618747179
0,102683344772903
0,106131508224575
0,105422103575856
0,108580538994572
0,109419197724599
0,106635001030364
0,103837789593576
0,106151228084762
0,104814436232764
0,108144172108197
0,106888710107431
0,105993004360561
0,104556547626682
0,104519352963214
0,109002300218379
0,111295440171037
0,107502990812666
0,107227222047968
0,107031560969911
0,108201460367655
0,107437959824618
0,110577700053094
0,108452479061233
0,109562836150363
0,109833695030387
0,110070285447617
0,108012283334919
0,110529471786994
0,109432123458498
0,109754343711751
0,109518190743829
0,108853328433875
0,109149363486195
0,110675190386997
0,106375858246283
0,111184745057123
0,109896638705346
0,107713168407146
0,110882810765434
0,111006029279624
0,107918885306416
0,110657687137818
0,108482381594906
0,108251802910887
0,105758576780281
0,108625059718094
0,106261707427979
0,10785642281914
0,105091089443727
0,104960300720089
0,105937378358828
0,106205521549812
0,107651052315698
0,108563559477097
0,108303955019572
0,107548962611072
0,103997495179471
0,103891028185064
0,105601664283815
0,105554236498228
0,105755547044435
0,107915475225933
0,10482005168544
0,105838330101668
0,104662083426945
0,108085127152246
0,104300805628964
0,104911503730077
0,102862842258738
0,103643895094296
0,103681711419934
0,104228140090369
0,104669219305217
0,107532486314592
0,104651133200585
0,102823956630584
0,103210481695011
0,10531353884585
0,102814073223414
0,10255974991246
0,103124204975168
0,105159846994976
0,104537874054335
0,107070032149078
0,102264561390489
0,103292497111253
0,102352249182791
0,102247897890756
0,102556857999966
0,105230280715032
0,101047662278537
0,101902241732289
0,101604235477996
0,101884065977496
0,0987797313395596
0,101759435588522
0,100677917137889
0,10039798592845
0,10243424985501
0,102517142460969
0,098722866807197
0,101801561185446
0,0973891428349638
0,100005223538956
0,103232825053398
0,0996181899942396
0,100613584579095
0,100985466730934
0,0994346969475303
0,101148898860807
0,100452063554684
0,0981774534544677
0,101783428018096
0,100539699312896
0,0982372949966529
0,0981372795262484
0,0974561422972958
0,100385449461792
0,0983886971163099
0,0994282347265319
0,102316709669548
0,100711571438405
0,0986953264404074
0,100387520724571
0,100940282486557
0,100574005856197
0,101759267745042
0,0991344522790943
0,0990470802119591
0,0993947365820782
0,101205150030305
0,0973820450586534
0,0978994579036793
0,0993149813403251
0,0994352328159486
0,0998618916212396
0,0962611776823903
0,0972591770654591
0,099795345246601
0,0975461433702327
0,0976523743428959
0,0962881972764015
0,0968158720540973
0,0962476497118674
0,0980456644409098
0,0951945929741344
0,0958084229202192
0,0969690988402552
0,097556434175967
0,0955937346438719
0,0946267071979786
0,0972444762977777
0,0931775805373695
0,0975774839213359
0,0939002150981744
0,0968084406093356
0,0941556224145348
0,0935655099436347
0,094479096918397
0,0959114792453502
0,0958038726461791
0,0969104412143413
0,0924639762738822
0,0942489449812248
0,0910331645252573
0,0912340657824353
0,093377965191987
0,0928578917335007
0,0954250096308381
0,0926398707383672
0,0911600106784554
0,0924010813361463
0,0924899002941974
0,0904845837717208
0,0891646515745432
0,0952620178550433
0,0891219955903704
0,0938773988652634
0,0911199655741937
0,0897356805116464
0,0887141727752552
0,0887928859633772
0,0895107677187902
0,0869093906266063
0,0871044317223613
0,0870271090865201
0,086159258423467
0,0855669943026618
0,0855026763540693
0,0885542194372022
0,0882089354243562
0,0857745432493281
0,0859678121805481
0,0838750308967129
0,0843316250358772
0,0836588381176672
0,0848772497963858
0,0864354789450904
0,0818088594023096
0,084879903638364
0,0854126540347495
0,0861961633085073
0,0834764582486075
0,0832904233443028
0,0879380974525402
0,0792106343589157
0,0842936024098125
0,0793191173085265
0,0859917355653133
0,0813344757254712
0,0841091277570167
0,0816955175383054
0,0820693687953076
0,0803506849587736
0,0836210195550536
0,081560230402591
0,0799114702599959
0,0802484927873469
0,0818718037898186
0,0805870878083701
0,0826344403159638
0,0802512102514269
0,08122419627046
0,0807164372749908
0,082374439237459
0,0786330336937483
0,0812522255975102
0,0788307874513915
0,0826518099328804
0,0789591219380713
0,0820701010160261
0,0787603638285758
0,0790865487630902
0,0775227874550574
0,0782947185567796
0,0785628902528273
0,0784351710641793
0,0799524663317541
0,0773206726371865
0,0770128835329768
0,0783511660347393
0,0800072116227521
0,0777093091624565
0,0775734630066849
0,0776615429225741
0,0780587200741284
0,0758590667059686
0,0748776973638926
0,0771345724879576
0,0743009544813334
0,0758311517025942
0,0760520788566259
0,0723551034630892
0,07617811535097
0,074258323551035
0,0780193726536211
0,0734137485077774
0,0835170338114465
0,0722065996183105
0,0786335286357082
0,0728636327362056
0,0740040363592344
0,0761496045715726
0,0747308178188356
0,0753444929239951
0,074202851081835
0,0726208495557546
0,0759002807543741
0,0725698476330947
0,0759176744112668
0,0746745448052941
0,0724164041702177
0,0732229284837833
0,0763062082494366
0,0724438515118558
0,0722067209802752
0,0741019982659344
0,0727143654331849
0,0783088638138735
0,0764710974301886
0,0676980423736621
0,0778441648981183
0,0694398122510693
0,0757759559626679
0,0784560035125694
0,0679370365095239
0,0771328190665686
0,0682508120717682
0,0761256957115852
0,0697476025278888
0,0753260887408034
0,0679131009474518
0,0790054920090917
0,0682839903466779
0,0774002557186497
0,0724687497279133
0,0768441360117727
0,0745414505574625
0,0725388302047877
0,0721505465923164
0,0741902230036431
0,0704173315440321
0,0720243224173714
0,0716032909760095
0,0709732710947267
0,0716859962613689
0,0756923910493336
0,0666719292145891
0,0764993463680982
0,0669528487386642
0,073012954401313
0,0697777531514656
0,0755408688784843
0,0680527019006733
0,0815985000922477
0,0694312858282771
0,0750926510549636
0,0698838244995894
0,0713581252452042
0,0726265341359755
0,0713222453328404
0,0705039764978508
0,0702437182093006
0,0720681825611509
0,0705332593449408
0,0733558414447667
0,0695933970934634
0,0701928170148381
0,0731088945974294
0,0759815059443179
0,069349434493822
0,0713317319233259
0,0694663395455315
0,0712073432847785
0,0700550581748554
0,0699162610785687
0,0790471235427989
0,0727241762547189
0,077320236542463
0,0717440924545903
0,0746184621672815
0,0677130528686573
0,0744576440270178
0,0658965767378114
0,0757408995352939
0,0693894985689931
0,0734603047153857
0,072328616749778
0,075777777945868
0,0720278883175389
0,0755814042587685
0,0685401189413043
0,0733289975136434
0,0701569118588837
0,072347015011206
0,0698749586151136
0,0719946099152276
0,0695471324106096
0,0691375563311692
0,0754097979916698
0,0695031612981727
0,0750114527022155
0,0678537160846178
0,102503411777591
0,0580475109754532
0,0812852442178654
0,0657519173834586
0,0744089135344722
0,0732407477110578
0,0702660626938565
0,073986411873238
0,0759774548193129
0,072786159685726
0,0746679810782959
0,0708520568420713
0,0758267939716665
0,0741238850556652
0,0719453647671371
0,0778841561444097
0,0822591013574788
0,069286712163689
0,075587984851306
0,066866082562651
0,0870934511107359
0,066900605313674
0,0721581157097277
0,0811392374049897
0,0730023503194015
0,0781109667031339
0,0723819220566267
0,0788045009692069
0,073746757492322
0,0798329812057398
0,0741314923060075
0,0795730953195045
0,074940392174536
0,0786523486649185
0,0771983621471959
0,0740184914411826
0,0827425024011803
0,0772318565905794
0,0757974441851398
0,0831154762363871
0,0714823577418097
0,0800657086945734
0,0772190170404772
0,0784661107801518
0,074730182911445
0,0900619115473795
0,0780657268840257
0,0804283568889152
0,0860172573520358
0,0761265311132739
0,0790808948069373
0,0863285326811829
0,0798318035171606
0,0876647920222947
0,0697062605542838
0,108631518657658
0,0658520862750677
0,0892140929679741
0,0801648626424203
0,0808987573170669
0,0824419640848744
0,0821573956513204
0,0862125759845033
0,0803275914780565
0,0917797966388246
0,0728087690049373
0,0937021385945367
0,0755854729589482
0,105353505876343
0,0771625553084785
0,0891095489695985
0,0843845263724766
0,0890366477323744
0,0839007952017426
0,0971513877379498
0,0773881635633571
0,0960502283379206
0,102559931994414
0,0863857197881993
0,0937517099815362
0,079569243372831
0,0960345690031864
0,104760284805857
0,0815623053019663
0,0982261288312671
0,0845281760326014
0,0971879819058662
0,0849773665443096
0,102989575986273
0,100313104202443
0,0906818211254559
0,0964568845766686
0,0939811105298449
0,0918777637421327
0,115201240598805
0,087222237132869
0,100244453520025
0,0938368935650129
0,107934605563316
0,0885838601511322
0,145992999422195
0,0800651280380338
0,131536368235478
0,0932858006777415
0,118160328362907
0,107953930127796
0,113905665846398
0,109301459851242
0,122217606952558
0,113806697979989
0,112712907279042
0,110742538014685
0,136694921546379
0,117441510631953
0,116436363303809
0,126647259644429
0,119323358367633
0,13559501338234
0,14339210342508
0,142785226549471
0,13309295587915
0,132094148575362
0,13261896887666
0,149073922405512
0,126590655493583
0,142987458186218
0,13597281886273
0,142663945213613
0,137448360631022
0,143226431538517
0,154765655984699
0,139751850642936
0,150792549166822
0,146300607889198
0,153989667102316
0,154649181021545
0,168753290930694
0,164674778262751
0,153540581012323
0,182409741246022
0,148043917603373
0,168741249004246
0,160323362519514
0,164521990538721
0,17479768599475
0,167564143144643
0,171166626759892
0,167982202202874
0,201022467273629
0,174362713562289
0,189741400555583
0,189750788656334
0,188359104269934
0,205312699216938
0,174546876315978
0,368623616079183
0,190518977851128
0,234529807620846
0,21001865294052
0,251048285280763
0,256812477450383
0,24961159662675
0,259008406261797
0,274745298295805
0,274400080408088
0,294618821128766
0,299568033858342
0,304644354099664
0,316669963371283
0,322640049151588
0,326383779887227
0,371078944743966
0,362850967662561
0,40389426223055
0,373756176593783
0,382031242144217
0,401780695213535
0,422417988930348
0,400413206997718
0,434078654482306
0,416573411827159
0,455497457084927
0,468799767075565
0,464053717441026
0,474146787558912
0,48067039617758
0,510359373076466
0,494608607905039
0,55437339232101
0,538496266310224
0,547068048168762
0,55788369036479
0,561842857660051
0,589897694009069
0,57646089548229
0,630639865852317
0,603680217515224
0,619587799014494
0,634994746875592
0,650623858139016
0,653521451715261
0,665667091816631
0,660736454339368
0,681578335100218
0,682217299962686
0,718139146410959
0,766991171915164
0,70908028731088
0,686538500030423
0,70781941662833
0,676905597501676
0,743367481207546
0,685237445242051
0,756313129928268
0,71151163252835
0,711319574571069
0,718231609410842
0,719239957468812
0,714719549677613
0,71880662140703
0,727750298804163
0,716080871713157
0,751579674543311
0,726447099502589
0,727422753231738
0,801430493746114
0,724391200465565
0,727879121396652
0,71020885344908
0,729756095354895
0,704817993138488
0,719368426505815
0,720290826275225
0,721717059329336
0,685350638684922
0,716437639570499
0,661005529280835
0,72177451978988
0,709309305868704
0,662073057320515
0,633158972577551
0,632976202410091
0,63592981062361
0,610327485554814
0,625034542161082
0,689138131004722
0,587871706376314
0,584503359090373
0,578196278577064
0,579044988487702
0,568830795957037
0,561370853022916
0,547930989887924
0,567428085394019
0,550713946206637
0,570829030345308
0,537398748904519
0,554390124783916
0,533155325952476
0,54949070481939
0,536939126710484
0,542261245065958
0,54099815739589
0,539051417566787
0,528628438889101
0,530782904394551
0,528075214968688
0,533633691596478
0,534831326137234
0,53566079117865
0,526229846198335
0,541702548023206
0,527528179170316
0,539336338963374
0,53050471769157
0,536520242390554
0,537810646197086
0,541373162025158
0,535343985031395
0,543182992561333
0,536922237850922
0,539530492420993
0,536018853098279
0,541330709450487
0,540121832564177
0,533802435375128
0,539335892880162
0,545285048538022
0,551663121089374
0,540589326965312
0,53359127539841
0,544735445510573
0,522063686756186
0,53752853551593
0,524536257469912
0,573036729056018
0,541782249250589
0,523662466360741
0,52519097962504
0,526610457599129
0,531588408600087
0,530399991181651
0,513889789020881
0,532265561169812
0,497743555360221
0,57549904258473
0,577759786749935
0,601899351484349
0,548324187794391
0,531870542079149
0,525922279732015
0,540727744216528
0,565245026539729
0,524659897453807
0,540159755949304
0,529662596735276
0,556925797675447
0,547146006060764
0,522044841443637
0,53587243512667
0,522160129126285
0,551011139098535
0,548440679022608
0,533659193688162
0,528412248972802
0,554873198020545
0,520325511400101
0,581328889864357
0,537391604334586
0,524561547761031
0,501815957130169
0,510243847227314
0,507105119751349
0,500356913664523
0,550310161416572
0,491532395891938
0,497737805339619
0,484153789461302
0,474603540664015
0,487568608033204
0,467553035938617
0,486843804069506
0,456789942800142
0,498584718604005
0,442568293043599
0,47280127349673
0,455627741343088
0,45136248718346
0,466169365640211
0,442269355219729
0,425552552393129
0,457163303328299
0,455146150052936
0,420090354302638
0,431755777598713
0,415524314371336
0,407552489928052
0,427046536011894
0,392793934668405
0,405749952042155
0,387160447118353
0,405747099142366
0,439945655359175
0,386194396468933
0,384632371054276
0,365664568992237
0,356314358145949
0,359148254402007
0,350420774655785
0,359435105442359
0,339867344230318
0,35167460252078
0,352623804546543
0,335391451644281
0,366197494751174
0,338897503761291
0,340660888697296
0,338570599142794
0,337039226506103
0,343041026698363
0,350303011894441
0,35111949052737
0,347392559238071
0,337006021832908
0,356421464743403
0,335877072634622
0,354638111398111
0,345102462917035
0,355880181667435
0,352159541474332
0,371130547835938
0,365047139331534
0,373766313883161
0,378858091452307
0,387124199433096
0,382093426957297
0,419613836980918
0,387145608491446
0,438672269991923
0,417341869237827
0,449576366922187
0,445045105207794
0,435494907083098
0,458758037052972
0,455890589209185
0,461232474121844
0,469015817637795
0,474861430764324
0,496266659189834
0,475086710683376
0,495577829874215
0,49371646363405
0,501919710259224
0,497666720074641
0,527298038836004
0,519723778320881
0,516096154305801
0,544957585739041
0,522356303692426
0,539065454866888
0,531962052226125
0,538144594641627
0,533510877511974
0,540965235760082
0,549423285687363
0,540867261319365
0,565555052868952
0,546904252544263
0,560020666636076
0,557386628145606
0,55029166232063
0,564526725253764
0,561742863381455
0,570381969543736
0,567089664172629
0,570308116453466
0,582092238818984
0,574423482523802
0,628679687294704
0,594095020322098
0,578243191630456
0,59614428983031
0,591635073045138
0,600541425528026
0,592501570957439
0,606958789890295
0,619679041719033
0,61206460544523
0,619004764720546
0,614430950033798
0,626612498883143
0,628841246447649
0,654379338626029
0,627121051889334
0,633114649985364
0,637179283730725
0,650618423813374
0,703245495042379
0,642278488360456
0,681627769700668
0,661675693290518
0,667418594827991
0,667873808078884
0,668631985041612
0,669656729989479
0,676357818439891
0,680311848813127
0,69405826345168
0,681656690329347
0,677511014859191
0,689195387509153
0,683456815910365
0,688990956355929
0,687321131691287
0,692820489464906
0,693826837949151
0,690019479774321
0,686232696991606
0,682178784988571
0,699840922484995
0,687990602618739
0,682505071351937
0,677918662208718
0,712513973762402
0,692666866106632
0,685721729755242
0,683628879262852
0,679937232105238
0,67700533118122
0,692986753966321
0,680052298635314
0,704601019155935
0,683819876024145
0,692456458119198
0,692898601681469
0,694413003120364
0,694948341327627
0,708938141912312
0,698490479117193
0,697306353303228
0,701040902398565
0,704572947813824
0,699206273399196
0,700434432254271
0,696508672384747
0,706878302687023
0,705493675050187
0,692680711729574
0,680493858367871
0,683245997621672
0,685919722928294
0,698876318065133
0,68345052956864
0,67861366557778
0,66483878038409
0,668273062202816
0,652431440012015
0,672209412352757
0,653721766548781
0,643674854336746
0,645185367378461
0,629636140702863
0,631859912277981
0,622846357681834
0,63005266688334
0,613316288222605
0,621868166663714
0,615882796822403
0,609894547546681
0,611436927428008
0,609261125656298
0,60512449702751
0,604782676228662
0,60240334112906
0,601954325513584
0,600792531207133
0,603255578610894
0,606925026814919
0,601976356628511
0,599921784826544
0,600014941655282
0,60181289348453
0,603857697355643
0,594172110217758
0,601863444025005
0,597079974153749
0,600097796302344
0,590611278478478
0,601564474739399
0,595199694530566
0,591969176433036
0,594404913538333
0,593562486015513
0,590329753007261
0,591946516883949
0,586038545931091
0,58754695852241
0,589062667007579
0,591496155740147
0,590158114949948
0,590178546933581
0,593260362878562
0,589091468137381
0,590389710983092
0,595201666665565
0,591422018293704
0,588784731559261
0,599592810167542
0,590849021501896
0,598899486500697
0,598869717944695
0,594910457722691
0,595794590392107
0,590361938038114
0,595338502907592
0,599788538364212
0,594037427199135
0,590216393739185
0,592733337798647
0,592707870277882
0,588093740523402
0,587265362339717
0,591609168535707
0,58525381046108
0,574589319468211
0,575856771584301
0,572097567282717
0,566082899678556
0,556847613718576
0,556456775608241
0,553800661374164
0,550428702095224
0,543934101060267
0,541381678633899
0,53967615660523
0,535319078239017
0,532239529407062
0,530992173875233
0,530184606205256
0,526898288247077
0,525392740469589
0,522873642339486
0,520036269807843
0,52138239924114
0,522677139205012
0,521151847871113
0,516607697730527
0,521044136593324
0,522282667010397
0,520617410258103
0,524651137100135
0,523307465213382
0,5215528477984
0,526678837447764
0,527193201906163
0,52860557942108
0,530044020489637
0,531880627556013
0,535016240329589
0,54052217213123
0,540119732102319
0,541553555471284
0,545451383071115
0,543334859064939
0,545399970267832
0,546571760357116
0,551981849952476
0,55189030056241
0,551052818282982
0,553500410404704
0,553013024175929
0,550875275518479
0,552598828629895
0,552539035767287
0,553166781490024
0,557090558835803
0,556732111187838
0,549181327191613
0,5494259726866
0,54558261021474
0,543315493210589
0,546932944260147
0,550249287706993
0,546314834838732
0,544588119154709
0,540933140265034
0,541581909172028
0,544314830814891
0,541113316052339
0,537928707571482
0,533391869460799
0,531329587317204
0,53593736779291
0,533378363097717
0,532149736662444
0,53222015977919
0,524478432764438
0,525368657778889
0,524853010848161
0,522939683614633
0,521513867588118
0,51793277245319
0,516620521649518
0,514578298286572
0,512046313254761
0,51541941528288
0,509647731209141
0,509561468542113
0,507450105143261
0,506668715182489
0,499511878316501
0,498141191060253
0,498064142657783
0,49239789770308
0,492882656619723
0,487332763286489
0,480415482674277
0,481703664045056
0,474163988374113
0,470822786980555
0,470663407070809
0,466238027588739
0,463453391270991
0,46256084827572
0,457212319833261
0,455917813382997
0,450345695821485
0,450472103498722
0,452175255559023
0,447504986218694
0,451101118154558
0,444858167658262
0,444396700437779
0,443022506503134
0,438876732288329
0,436426861255414
0,434730377692472
0,432301614448427
0,429787977560153
0,422736906007836
0,416890632404273
0,416029946447818
0,411364696561972
0,406133294570966
0,401433021062951
0,400278720072452
0,398079601932447
0,397342191389379
0,396763955562046
0,399474882058619
0,404005601589061
0,413429476489788
0,41681361012259
0,429038519824626
0,437278508135356
0,445915414480181
0,462045460442615
0,476012987920551
0,491930192738814
0,504332948327088
0,525190521820112
0,542354407079849
0,560215816733293
0,57645096196725
0,594654648871291
0,611508790737094
0,632120213536744
0,645846479814005
0,665102489984485
0,678620766850689
0,691864957494474
0,710091680343333
0,724279539416184
0,742763704867942
0,756225726045689
0,764511855613247
0,777341930245121
0,789333444197948
0,800638791727575
0,805003499622207
0,80996315367039
0,83685282059394
0,833719915580928
0,83844527146837
0,84091876067898
0,84792104438015
0,850549194208286
0,85387746327596
0,852553831199687
0,857270093971516
0,854513102116073
0,853178669117245
0,864295808798101
0,859274322015737
0,85771375437437
0,862847316957533
0,861278804637413
0,863597281222027
0,875541829390632
0,872185192812458
0,874797308685296
0,879982765808422
0,891923455814305
0,898449159072957
0,907245220740253
0,905801919211039
0,915622937642697
0,920457847119613
0,932899500039674
0,951054667915979
0,958894537488753
0,967352880139491
0,982290143141222
1,00226067117259
1,00497505579267
1,02050054197548
1,02297515688925
1,04452906470864
1,05897638296723
1,07253985052783
1,07720713027631
1,07474058701609
1,07508352521705
1,08679414205174
1,09990234543622
1,08145903386603
1,08645358480481
1,08863982084343
1,08105997431276
1,06666279858782
1,06108721115659
1,07186143929264
1,07629261740502
1,0831207599712
1,08314775691048
1,07443843080539
1,09532966052838
1,10844059403552
1,12164138619684
1,1486098112164
1,15995768758256
1,18664382816338
1,17132050481937
1,20571855568209
1,21226386932177
1,26516794543016
1,26237849397312
1,26701674882226
1,29515959287934
1,31025675045942
1,34373717134459
1,33066658844497
1,35767438094448
1,3784713405597
1,42853767438635
1,41539829819489
1,46014520247215
1,46800368877966
1,43730209766284
1,51279429949859
1,55154781937576
1,61229634842675
1,58482089019644
1,63932981285429
1,58788227026919
1,63821732217756
1,65132893935825
1,6502852898956
1,70492714254877
1,7387965931181
1,64485091488033
1,79299196052132
1,73536050294741
1,76406412233884
1,79962367206301
1,81074472512032
1,75826200600738
1,77866967183879
1,80043957850558
1,72917854902651
1,79857169878795
1,78087300272031
1,71281186638681
1,75428193677704
1,69978483430138
1,69305119229253
1,79437918482019
1,82072747308557
1,73426692545344
1,73227635279412
1,80009051035359
1,77109476540276
1,78628155906215
1,79830324778148
1,87196654582556
1,89671486341799
1,88748515241333
1,93232703883964
1,88237447265826
1,93946400864004
1,84930188397834
2,06182518508289
1,93519468905282
2,06187696358058
1,89366993438275
1,8987954447523
1,92140471257146
2,31372407631066
1,96819823922632
2,06583633485674
2,01828262281524
1,97474500023803
1,89103805221999
2,02362794550068
1,85928048947368
2,03722480064341
2,04444835554119
1,98114322322522
2,10241003419723
2,12370786457492
1,95499253258245
2,148736779565
2,05843912215258
2,14003265133879
1,89800415671892
1,98065631925135
1,78951852172581
1,95050560370936
1,90653545633651
1,9223448611688
2,13245641390101
2,14652535964105
1,8055185588082
1,85235659359365
1,7507110863774
1,74953246435127
1,7499690999816
1,70695282453033
1,54959052493002
1,54958765123636
1,49701102300938
1,52753187004113
1,43348444776845
1,39385024952478
1,3989783369266
1,34471688986035
1,32333492642381
1,37470759225098
1,31189126697477
1,28986314812466
1,29847008195005
1,30545803544119
1,29149407729831
1,26460368434406
1,22169151099413
1,26021521236033
1,20565094763573
1,20159472838554
1,18973613075468
1,18003383554182
1,15855458211349
1,13027410954453
1,10959363939472
1,1050447387773
1,07659072236756
1,04180430132332
1,0250058873092
1,02002266229623
0,984354636736488
0,961280825421757
0,914314088875675
0,887035896080922
0,859109064379284
0,825771788643022
0,787211788559233
0,767375072193522
0,739947912561142
0,710163984590229
0,686955365845224
0,664961536862824
0,646223845622561
0,620535482254265
0,597434350455073
0,579339725620018
0,565832448786055
0,564787103328787
0,536952965974023
0,532414613625974
0,520634538432438
0,518565684355663
0,505311011478995
0,504593533371864
0,494948424641668
0,489520672809499
0,492923154278946
0,490269657241276
0,487074525489722
0,491107266333255
0,493384604323096
0,495237700993442
0,497142899692089
0,495019148383078
0,491043282384918
0,502243393412847
0,49350483704022
0,49618314746238
0,489651020490079
0,49725489480214
0,493362828950949
0,488561716779239
0,484353885815555
0,484008349786362
0,470302811763601
0,469634634272503
0,471949015150677
0,462565952392219
0,462778485863326
0,466597297961863
0,455175666669917
0,463821021305558
0,45423902721944
0,467812937071311
0,464534203818937
0,467716290489686
0,465695296097698
0,470723036366483
0,47087438473433
0,473809891320655
0,477476919465946
0,480354752673864
0,479659742727576
0,481208310248124
0,487942676050957
0,49022347701852
0,492865113389253
0,489892285804113
0,488890539551195
0,488137880803445
0,489905419758232
0,4928744646323
0,485201524008942
0,497866723823816
0,489812560811135
0,492499580808988
0,484127658660197
0,504209012402958
0,501908273686964
0,502983946234101
0,502443784362914
0,517378023422299
0,521028206650343
0,519501353462166
0,531613853231177
0,550663825313272
0,551598616088763
0,569250520305049
0,589571943705936
0,604587668129984
0,600447030938753
0,61865702302564
0,623109129005068
0,63468884698457
0,640358174231172
0,628096102609251
0,62053571485076
0,613827849392749
0,607074694271128
0,619669033876079
0,596206543918961
0,583445454272581
0,570216382811909
0,579356389538553
0,556448455554651
0,567233603282709
0,56404554141373
0,579517116122024
0,561413073358212
0,575185842665707
0,566264083899481
0,585310633515504
0,57064343422218
0,569938257896988
0,560274885732298
0,569888168614279
0,55352336091826
0,569738629259441
0,545849920539637
0,551137594787855
0,541781911577431
0,545367346544353
0,535696000548097
0,535082857818468
0,517752079394391
0,52411437319125
0,518927410869848
0,517332331894359
0,519554764227006
0,515751486770563
0,514247984990505
0,515230062570418
0,516849255130871
0,514072023777326
0,495832498714076
0,501140077549239
0,486784695282156
0,498777232218942
0,48606426253789
0,476785283573884
0,499018823147632
0,50488481988446
0,482299557658249
0,493978221831849
0,479075728747037
0,483743419099513
0,469414272072317
0,490084778228074
0,465884979701703
0,475404086867527
0,470472284841198
0,458276498949468
0,462868139264288
0,468107656859257
0,44569823940945
0,462527248807456
0,461086568603311
0,452802743802289
0,463276199790641
0,454401560287018
0,448048035362148
0,452644463925561
0,453021867235352
0,459557378520592
0,453091622935315
0,446545485876925
0,447621766958596
0,452721501274282
0,452842937828234
0,464507969546578
0,450624645575944
0,46221157501727
0,470621202136916
0,448814350847014
0,449248945495785
0,467543077428389
0,452768114412467
0,482446957770566
0,476967354260679
0,481090300168655
0,471319039602689
0,486791279405739
0,466405926103698
0,491615474760755
0,466293520034641
0,503017568489415
0,488303062032935
0,484164219040215
0,505496090249341
0,511582826982998
0,498334038875866
0,51026989755549
0,520278143346983
0,531476113148777
0,534649579675026
0,563431708825385
0,559393971173232
0,585992971584067
0,57575136689983
0,591602194694308
0,587976562059259
0,643052399841738
0,651743867578417
0,670019375078263
0,670317054710449
0,700649944628569
0,6751983356381
0,735077142139143
0,713013224128738
0,762387197431942
0,719342629227914
0,772891171184042
0,715345188643565
0,787033500545447
0,731373430078294
0,775024715219642
0,735547733173291
0,740078189781019
0,686787944546218
0,748582210363743
0,745070556271025
0,741584266810256
0,69391597927599
0,729205689068153
0,694606323574052
0,76873399178207
0,703960186195134
0,735255009284389
0,693469762869571
0,763994327633642
0,673639938691474
0,731304315941555
0,701943563250065
0,72705097213948
0,698879899460619
0,700748541126921
0,660716247160513
0,667669290336687
0,684876507224363
0,665272409976215
0,648608686371716
0,683946364636063
0,670815418393574
0,659172202908501
0,649414617178292
0,687287958582276
0,627934428261703
0,706419351100922
0,664499227520823
0,720059586072327
0,638256167565096
0,634078416053347
0,703723711412819
0,677696155510866
0,621902009252403
0,703779467881444
0,654397678166792
0,704309642919426
0,678099052618134
0,694638969504151
0,687809343646298
0,720748303265819
0,666821853612201
0,725770315423947
0,683455887416273
0,710050520388475
0,636581284177196
0,760865311662732
0,717166308051613
0,716618176038876
0,699388417911801
0,713822003836785
0,634272526691594
0,751760375291105
0,685513107996031
0,694917445810166
0,7709869768177
0,781942155145587
0,668819174740572
0,797357648833801
0,730203182182454
0,894709004806457
0,790679602755053
0,829674382976275
0,923935518954123
0,856724286072818
0,803284690648878
0,842681093870264
0,737681878749647
0,889668958880481
0,814544836390402
0,865039185633651
0,794061461501581
0,929660797022761
0,909215122160993
0,966779259888005
0,95051158699274
1,10968528030961
0,838105114141145
0,955396645476792
0,821060167284007
1,01213586934228
0,849244957638672
0,972090663112026
0,980211759270345
1,36857010171809
0,76818445025003
0,845729423350763
0,810045279174515
1,00683789108251
0,878385312185221
0,80720917193705
0,670682032498325
1,06805131017568
1,03132223846303
0,885518617601221
0,956535404624783
0,907010050294962
0,727780515639044
1,21322564719901
0,764695427262955
0,78330006120696
0,957151959366414
0,760907922108319
0,724225520367243
0,922838292363453
0,889970169561125
1,02995585955078
0,70495851731868
1,04358513078639
0,90656068243419
0,933542263117534
0,869011471928869
2,73607903916835
0,685159487453639
0,660005356735873
0,944409754306424
1,02002255292553
1,19513905222943
1,0075252690393
0,972064541132542
1,3414650075904
1,0201911094276
0,86861888556302
0,886977840247022
5
0,7043348391769
0,937526687688389
0,634828884333043
1,22443367689501
0,918807898539784
0,789512416624884
5
1,03145452103585
0,806482583186916
